((X_0  0.19117647409439087)
(X_1  0.09117648005485535)
(X_2  0.0990196168422699)
(X_3  0.21078431606292725)
(X_4  0.2186274528503418)
(X_5  0.21470588445663452)
(X_6  0.0990196168422699)
(X_7  0.0833333432674408)
(X_8  0.18333333730697632)
(X_9  0.2029411792755127)
(X_10  0.22254902124404907)
(X_11  0.21470588445663452)
(X_12  0.19509804248809814)
(X_13  0.18333333730697632)
(X_14  0.19509804248809814)
(X_15  0.21078431606292725)
(X_16  0.10294118523597717)
(X_17  0.11078432202339172)
(X_18  0.11078432202339172)
(X_19  0.10686275362968445)
(X_20  0.19901961088180542)
(X_21  0.19509804248809814)
(X_22  0.19509804248809814)
(X_23  0.09509804844856262)
(X_24  0.21078431606292725)
(X_25  0.21078431606292725)
(X_26  0.11862745881080627)
(X_27  0.22254902124404907)
(X_28  0.23039215803146362)
(X_29  0.21470588445663452)
(X_30  0.09509804844856262)
(X_31  0.0833333432674408)
(X_32  0.07941177487373352)
(X_33  0.07549020648002625)
(X_34  0.07156863063573837)
(X_35  0.16764706373214722)
(X_36  0.22254902124404907)
(X_37  0.20686274766921997)
(X_38  0.08725491166114807)
(X_39  0.0676470622420311)
(X_40  0.0676470622420311)
(X_41  0.0833333432674408)
(X_42  0.21470588445663452)
(X_43  0.13431373238563538)
(X_44  0.1872549057006836)
(X_45  0.09509804844856262)
(X_46  0.0990196168422699)
(X_47  0.10294118523597717)
(X_48  0.0990196168422699)
(X_49  0.09509804844856262)
(X_50  0.09117648005485535)
(X_51  0.08725491166114807)
(X_52  0.20686274766921997)
(X_53  0.21078431606292725)
(X_54  0.11078432202339172)
(X_55  0.21078431606292725)
(X_56  0.1715686321258545)
(X_57  0.07941177487373352)
(X_58  0.09117648005485535)
(X_59  0.10686275362968445)
(X_60  0.12254902720451355)
(X_61  0.12254902720451355)
(X_62  0.114705890417099)
(X_63  0.10294118523597717)
(X_64  0.12647059559822083)
(X_65  0.114705890417099)
(X_66  0.10294118523597717)
(X_67  0.0990196168422699)
(X_68  0.10294118523597717)
(X_69  0.10294118523597717)
(X_70  0.09117648005485535)
(X_71  0.07941177487373352)
(X_72  0.08725491166114807)
(X_73  0.09117648005485535)
(X_74  0.09509804844856262)
(X_75  0.10294118523597717)
(X_76  0.2029411792755127)
(X_77  0.19901961088180542)
(X_78  0.19509804248809814)
(X_79  0.19117647409439087)
(X_80  0.21078431606292725)
(X_81  0.2186274528503418)
(X_82  0.2186274528503418)
(X_83  0.20686274766921997)
(X_84  0.19509804248809814)
(X_85  0.19509804248809814)
(X_86  0.19509804248809814)
(X_87  0.19901961088180542)
(X_88  0.19901961088180542)
(X_89  0.08725491166114807)
(X_90  0.16764706373214722)
(X_91  0.05588235333561897)
(X_92  0.1872549057006836)
(X_93  0.09117648005485535)
(X_94  0.09509804844856262)
(X_95  0.10294118523597717)
(X_96  0.21078431606292725)
(X_97  0.10686275362968445)
(X_98  0.10294118523597717)
(X_99  0.19509804248809814)
(X_100  0.1872549057006836)
(X_101  0.18333333730697632)
(X_102  0.17941176891326904)
(X_103  0.17941176891326904)
(X_104  0.18333333730697632)
(X_105  0.08725491166114807)
(X_106  0.0833333432674408)
(X_107  0.07941177487373352)
(X_108  0.10686275362968445)
(X_109  0.11862745881080627)
(X_110  0.12254902720451355)
(X_111  0.21470588445663452)
(X_112  0.08725491166114807)
(X_113  0.07941177487373352)
(X_114  0.17549020051956177)
(X_115  0.1872549057006836)
(X_116  0.2186274528503418)
(X_117  0.25)
(X_118  0.17352941632270813)
(X_119  0.2852941155433655)
(X_120  0.17352941632270813)
(X_121  0.1617647111415863)
(X_122  0.13431373238563538)
(X_123  0.09509804844856262)
(X_124  0.07156863063573837)
(X_125  0.07941177487373352)
(X_126  0.11862745881080627)
(X_127  0.15392157435417175)
(X_128  0.22647058963775635)
(X_129  0.21470588445663452)
(X_130  0.2029411792755127)
(X_131  0.19901961088180542)
(X_132  0.20686274766921997)
(X_133  0.21078431606292725)
(X_134  0.21078431606292725)
(X_135  0.20686274766921997)
(X_136  0.07549020648002625)
(X_137  0.08725491166114807)
(X_138  0.10294118523597717)
(X_139  0.2029411792755127)
(X_140  0.20686274766921997)
(X_141  0.24215686321258545)
(X_142  0.30490198731422424)
(X_143  0.387254923582077)
(X_144  0.3539215624332428)
(X_145  0.3970588147640228)
(X_146  0.41274508833885193)
(X_147  0.5166666507720947)
(X_148  0.49313727021217346)
(X_149  0.47745099663734436)
(X_150  0.43039217591285706)
(X_151  0.344117671251297)
(X_152  0.25)
(X_153  0.1872549057006836)
(X_154  0.16372549533843994)
(X_155  0.16764706373214722)
(X_156  0.09509804844856262)
(X_157  0.0833333432674408)
(X_158  0.17549020051956177)
(X_159  0.18333333730697632)
(X_160  0.19509804248809814)
(X_161  0.0990196168422699)
(X_162  0.08725491166114807)
(X_163  0.17549020051956177)
(X_164  0.06372549384832382)
(X_165  0.0676470622420311)
(X_166  0.07549020648002625)
(X_167  0.1872549057006836)
(X_168  0.31078431010246277)
(X_169  0.34607842564582825)
(X_170  0.4009803831577301)
(X_171  0.551960825920105)
(X_172  0.5794118046760559)
(X_173  0.5676470994949341)
(X_174  0.4362744987010956)
(X_175  0.4049019515514374)
(X_176  0.5558823943138123)
(X_177  0.5558823943138123)
(X_178  0.4362744987010956)
(X_179  0.3813725411891937)
(X_180  0.3911764919757843)
(X_181  0.29313725233078003)
(X_182  0.21470588445663452)
(X_183  0.07156863063573837)
(X_184  0.19509804248809814)
(X_185  0.19509804248809814)
(X_186  0.21078431606292725)
(X_187  0.2343137264251709)
(X_188  0.2539215683937073)
(X_189  0.15392157435417175)
(X_190  0.12647059559822083)
(X_191  0.19901961088180542)
(X_192  0.22647058963775635)
(X_193  0.20686274766921997)
(X_194  0.09117648005485535)
(X_195  0.08725491166114807)
(X_196  0.41274508833885193)
(X_197  0.49705883860588074)
(X_198  0.4696078598499298)
(X_199  0.3578431308269501)
(X_200  0.457843154668808)
(X_201  0.46176472306251526)
(X_202  0.4696078598499298)
(X_203  0.4735294282436371)
(X_204  0.3225490152835846)
(X_205  0.3225490152835846)
(X_206  0.4264706075191498)
(X_207  0.43431374430656433)
(X_208  0.3382352888584137)
(X_209  0.32647058367729187)
(X_210  0.3029411733150482)
(X_211  0.28333333134651184)
(X_212  0.3911764919757843)
(X_213  0.40294119715690613)
(X_214  0.3382352888584137)
(X_215  0.3813725411891937)
(X_216  0.40882351994514465)
(X_217  0.4009803831577301)
(X_218  0.457843154668808)
(X_219  0.4225490391254425)
(X_220  0.3127451241016388)
(X_221  0.17352941632270813)
(X_222  0.12254902720451355)
(X_223  0.2029411792755127)
(X_224  0.3578431308269501)
(X_225  0.32647058367729187)
(X_226  0.41470590233802795)
(X_227  0.4382353127002716)
(X_228  0.36176469922065735)
(X_229  0.36176469922065735)
(X_230  0.34607842564582825)
(X_231  0.3382352888584137)
(X_232  0.36764708161354065)
(X_233  0.2598039209842682)
(X_234  0.26372548937797546)
(X_235  0.2872548997402191)
(X_236  0.33039215207099915)
(X_237  0.3656862676143646)
(X_238  0.37745097279548645)
(X_239  0.37745097279548645)
(X_240  0.3499999940395355)
(X_241  0.3578431308269501)
(X_242  0.4735294282436371)
(X_243  0.4892157018184662)
(X_244  0.5049019455909729)
(X_245  0.5166666507720947)
(X_246  0.5245097875595093)
(X_247  0.5284313559532166)
(X_248  0.4205882251262665)
(X_249  0.4009803831577301)
(X_250  0.3539215624332428)
(X_251  0.3029411733150482)
(X_252  0.3186274468898773)
(X_253  0.3068627417087555)
(X_254  0.3186274468898773)
(X_255  0.3578431308269501)
(X_256  0.49313727021217346)
(X_257  0.49705883860588074)
(X_258  0.49313727021217346)
(X_259  0.39313724637031555)
(X_260  0.31078431010246277)
(X_261  0.3382352888584137)
(X_262  0.36176469922065735)
(X_263  0.3578431308269501)
(X_264  0.33039215207099915)
(X_265  0.3068627417087555)
(X_266  0.3029411733150482)
(X_267  0.31078431010246277)
(X_268  0.34215685725212097)
(X_269  0.4539215862751007)
(X_270  0.4696078598499298)
(X_271  0.4852941334247589)
(X_272  0.4892157018184662)
(X_273  0.47745099663734436)
(X_274  0.457843154668808)
(X_275  0.34215685725212097)
(X_276  0.4852941334247589)
(X_277  0.5009803771972656)
(X_278  0.4049019515514374)
(X_279  0.3970588147640228)
(X_280  0.35196080803871155)
(X_281  0.3637255132198334)
(X_282  0.3068627417087555)
(X_283  0.36176469922065735)
(X_284  0.4049019515514374)
(X_285  0.5166666507720947)
(X_286  0.5323529243469238)
(X_287  0.5480391979217529)
(X_288  0.3892156779766083)
(X_289  0.3578431308269501)
(X_290  0.29509803652763367)
(X_291  0.3284313976764679)
(X_292  0.2774509787559509)
(X_293  0.1617647111415863)
(X_294  0.18137255311012268)
(X_295  0.20490197837352753)
(X_296  0.2970588207244873)
(X_297  0.30490198731422424)
(X_298  0.22843138873577118)
(X_299  0.26372548937797546)
(X_300  0.40294119715690613)
(X_301  0.4225490391254425)
(X_302  0.4225490391254425)
(X_303  0.31470587849617004)
(X_304  0.31470587849617004)
(X_305  0.34607842564582825)
(X_306  0.3656862676143646)
(X_307  0.36176469922065735)
(X_308  0.49705883860588074)
(X_309  0.49313727021217346)
(X_310  0.39313724637031555)
(X_311  0.385294109582901)
(X_312  0.3539215624332428)
(X_313  0.31470587849617004)
(X_314  0.29901960492134094)
(X_315  0.3029411733150482)
(X_316  0.4892157018184662)
(X_317  0.3911764919757843)
(X_318  0.2656862735748291)
(X_319  0.19509804248809814)
(X_320  0.19117647409439087)
(X_321  0.114705890417099)
(X_322  0.12254902720451355)
(X_323  0.114705890417099)
(X_324  0.13823530077934265)
(X_325  0.12647059559822083)
(X_326  0.22647058963775635)
(X_327  0.15784314274787903)
(X_328  0.2088235467672348)
(X_329  0.2598039209842682)
(X_330  0.3911764919757843)
(X_331  0.4068627655506134)
(X_332  0.41862747073173523)
(X_333  0.4421568810939789)
(X_334  0.34607842564582825)
(X_335  0.3186274468898773)
(X_336  0.5166666507720947)
(X_337  0.5009803771972656)
(X_338  0.48137256503105164)
(X_339  0.45000001788139343)
(X_340  0.39901962876319885)
(X_341  0.3480392396450043)
(X_342  0.23627452552318573)
(X_343  0.24803923070430756)
(X_344  0.344117671251297)
(X_345  0.30098041892051697)
(X_346  0.1617647111415863)
(X_347  0.1617647111415863)
(X_348  0.18529412150382996)
(X_349  0.18137255311012268)
(X_350  0.13823530077934265)
(X_351  0.19117647409439087)
(X_352  0.23823529481887817)
(X_353  0.21470588445663452)
(X_354  0.1872549057006836)
(X_355  0.07549020648002625)
(X_356  0.08725491166114807)
(X_357  0.20686274766921997)
(X_358  0.2186274528503418)
(X_359  0.22647058963775635)
(X_360  0.3284313976764679)
(X_361  0.3598039448261261)
(X_362  0.2754901945590973)
(X_363  0.2598039209842682)
(X_364  0.22058825194835663)
(X_365  0.21274511516094208)
(X_366  0.21666668355464935)
(X_367  0.2245098203420639)
(X_368  0.32058826088905334)
(X_369  0.3127451241016388)
(X_370  0.23235295712947845)
(X_371  0.26372548937797546)
(X_372  0.2872548997402191)
(X_373  0.3225490152835846)
(X_374  0.3696078360080719)
(X_375  0.49313727021217346)
(X_376  0.3892156779766083)
(X_377  0.3656862676143646)
(X_378  0.34215685725212097)
(X_379  0.33039215207099915)
(X_380  0.29509803652763367)
(X_381  0.3911764919757843)
(X_382  0.387254923582077)
(X_383  0.3794117867946625)
(X_384  0.27156862616539)
(X_385  0.26764705777168274)
(X_386  0.26372548937797546)
(X_387  0.26372548937797546)
(X_388  0.32058826088905334)
(X_389  0.3598039448261261)
(X_390  0.39901962876319885)
(X_391  0.3068627417087555)
(X_392  0.23823529481887817)
(X_393  0.22647058963775635)
(X_394  0.22647058963775635)
(X_395  0.23039215803146362)
(X_396  0.22254902124404907)
(X_397  0.20686274766921997)
(X_398  0.11078432202339172)
(X_399  0.12647059559822083)
(X_400  0.18137255311012268)
(X_401  0.2088235467672348)
(X_402  0.23627452552318573)
(X_403  0.344117671251297)
(X_404  0.33235296607017517)
(X_405  0.3284313976764679)
(X_406  0.240196093916893)
(X_407  0.3558823764324188)
(X_408  0.3284313976764679)
(X_409  0.3480392396450043)
(X_410  0.36764708161354065)
(X_411  0.3754902184009552)
(X_412  0.3715686500072479)
(X_413  0.3754902184009552)
(X_414  0.3950980603694916)
(X_415  0.4107843339443207)
(X_416  0.3186274468898773)
(X_417  0.34607842564582825)
(X_418  0.3696078360080719)
(X_419  0.3735294044017792)
(X_420  0.09117648005485535)
(X_421  0.07941177487373352)
(X_422  0.0833333432674408)
(X_423  0.09509804844856262)
(X_424  0.09509804844856262)
(X_425  0.07549020648002625)
(X_426  0.0676470622420311)
(X_427  0.17549020051956177)
(X_428  0.20686274766921997)
(X_429  0.0990196168422699)
(X_430  0.09509804844856262)
(X_431  0.10686275362968445)
(X_432  0.12647059559822083)
(X_433  0.22647058963775635)
(X_434  0.11078432202339172)
(X_435  0.09117648005485535)
(X_436  0.22647058963775635)
(X_437  0.2343137264251709)
(X_438  0.2343137264251709)
(X_439  0.2186274528503418)
(X_440  0.19901961088180542)
(X_441  0.10686275362968445)
(X_442  0.14215686917304993)
(X_443  0.1774509847164154)
(X_444  0.16960784792900085)
(X_445  0.17352941632270813)
(X_446  0.16960784792900085)
(X_447  0.2656862735748291)
(X_448  0.18333333730697632)
(X_449  0.1872549057006836)
(X_450  0.09117648005485535)
(X_451  0.19117647409439087)
(X_452  0.18333333730697632)
(X_453  0.1715686321258545)
(X_454  0.15980392694473267)
(X_455  0.15196079015731812)
(X_456  0.16764706373214722)
(X_457  0.16372549533843994)
(X_458  0.16372549533843994)
(X_459  0.15980392694473267)
(X_460  0.15980392694473267)
(X_461  0.1558823585510254)
(X_462  0.05588235333561897)
(X_463  0.05588235333561897)
(X_464  0.06372549384832382)
(X_465  0.0676470622420311)
(X_466  0.07156863063573837)
(X_467  0.17941176891326904)
(X_468  0.19117647409439087)
(X_469  0.19901961088180542)
(X_470  0.20686274766921997)
(X_471  0.20686274766921997)
(X_472  0.2029411792755127)
(X_473  0.20686274766921997)
(X_474  0.20686274766921997)
(X_475  0.21078431606292725)
(X_476  0.05980392172932625)
(X_477  0.06372549384832382)
(X_478  0.16764706373214722)
(X_479  0.16764706373214722)
(X_480  0.06372549384832382)
(X_481  0.0519607849419117)
(X_482  0.04411764815449715)
(X_483  0.136274516582489)
(X_484  0.16372549533843994)
(X_485  0.15980392694473267)
(X_486  0.15980392694473267)
(X_487  0.05980392172932625)
(X_488  0.1558823585510254)
(X_489  0.1558823585510254)
(X_490  0.15196079015731812)
(X_491  0.0519607849419117)
(X_492  0.0519607849419117)
(X_493  0.0519607849419117)
(X_494  0.1558823585510254)
(X_495  0.15980392694473267)
(X_496  0.16372549533843994)
(X_497  0.16764706373214722)
(X_498  0.16764706373214722)
(X_499  0.07156863063573837)
(X_500  0.18333333730697632)
(X_501  0.0833333432674408)
(X_502  0.08725491166114807)
(X_503  0.08725491166114807)
(X_504  0.136274516582489)
(X_505  0.1401960849761963)
(X_506  0.14411765336990356)
(X_507  0.14803922176361084)
(X_508  0.04411764815449715)
(X_509  0.04019607976078987)
(X_510  0.03235294297337532)
(X_511  0.12843137979507446)
(X_512  0.05588235333561897)
(X_513  0.05588235333561897)
(X_514  0.0519607849419117)
(X_515  0.0519607849419117)
(X_516  0.0519607849419117)
(X_517  0.04803921654820442)
(X_518  0.04803921654820442)
(X_519  0.04803921654820442)
(X_520  0.04411764815449715)
(X_521  0.04411764815449715)
(X_522  0.04411764815449715)
(X_523  0.04411764815449715)
(X_524  0.04019607976078987)
(X_525  0.1401960849761963)
(X_526  0.1401960849761963)
(X_527  0.1401960849761963)
(X_528  0.05588235333561897)
(X_529  0.05588235333561897)
(X_530  0.05588235333561897)
(X_531  0.05980392172932625)
(X_532  0.13235294818878174)
(X_533  0.13235294818878174)
(X_534  0.1401960849761963)
(X_535  0.1401960849761963)
(X_536  0.1401960849761963)
(X_537  0.04019607976078987)
(X_538  0.036274511367082596)
(X_539  0.03235294297337532)
(X_540  0.04411764815449715)
(X_541  0.04411764815449715)
(X_542  0.14411765336990356)
(X_543  0.14411765336990356)
(X_544  0.14411765336990356)
(X_545  0.14411765336990356)
(X_546  0.04411764815449715)
(X_547  0.04411764815449715)
(X_548  0.14803922176361084)
(X_549  0.14803922176361084)
(X_550  0.04803921654820442)
(X_551  0.14411765336990356)
(X_552  0.14411765336990356)
(X_553  0.1401960849761963)
(X_554  0.1401960849761963)
(X_555  0.036274511367082596)
(X_556  0.1401960849761963)
(X_557  0.04019607976078987)
(X_558  0.04019607976078987)
(X_559  0.14411765336990356)
(X_560  0.12843137979507446)
(X_561  0.03235294297337532)
(X_562  0.03235294297337532)
(X_563  0.036274511367082596)
(X_564  0.036274511367082596)
(X_565  0.036274511367082596)
(X_566  0.036274511367082596)
(X_567  0.036274511367082596)
(X_568  0.036274511367082596)
(X_569  0.136274516582489)
(X_570  0.136274516582489)
(X_571  0.036274511367082596)
(X_572  0.036274511367082596)
(X_573  0.036274511367082596)
(X_574  0.036274511367082596)
(X_575  0.036274511367082596)
(X_576  0.04411764815449715)
(X_577  0.04411764815449715)
(X_578  0.04411764815449715)
(X_579  0.04411764815449715)
(X_580  0.14411765336990356)
(X_581  0.04411764815449715)
(X_582  0.14411765336990356)
(X_583  0.14803922176361084)
(X_584  0.136274516582489)
(X_585  0.036274511367082596)
(X_586  0.04019607976078987)
(X_587  0.04019607976078987)
(X_588  0.12450980395078659)
(X_589  0.02450980618596077)
(X_590  0.12450980395078659)
(X_591  0.12450980395078659)
(X_592  0.02450980618596077)
(X_593  0.02450980618596077)
(X_594  0.028431374579668045)
(X_595  0.12843137979507446)
(X_596  0.12450980395078659)
(X_597  0.12450980395078659)
(X_598  0.12843137979507446)
(X_599  0.028431374579668045)
(X_600  0.028431374579668045)
(X_601  0.03235294297337532)
(X_602  0.03235294297337532)
(X_603  0.03235294297337532)
(X_604  0.12843137979507446)
(X_605  0.12843137979507446)
(X_606  0.12843137979507446)
(X_607  0.13235294818878174)
(X_608  0.136274516582489)
(X_609  0.136274516582489)
(X_610  0.1401960849761963)
(X_611  0.1401960849761963)
(X_612  0.036274511367082596)
(X_613  0.04019607976078987)
(X_614  0.04019607976078987)
(X_615  0.1401960849761963)
(X_616  0.12843137979507446)
(X_617  0.02450980618596077)
(X_618  0.02450980618596077)
(X_619  0.020588237792253494)
(X_620  0.020588237792253494)
(X_621  0.12058823555707932)
(X_622  0.12058823555707932)
(X_623  0.12450980395078659)
(X_624  0.11666666716337204)
(X_625  0.12058823555707932)
(X_626  0.12058823555707932)
(X_627  0.12058823555707932)
(X_628  0.02450980618596077)
(X_629  0.02450980618596077)
(X_630  0.028431374579668045)
(X_631  0.12843137979507446)
(X_632  0.020588237792253494)
(X_633  0.020588237792253494)
(X_634  0.020588237792253494)
(X_635  0.020588237792253494)
(X_636  0.02450980618596077)
(X_637  0.12450980395078659)
(X_638  0.12450980395078659)
(X_639  0.12450980395078659)
(X_640  0.03235294297337532)
(X_641  0.13235294818878174)
(X_642  0.13235294818878174)
(X_643  0.13235294818878174)
(X_644  0.136274516582489)
(X_645  0.036274511367082596)
(X_646  0.13235294818878174)
(X_647  0.12843137979507446)
(X_648  0.12450980395078659)
(X_649  0.02450980618596077)
(X_650  0.12843137979507446)
(X_651  0.12843137979507446)
(X_652  0.11274509876966476)
(X_653  0.11666666716337204)
(X_654  0.01666666939854622)
(X_655  0.020588237792253494)
(X_656  0.020588237792253494)
(X_657  0.02450980618596077)
(X_658  0.02450980618596077)
(X_659  0.02450980618596077)
(X_660  0.12450980395078659)
(X_661  0.12450980395078659)
(X_662  0.12058823555707932)
(X_663  0.020588237792253494)
(X_664  0.020588237792253494)
(X_665  0.020588237792253494)
(X_666  0.11666666716337204)
(X_667  0.01666666939854622)
(X_668  0.02450980618596077)
(X_669  0.02450980618596077)
(X_670  0.02450980618596077)
(X_671  0.02450980618596077)
(X_672  0.2343137264251709)
(X_673  0.12254902720451355)
(X_674  0.10294118523597717)
(X_675  0.07941177487373352)
(X_676  0.0519607849419117)
(X_677  0.12843137979507446)
(X_678  0.10882353037595749)
(X_679  0.09705882519483566)
(X_680  0.13235294818878174)
(X_681  0.12450980395078659)
(X_682  0.11666666716337204)
(X_683  0.11666666716337204)
(X_684  0.12058823555707932)
(X_685  0.020588237792253494)
(X_686  0.012745101936161518)
(X_687  0.004901961423456669)
(X_688  0.136274516582489)
(X_689  0.12843137979507446)
(X_690  0.02450980618596077)
(X_691  0.02450980618596077)
(X_692  0.13235294818878174)
(X_693  0.13235294818878174)
(X_694  0.028431374579668045)
(X_695  0.12058823555707932)
(X_696  0.10098039358854294)
(X_697  0.10490196198225021)
(X_698  0.11666666716337204)
(X_699  0.12450980395078659)
(X_700  0.9284313917160034)
(X_701  0.8127450942993164)
(X_702  0.8774510025978088)
(X_703  0.8343137502670288)
(X_704  0.6872549057006836)
(X_705  0.6441176533699036)
(X_706  0.6088235378265381)
(X_707  0.5892156958580017)
(X_708  0.47156864404678345)
(X_709  0.44411763548851013)
(X_710  0.3970588147640228)
(X_711  0.34215685725212097)
(X_712  0.3911764919757843)
(X_713  0.23627452552318573)
(X_714  0.18921568989753723)
(X_715  0.1617647111415863)
(X_716  0.19117647409439087)
(X_717  0.17941176891326904)
(X_718  0.07156863063573837)
(X_719  0.06372549384832382)
(X_720  0.06372549384832382)
(X_721  0.1558823585510254)
(X_722  0.14803922176361084)
(X_723  0.136274516582489)
(X_724  0.15196079015731812)
(X_725  0.14411765336990356)
(X_726  0.12843137979507446)
(X_727  0.11666666716337204)
(X_728  1.0499999523162842)
(X_729  0.949999988079071)
(X_730  1.0499999523162842)
(X_731  1.0499999523162842)
(X_732  1.0499999523162842)
(X_733  0.9460784196853638)
(X_734  1.0460784435272217)
(X_735  1.0460784435272217)
(X_736  1.0499999523162842)
(X_737  1.0460784435272217)
(X_738  0.9264705777168274)
(X_739  0.9147058725357056)
(X_740  0.9029411673545837)
(X_741  0.8872548937797546)
(X_742  0.8676470518112183)
(X_743  0.8558823466300964)
(X_744  0.8598039150238037)
(X_745  0.8284313678741455)
(X_746  0.8735294342041016)
(X_747  0.7107843160629272)
(X_748  0.6480392217636108)
(X_749  0.5852941274642944)
(X_750  0.5303921699523926)
(X_751  0.4990196228027344)
(X_752  0.48137256503105164)
(X_753  0.46176472306251526)
(X_754  0.43039217591285706)
(X_755  0.39901962876319885)
(X_756  1.034313678741455)
(X_757  0.9343137145042419)
(X_758  1.034313678741455)
(X_759  1.0382353067398071)
(X_760  0.9421568512916565)
(X_761  0.9460784196853638)
(X_762  0.9460784196853638)
(X_763  1.0460784435272217)
(X_764  0.949999988079071)
(X_765  1.0499999523162842)
(X_766  0.949999988079071)
(X_767  0.949999988079071)
(X_768  0.949999988079071)
(X_769  0.949999988079071)
(X_770  0.949999988079071)
(X_771  0.949999988079071)
(X_772  0.9421568512916565)
(X_773  0.9382352828979492)
(X_774  0.9382352828979492)
(X_775  0.9421568512916565)
(X_776  1.0499999523162842)
(X_777  1.0499999523162842)
(X_778  1.0499999523162842)
(X_779  1.0499999523162842)
(X_780  0.949999988079071)
(X_781  0.949999988079071)
(X_782  0.9421568512916565)
(X_783  0.9186274409294128)
(Y_0 -27.133563995361328)
(Y_1 38.67377471923828)
(Y_2 -20.567716598510742)
(Y_3 9.786373138427734))