((X_0  0.1401960849761963)
(X_1  0.1401960849761963)
(X_2  0.04019607976078987)
(X_3  0.03235294297337532)
(X_4  0.12058823555707932)
(X_5  0.11666666716337204)
(X_6  0.12843137979507446)
(X_7  0.04019607976078987)
(X_8  0.11666666716337204)
(X_9  0.11274509876966476)
(X_10  0.12450980395078659)
(X_11  0.1401960849761963)
(X_12  0.04019607976078987)
(X_13  0.12843137979507446)
(X_14  0.12843137979507446)
(X_15  0.04019607976078987)
(X_16  0.012745101936161518)
(X_17  0.01666666939854622)
(X_18  0.02450980618596077)
(X_19  0.03235294297337532)
(X_20  0.136274516582489)
(X_21  0.1401960849761963)
(X_22  0.04019607976078987)
(X_23  0.04019607976078987)
(X_24  0.12450980395078659)
(X_25  0.12843137979507446)
(X_26  0.036274511367082596)
(X_27  0.1401960849761963)
(X_28  0.11274509876966476)
(X_29  0.12450980395078659)
(X_30  0.136274516582489)
(X_31  0.14411765336990356)
(X_32  0.04411764815449715)
(X_33  0.04019607976078987)
(X_34  0.04019607976078987)
(X_35  0.1401960849761963)
(X_36  0.05980392172932625)
(X_37  0.02450980618596077)
(X_38  0.0009803927969187498)
(X_39  0.008823529817163944)
(X_40  0.02450980618596077)
(X_41  0.020588237792253494)
(X_42  0.012745101936161518)
(X_43  0.008823529817163944)
(X_44  0.1401960849761963)
(X_45  0.13235294818878174)
(X_46  0.12058823555707932)
(X_47  0.008823529817163944)
(X_48  0.008823529817163944)
(X_49  0.012745101936161518)
(X_50  0.020588237792253494)
(X_51  0.028431374579668045)
(X_52  0.12058823555707932)
(X_53  0.12450980395078659)
(X_54  0.028431374579668045)
(X_55  0.13235294818878174)
(X_56  0.12058823555707932)
(X_57  0.020588237792253494)
(X_58  0.020588237792253494)
(X_59  0.01666666939854622)
(X_60  0.01666666939854622)
(X_61  0.012745101936161518)
(X_62  0.008823529817163944)
(X_63  0.004901961423456669)
(X_64  0.020588237792253494)
(X_65  0.020588237792253494)
(X_66  0.03235294297337532)
(X_67  0.03235294297337532)
(X_68  0.11666666716337204)
(X_69  0.10490196198225021)
(X_70  0.020588237792253494)
(X_71  0.0519607849419117)
(X_72  0.028431374579668045)
(X_73  0.028431374579668045)
(X_74  0.02450980618596077)
(X_75  0.12450980395078659)
(X_76  0.13235294818878174)
(X_77  0.1401960849761963)
(X_78  0.15196079015731812)
(X_79  0.15980392694473267)
(X_80  0.12058823555707932)
(X_81  0.12450980395078659)
(X_82  0.12843137979507446)
(X_83  0.13235294818878174)
(X_84  0.1715686321258545)
(X_85  0.1558823585510254)
(X_86  0.136274516582489)
(X_87  0.12843137979507446)
(X_88  0.136274516582489)
(X_89  0.04411764815449715)
(X_90  0.0519607849419117)
(X_91  0.0519607849419117)
(X_92  0.10882353037595749)
(X_93  0.008823529817163944)
(X_94  0.02450980618596077)
(X_95  0.04411764815449715)
(X_96  0.04019607976078987)
(X_97  0.12058823555707932)
(X_98  0.12058823555707932)
(X_99  0.13235294818878174)
(X_100  0.14411765336990356)
(X_101  0.14803922176361084)
(X_102  0.14803922176361084)
(X_103  0.14803922176361084)
(X_104  0.036274511367082596)
(X_105  0.02450980618596077)
(X_106  0.008823529817163944)
(X_107  0.0009803927969187498)
(X_108  0.004901961423456669)
(X_109  0.004901961423456669)
(X_110  0.008823529817163944)
(X_111  0.10882353037595749)
(X_112  0.240196093916893)
(X_113  0.30490198731422424)
(X_114  0.25784313678741455)
(X_115  0.22254902124404907)
(X_116  0.19509804248809814)
(X_117  0.16372549533843994)
(X_118  0.020588237792253494)
(X_119  -0.010784312151372433)
(X_120  0.07941177487373352)
(X_121  0.028431374579668045)
(X_122  -0.0029411755967885256)
(X_123  0.01666666939854622)
(X_124  0.05588235333561897)
(X_125  0.05980392172932625)
(X_126  0.036274511367082596)
(X_127  0.01666666939854622)
(X_128  0.10490196198225021)
(X_129  0.10490196198225021)
(X_130  0.10490196198225021)
(X_131  0.10882353037595749)
(X_132  0.10882353037595749)
(X_133  0.10882353037595749)
(X_134  0.10882353037595749)
(X_135  0.10882353037595749)
(X_136  0.028431374579668045)
(X_137  0.028431374579668045)
(X_138  0.12843137979507446)
(X_139  0.12450980395078659)
(X_140  0.5558823943138123)
(X_141  0.5323529243469238)
(X_142  0.5009803771972656)
(X_143  0.48137256503105164)
(X_144  0.4539215862751007)
(X_145  0.3029411733150482)
(X_146  0.2245098203420639)
(X_147  0.2656862735748291)
(X_148  0.028431374579668045)
(X_149  0.12058823555707932)
(X_150  0.11666666716337204)
(X_151  0.10882353037595749)
(X_152  0.10098039358854294)
(X_153  0.11666666716337204)
(X_154  0.17941176891326904)
(X_155  0.23823529481887817)
(X_156  0.12254902720451355)
(X_157  0.10294118523597717)
(X_158  0.07549020648002625)
(X_159  0.14411765336990356)
(X_160  0.12843137979507446)
(X_161  0.12450980395078659)
(X_162  0.028431374579668045)
(X_163  0.036274511367082596)
(X_164  0.008823529817163944)
(X_165  0.004901961423456669)
(X_166  0.0009803927969187498)
(X_167  0.09705882519483566)
(X_168  0.3382352888584137)
(X_169  0.4225490391254425)
(X_170  0.4225490391254425)
(X_171  0.45000001788139343)
(X_172  0.4852941334247589)
(X_173  0.385294109582901)
(X_174  0.3499999940395355)
(X_175  0.3068627417087555)
(X_176  0.30098041892051697)
(X_177  0.3127451241016388)
(X_178  0.33235296607017517)
(X_179  0.33235296607017517)
(X_180  0.31666669249534607)
(X_181  0.33627453446388245)
(X_182  0.31078431010246277)
(X_183  0.385294109582901)
(X_184  0.4421568810939789)
(X_185  0.41862747073173523)
(X_186  0.3754902184009552)
(X_187  0.32058826088905334)
(X_188  0.16568627953529358)
(X_189  0.11862745881080627)
(X_190  0.0833333432674408)
(X_191  0.16764706373214722)
(X_192  0.15196079015731812)
(X_193  0.14803922176361084)
(X_194  0.04019607976078987)
(X_195  0.136274516582489)
(X_196  0.4598039388656616)
(X_197  0.5127450823783875)
(X_198  0.46568629145622253)
(X_199  0.3499999940395355)
(X_200  0.36176469922065735)
(X_201  0.36176469922065735)
(X_202  0.33039215207099915)
(X_203  0.29901960492134094)
(X_204  0.3245098292827606)
(X_205  0.23823529481887817)
(X_206  0.18333333730697632)
(X_207  0.2343137264251709)
(X_208  0.22843138873577118)
(X_209  0.2558823525905609)
(X_210  0.20490197837352753)
(X_211  0.14215686917304993)
(X_212  0.36764708161354065)
(X_213  0.387254923582077)
(X_214  0.3186274468898773)
(X_215  0.34607842564582825)
(X_216  0.45000001788139343)
(X_217  0.43431374430656433)
(X_218  0.4107843339443207)
(X_219  0.3950980603694916)
(X_220  0.387254923582077)
(X_221  0.28333333134651184)
(X_222  0.2754901945590973)
(X_223  0.3715686500072479)
(X_224  0.4950980544090271)
(X_225  0.5186274647712708)
(X_226  0.522549033164978)
(X_227  0.5147058963775635)
(X_228  0.5303921699523926)
(X_229  0.5343137383460999)
(X_230  0.47156864404678345)
(X_231  0.385294109582901)
(X_232  0.3715686500072479)
(X_233  0.17352941632270813)
(X_234  0.15980392694473267)
(X_235  0.136274516582489)
(X_236  0.13823530077934265)
(X_237  0.2558823525905609)
(X_238  0.24803923070430756)
(X_239  0.17352941632270813)
(X_240  0.30490198731422424)
(X_241  0.22254902124404907)
(X_242  0.3088235557079315)
(X_243  0.4264706075191498)
(X_244  0.40294119715690613)
(X_245  0.40294119715690613)
(X_246  0.44607844948768616)
(X_247  0.41470590233802795)
(X_248  0.4225490391254425)
(X_249  0.41862747073173523)
(X_250  0.31078431010246277)
(X_251  0.3068627417087555)
(X_252  0.26372548937797546)
(X_253  0.3225490152835846)
(X_254  0.3499999940395355)
(X_255  0.32647058367729187)
(X_256  0.41862747073173523)
(X_257  0.46176472306251526)
(X_258  0.5127450823783875)
(X_259  0.5284313559532166)
(X_260  0.4598039388656616)
(X_261  0.39313724637031555)
(X_262  0.3754902184009552)
(X_263  0.2813725471496582)
(X_264  0.2813725471496582)
(X_265  0.33235296607017517)
(X_266  0.344117671251297)
(X_267  0.21666668355464935)
(X_268  0.18137255311012268)
(X_269  0.21470588445663452)
(X_270  0.2343137264251709)
(X_271  0.18529412150382996)
(X_272  0.16960784792900085)
(X_273  0.16568627953529358)
(X_274  0.18529412150382996)
(X_275  0.16568627953529358)
(X_276  0.3284313976764679)
(X_277  0.33627453446388245)
(X_278  0.24803923070430756)
(X_279  0.2558823525905609)
(X_280  0.10686275362968445)
(X_281  0.2539215683937073)
(X_282  0.2696078419685364)
(X_283  0.1303921639919281)
(X_284  0.114705890417099)
(X_285  0.16960784792900085)
(X_286  0.35196080803871155)
(X_287  0.40294119715690613)
(X_288  0.385294109582901)
(X_289  0.41274508833885193)
(X_290  0.4009803831577301)
(X_291  0.3343137204647064)
(X_292  0.2754901945590973)
(X_293  0.26764705777168274)
(X_294  0.27941176295280457)
(X_295  0.27941176295280457)
(X_296  0.3598039448261261)
(X_297  0.24803923070430756)
(X_298  0.20098040997982025)
(X_299  0.17352941632270813)
(X_300  0.18137255311012268)
(X_301  0.25784313678741455)
(X_302  0.22254902124404907)
(X_303  0.11078432202339172)
(X_304  0.114705890417099)
(X_305  0.1303921639919281)
(X_306  0.15784314274787903)
(X_307  0.18137255311012268)
(X_308  0.1872549057006836)
(X_309  0.1872549057006836)
(X_310  0.07156863063573837)
(X_311  0.0519607849419117)
(X_312  0.05980392172932625)
(X_313  0.09117648005485535)
(X_314  0.10294118523597717)
(X_315  0.09509804844856262)
(X_316  0.23823529481887817)
(X_317  0.32058826088905334)
(X_318  0.387254923582077)
(X_319  0.38333335518836975)
(X_320  0.3558823764324188)
(X_321  0.2598039209842682)
(X_322  0.2872548997402191)
(X_323  0.31078431010246277)
(X_324  0.3794117867946625)
(X_325  0.34215685725212097)
(X_326  0.2911764681339264)
(X_327  0.24411766231060028)
(X_328  0.3068627417087555)
(X_329  0.2911764681339264)
(X_330  0.21666668355464935)
(X_331  0.32058826088905334)
(X_332  0.2558823525905609)
(X_333  0.36764708161354065)
(X_334  0.2911764681339264)
(X_335  0.31470587849617004)
(X_336  0.0833333432674408)
(X_337  0.1715686321258545)
(X_338  0.15196079015731812)
(X_339  0.15196079015731812)
(X_340  0.1715686321258545)
(X_341  0.18333333730697632)
(X_342  0.06372549384832382)
(X_343  0.028431374579668045)
(X_344  0.1558823585510254)
(X_345  0.08725491166114807)
(X_346  0.11078432202339172)
(X_347  0.11078432202339172)
(X_348  0.114705890417099)
(X_349  0.1460784375667572)
(X_350  0.1931372582912445)
(X_351  0.3284313976764679)
(X_352  0.2539215683937073)
(X_353  0.3558823764324188)
(X_354  0.3127451241016388)
(X_355  0.2813725471496582)
(X_356  0.38333335518836975)
(X_357  0.40294119715690613)
(X_358  0.3558823764324188)
(X_359  0.3911764919757843)
(X_360  0.344117671251297)
(X_361  0.3480392396450043)
(X_362  0.2558823525905609)
(X_363  0.2598039209842682)
(X_364  0.07549020648002625)
(X_365  0.07941177487373352)
(X_366  0.07941177487373352)
(X_367  0.16372549533843994)
(X_368  0.14411765336990356)
(X_369  0.1401960849761963)
(X_370  0.15196079015731812)
(X_371  0.06372549384832382)
(X_372  0.04411764815449715)
(X_373  0.04803921654820442)
(X_374  0.0519607849419117)
(X_375  0.15196079015731812)
(X_376  0.1558823585510254)
(X_377  0.06372549384832382)
(X_378  0.0676470622420311)
(X_379  0.07156863063573837)
(X_380  0.17549020051956177)
(X_381  0.25784313678741455)
(X_382  0.20686274766921997)
(X_383  0.05980392172932625)
(X_384  0.13823530077934265)
(X_385  0.16568627953529358)
(X_386  0.25784313678741455)
(X_387  0.3284313976764679)
(X_388  0.3284313976764679)
(X_389  0.32058826088905334)
(X_390  0.21274511516094208)
(X_391  0.20490197837352753)
(X_392  0.15980392694473267)
(X_393  0.16764706373214722)
(X_394  0.16764706373214722)
(X_395  0.14803922176361084)
(X_396  0.11666666716337204)
(X_397  0.10490196198225021)
(X_398  0.12843137979507446)
(X_399  0.15980392694473267)
(X_400  0.11666666716337204)
(X_401  0.03235294297337532)
(X_402  0.05980392172932625)
(X_403  0.17549020051956177)
(X_404  0.16764706373214722)
(X_405  0.04019607976078987)
(X_406  0.01666666939854622)
(X_407  0.004901961423456669)
(X_408  0.05980392172932625)
(X_409  0.11078432202339172)
(X_410  0.1715686321258545)
(X_411  0.12843137979507446)
(X_412  0.15196079015731812)
(X_413  0.15196079015731812)
(X_414  0.16764706373214722)
(X_415  0.24215686321258545)
(X_416  0.1617647111415863)
(X_417  0.15784314274787903)
(X_418  0.15000000596046448)
(X_419  0.14215686917304993)
(X_420  0.02450980618596077)
(X_421  0.01666666939854622)
(X_422  0.012745101936161518)
(X_423  0.020588237792253494)
(X_424  0.02450980618596077)
(X_425  0.02450980618596077)
(X_426  0.028431374579668045)
(X_427  0.036274511367082596)
(X_428  0.036274511367082596)
(X_429  0.04803921654820442)
(X_430  0.05588235333561897)
(X_431  0.04803921654820442)
(X_432  0.02450980618596077)
(X_433  0.10882353037595749)
(X_434  0.028431374579668045)
(X_435  0.05588235333561897)
(X_436  0.10490196198225021)
(X_437  0.14803922176361084)
(X_438  0.1558823585510254)
(X_439  0.14411765336990356)
(X_440  0.14803922176361084)
(X_441  0.13235294818878174)
(X_442  0.05588235333561897)
(X_443  0.12647059559822083)
(X_444  0.11862745881080627)
(X_445  0.11862745881080627)
(X_446  0.114705890417099)
(X_447  0.21470588445663452)
(X_448  0.10490196198225021)
(X_449  0.10490196198225021)
(X_450  0.10490196198225021)
(X_451  0.10490196198225021)
(X_452  0.10490196198225021)
(X_453  0.10490196198225021)
(X_454  0.10490196198225021)
(X_455  0.10490196198225021)
(X_456  0.12843137979507446)
(X_457  0.12843137979507446)
(X_458  0.12843137979507446)
(X_459  0.028431374579668045)
(X_460  0.028431374579668045)
(X_461  0.12843137979507446)
(X_462  0.12843137979507446)
(X_463  0.12843137979507446)
(X_464  0.028431374579668045)
(X_465  0.028431374579668045)
(X_466  0.12450980395078659)
(X_467  0.12450980395078659)
(X_468  0.12450980395078659)
(X_469  0.12450980395078659)
(X_470  0.12843137979507446)
(X_471  0.12843137979507446)
(X_472  0.17549020051956177)
(X_473  0.1715686321258545)
(X_474  0.16764706373214722)
(X_475  0.15980392694473267)
(X_476  0.004901961423456669)
(X_477  0.004901961423456669)
(X_478  0.10490196198225021)
(X_479  0.10490196198225021)
(X_480  0.004901961423456669)
(X_481  0.004901961423456669)
(X_482  0.004901961423456669)
(X_483  0.10490196198225021)
(X_484  0.012745101936161518)
(X_485  0.11274509876966476)
(X_486  0.012745101936161518)
(X_487  0.012745101936161518)
(X_488  0.012745101936161518)
(X_489  0.012745101936161518)
(X_490  0.012745101936161518)
(X_491  0.012745101936161518)
(X_492  0.008823529817163944)
(X_493  0.008823529817163944)
(X_494  0.10490196198225021)
(X_495  0.10490196198225021)
(X_496  0.10490196198225021)
(X_497  0.10490196198225021)
(X_498  0.10882353037595749)
(X_499  0.10882353037595749)
(X_500  0.15196079015731812)
(X_501  0.04803921654820442)
(X_502  0.04411764815449715)
(X_503  0.04019607976078987)
(X_504  0.10098039358854294)
(X_505  0.0009803927969187498)
(X_506  0.0009803927969187498)
(X_507  0.0009803927969187498)
(X_508  0.0009803927969187498)
(X_509  0.0009803927969187498)
(X_510  0.0009803927969187498)
(X_511  0.0009803927969187498)
(X_512  0.0009803927969187498)
(X_513  0.0009803927969187498)
(X_514  0.10098039358854294)
(X_515  0.0009803927969187498)
(X_516  0.0009803927969187498)
(X_517  0.0009803927969187498)
(X_518  0.0009803927969187498)
(X_519  0.0009803927969187498)
(X_520  -0.0029411755967885256)
(X_521  -0.0029411755967885256)
(X_522  -0.006862743757665157)
(X_523  -0.006862743757665157)
(X_524  -0.006862743757665157)
(X_525  0.09313725680112839)
(X_526  0.09705882519483566)
(X_527  0.09705882519483566)
(X_528  0.02450980618596077)
(X_529  0.020588237792253494)
(X_530  0.01666666939854622)
(X_531  0.008823529817163944)
(X_532  0.09705882519483566)
(X_533  0.09705882519483566)
(X_534  0.09705882519483566)
(X_535  0.09705882519483566)
(X_536  0.09705882519483566)
(X_537  -0.0029411755967885256)
(X_538  -0.0029411755967885256)
(X_539  0.09705882519483566)
(X_540  0.0009803927969187498)
(X_541  0.0009803927969187498)
(X_542  0.0009803927969187498)
(X_543  0.0009803927969187498)
(X_544  0.0009803927969187498)
(X_545  0.0009803927969187498)
(X_546  0.0009803927969187498)
(X_547  0.0009803927969187498)
(X_548  0.10098039358854294)
(X_549  0.09705882519483566)
(X_550  0.09705882519483566)
(X_551  0.09313725680112839)
(X_552  0.09313725680112839)
(X_553  0.09705882519483566)
(X_554  0.09705882519483566)
(X_555  0.0009803927969187498)
(X_556  0.10490196198225021)
(X_557  0.0009803927969187498)
(X_558  -0.0029411755967885256)
(X_559  0.09313725680112839)
(X_560  0.09705882519483566)
(X_561  0.09705882519483566)
(X_562  0.09705882519483566)
(X_563  -0.0029411755967885256)
(X_564  0.09705882519483566)
(X_565  0.09705882519483566)
(X_566  0.09705882519483566)
(X_567  -0.0029411755967885256)
(X_568  0.0009803927969187498)
(X_569  0.10098039358854294)
(X_570  0.10098039358854294)
(X_571  0.10098039358854294)
(X_572  0.0009803927969187498)
(X_573  0.0009803927969187498)
(X_574  0.0009803927969187498)
(X_575  0.0009803927969187498)
(X_576  0.0009803927969187498)
(X_577  -0.0029411755967885256)
(X_578  -0.0029411755967885256)
(X_579  0.09313725680112839)
(X_580  0.09313725680112839)
(X_581  0.09705882519483566)
(X_582  0.09705882519483566)
(X_583  0.10098039358854294)
(X_584  0.10098039358854294)
(X_585  -0.0029411755967885256)
(X_586  -0.006862743757665157)
(X_587  -0.006862743757665157)
(X_588  -0.006862743757665157)
(X_589  -0.006862743757665157)
(X_590  -0.006862743757665157)
(X_591  0.09313725680112839)
(X_592  -0.006862743757665157)
(X_593  -0.006862743757665157)
(X_594  -0.006862743757665157)
(X_595  -0.006862743757665157)
(X_596  -0.010784312151372433)
(X_597  0.08921568840742111)
(X_598  0.08921568840742111)
(X_599  -0.010784312151372433)
(X_600  -0.010784312151372433)
(X_601  -0.010784312151372433)
(X_602  -0.010784312151372433)
(X_603  -0.010784312151372433)
(X_604  -0.010784312151372433)
(X_605  0.08921568840742111)
(X_606  0.08529412001371384)
(X_607  0.08137255162000656)
(X_608  0.08137255162000656)
(X_609  0.08529412001371384)
(X_610  0.08921568840742111)
(X_611  0.08921568840742111)
(X_612  -0.0029411755967885256)
(X_613  -0.0029411755967885256)
(X_614  -0.006862743757665157)
(X_615  0.09313725680112839)
(X_616  0.08921568840742111)
(X_617  -0.010784312151372433)
(X_618  -0.010784312151372433)
(X_619  0.08921568840742111)
(X_620  -0.010784312151372433)
(X_621  0.08921568840742111)
(X_622  0.08921568840742111)
(X_623  0.08921568840742111)
(X_624  -0.014705880545079708)
(X_625  0.08529412001371384)
(X_626  0.08529412001371384)
(X_627  0.08529412001371384)
(X_628  -0.014705880545079708)
(X_629  -0.014705880545079708)
(X_630  0.08529412001371384)
(X_631  0.08529412001371384)
(X_632  -0.014705880545079708)
(X_633  -0.018627449870109558)
(X_634  -0.018627449870109558)
(X_635  -0.022549020126461983)
(X_636  -0.022549020126461983)
(X_637  0.08137255162000656)
(X_638  0.08137255162000656)
(X_639  0.08529412001371384)
(X_640  -0.010784312151372433)
(X_641  -0.010784312151372433)
(X_642  0.08529412001371384)
(X_643  0.08529412001371384)
(X_644  -0.010784312151372433)
(X_645  -0.010784312151372433)
(X_646  0.08921568840742111)
(X_647  0.08921568840742111)
(X_648  0.08921568840742111)
(X_649  0.08921568840742111)
(X_650  -0.010784312151372433)
(X_651  -0.010784312151372433)
(X_652  -0.010784312151372433)
(X_653  0.08921568840742111)
(X_654  0.08921568840742111)
(X_655  -0.010784312151372433)
(X_656  -0.010784312151372433)
(X_657  -0.010784312151372433)
(X_658  -0.010784312151372433)
(X_659  -0.010784312151372433)
(X_660  0.08921568840742111)
(X_661  0.08529412001371384)
(X_662  0.08529412001371384)
(X_663  0.08137255162000656)
(X_664  -0.018627449870109558)
(X_665  0.08529412001371384)
(X_666  0.08529412001371384)
(X_667  -0.010784312151372433)
(X_668  -0.018627449870109558)
(X_669  -0.018627449870109558)
(X_670  0.08137255162000656)
(X_671  -0.022549020126461983)
(X_672  0.09313725680112839)
(X_673  -0.014705880545079708)
(X_674  -0.018627449870109558)
(X_675  -0.018627449870109558)
(X_676  -0.014705880545079708)
(X_677  0.08921568840742111)
(X_678  0.08921568840742111)
(X_679  -0.010784312151372433)
(X_680  -0.014705880545079708)
(X_681  0.08921568840742111)
(X_682  0.08921568840742111)
(X_683  0.08529412001371384)
(X_684  0.08137255162000656)
(X_685  0.08137255162000656)
(X_686  -0.010784312151372433)
(X_687  -0.0029411755967885256)
(X_688  0.06568627804517746)
(X_689  0.06568627804517746)
(X_690  -0.026470588520169258)
(X_691  -0.022549020126461983)
(X_692  -0.014705880545079708)
(X_693  -0.006862743757665157)
(X_694  -0.0029411755967885256)
(X_695  0.0009803927969187498)
(X_696  -0.0029411755967885256)
(X_697  0.08921568840742111)
(X_698  0.08137255162000656)
(X_699  0.07745098322629929)
(X_700  0.08529412001371384)
(X_701  -0.018627449870109558)
(X_702  -0.018627449870109558)
(X_703  -0.018627449870109558)
(X_704  -0.010784312151372433)
(X_705  -0.006862743757665157)
(X_706  -0.0029411755967885256)
(X_707  -0.0029411755967885256)
(X_708  -0.010784312151372433)
(X_709  -0.006862743757665157)
(X_710  0.09313725680112839)
(X_711  0.08529412001371384)
(X_712  0.07745098322629929)
(X_713  0.07352941483259201)
(X_714  -0.022549020126461983)
(X_715  -0.018627449870109558)
(X_716  0.10098039358854294)
(X_717  0.10490196198225021)
(X_718  0.01666666939854622)
(X_719  0.028431374579668045)
(X_720  0.04019607976078987)
(X_721  0.0519607849419117)
(X_722  0.05980392172932625)
(X_723  0.0676470622420311)
(X_724  0.25784313678741455)
(X_725  0.2813725471496582)
(X_726  0.32058826088905334)
(X_727  0.3598039448261261)
(X_728  0.10490196198225021)
(X_729  0.012745101936161518)
(X_730  0.12450980395078659)
(X_731  0.1401960849761963)
(X_732  0.1558823585510254)
(X_733  0.17549020051956177)
(X_734  0.1872549057006836)
(X_735  0.19509804248809814)
(X_736  0.2617647051811218)
(X_737  0.2852941155433655)
(X_738  0.32058826088905334)
(X_739  0.3598039448261261)
(X_740  0.39901962876319885)
(X_741  0.4382353127002716)
(X_742  0.3735294044017792)
(X_743  0.49705883860588074)
(X_744  0.48725491762161255)
(X_745  0.6147059202194214)
(X_746  0.665686309337616)
(X_747  0.6323529481887817)
(X_748  0.7029411792755127)
(X_749  0.7696078419685364)
(X_750  0.820588231086731)
(X_751  0.8480392098426819)
(X_752  0.8598039150238037)
(X_753  0.9833333492279053)
(X_754  1.022549033164978)
(X_755  1.0499999523162842)
(X_756  0.7205882668495178)
(X_757  0.636274516582489)
(X_758  0.6676470637321472)
(X_759  0.7029411792755127)
(X_760  0.7343137264251709)
(X_761  0.7656862735748291)
(X_762  0.79313725233078)
(X_763  0.908823549747467)
(X_764  0.9284313917160034)
(X_765  0.9441176652908325)
(X_766  0.8754901885986328)
(X_767  0.8990195989608765)
(X_768  0.9264705777168274)
(X_769  0.949999988079071)
(X_770  0.949999988079071)
(X_771  0.949999988079071)
(X_772  0.949999988079071)
(X_773  0.949999988079071)
(X_774  0.949999988079071)
(X_775  0.949999988079071)
(X_776  0.9460784196853638)
(X_777  0.9421568512916565)
(X_778  0.9382352828979492)
(X_779  0.9382352828979492)
(X_780  0.9460784196853638)
(X_781  0.9460784196853638)
(X_782  0.9421568512916565)
(X_783  0.9421568512916565)
(Y_0 -14.330643653869629)
(Y_1 13.91441535949707)
(Y_2 -6.078563690185547)
(Y_3 10.550813674926758))