((X_0  0.16372549533843994)
(X_1  0.0833333432674408)
(X_2  0.09117648005485535)
(X_3  0.1872549057006836)
(X_4  0.19117647409439087)
(X_5  0.21078431606292725)
(X_6  0.11862745881080627)
(X_7  0.114705890417099)
(X_8  0.19117647409439087)
(X_9  0.17941176891326904)
(X_10  0.18333333730697632)
(X_11  0.19509804248809814)
(X_12  0.0833333432674408)
(X_13  0.16764706373214722)
(X_14  0.18333333730697632)
(X_15  0.114705890417099)
(X_16  0.12254902720451355)
(X_17  0.11078432202339172)
(X_18  0.09509804844856262)
(X_19  0.09117648005485535)
(X_20  0.18333333730697632)
(X_21  0.18333333730697632)
(X_22  0.10294118523597717)
(X_23  0.12254902720451355)
(X_24  0.22647058963775635)
(X_25  0.19509804248809814)
(X_26  0.19509804248809814)
(X_27  0.23039215803146362)
(X_28  0.17941176891326904)
(X_29  0.19901961088180542)
(X_30  0.10294118523597717)
(X_31  0.09509804844856262)
(X_32  0.09117648005485535)
(X_33  0.09509804844856262)
(X_34  0.09117648005485535)
(X_35  0.07941177487373352)
(X_36  0.08725491166114807)
(X_37  0.07549020648002625)
(X_38  0.07941177487373352)
(X_39  0.10686275362968445)
(X_40  0.114705890417099)
(X_41  0.10294118523597717)
(X_42  0.09117648005485535)
(X_43  0.09509804844856262)
(X_44  0.17941176891326904)
(X_45  0.1872549057006836)
(X_46  0.2029411792755127)
(X_47  0.114705890417099)
(X_48  0.11078432202339172)
(X_49  0.09509804844856262)
(X_50  0.08725491166114807)
(X_51  0.0833333432674408)
(X_52  0.19509804248809814)
(X_53  0.1872549057006836)
(X_54  0.19509804248809814)
(X_55  0.21470588445663452)
(X_56  0.17549020051956177)
(X_57  0.114705890417099)
(X_58  0.1617647111415863)
(X_59  0.20490197837352753)
(X_60  0.26372548937797546)
(X_61  0.3186274468898773)
(X_62  0.3499999940395355)
(X_63  0.3539215624332428)
(X_64  0.24411766231060028)
(X_65  0.17352941632270813)
(X_66  0.10294118523597717)
(X_67  0.07156863063573837)
(X_68  0.1715686321258545)
(X_69  0.07941177487373352)
(X_70  0.09117648005485535)
(X_71  0.10294118523597717)
(X_72  0.09509804844856262)
(X_73  0.08725491166114807)
(X_74  0.07941177487373352)
(X_75  0.17549020051956177)
(X_76  0.17941176891326904)
(X_77  0.19901961088180542)
(X_78  0.21470588445663452)
(X_79  0.22647058963775635)
(X_80  0.17941176891326904)
(X_81  0.19901961088180542)
(X_82  0.20686274766921997)
(X_83  0.2029411792755127)
(X_84  0.3637255132198334)
(X_85  0.2872548997402191)
(X_86  0.31470587849617004)
(X_87  0.4421568810939789)
(X_88  0.3813725411891937)
(X_89  0.42843136191368103)
(X_90  0.4480392038822174)
(X_91  0.44411763548851013)
(X_92  0.4362744987010956)
(X_93  0.3539215624332428)
(X_94  0.23627452552318573)
(X_95  0.1460784375667572)
(X_96  0.19509804248809814)
(X_97  0.1715686321258545)
(X_98  0.16372549533843994)
(X_99  0.15980392694473267)
(X_100  0.17549020051956177)
(X_101  0.19117647409439087)
(X_102  0.20686274766921997)
(X_103  0.21078431606292725)
(X_104  0.20686274766921997)
(X_105  0.09509804844856262)
(X_106  0.06372549384832382)
(X_107  0.036274511367082596)
(X_108  0.07941177487373352)
(X_109  0.114705890417099)
(X_110  0.12254902720451355)
(X_111  0.19117647409439087)
(X_112  0.3578431308269501)
(X_113  0.457843154668808)
(X_114  0.4421568810939789)
(X_115  0.4225490391254425)
(X_116  0.3225490152835846)
(X_117  0.3343137204647064)
(X_118  0.32647058367729187)
(X_119  0.3068627417087555)
(X_120  0.41274508833885193)
(X_121  0.40882351994514465)
(X_122  0.3892156779766083)
(X_123  0.3499999940395355)
(X_124  0.2911764681339264)
(X_125  0.21666668355464935)
(X_126  0.13823530077934265)
(X_127  0.0833333432674408)
(X_128  0.20686274766921997)
(X_129  0.20686274766921997)
(X_130  0.19509804248809814)
(X_131  0.17549020051956177)
(X_132  0.1872549057006836)
(X_133  0.11078432202339172)
(X_134  0.114705890417099)
(X_135  0.19901961088180542)
(X_136  0.0676470622420311)
(X_137  0.0990196168422699)
(X_138  0.19901961088180542)
(X_139  0.1715686321258545)
(X_140  0.3754902184009552)
(X_141  0.3794117867946625)
(X_142  0.3754902184009552)
(X_143  0.3754902184009552)
(X_144  0.29509803652763367)
(X_145  0.3186274468898773)
(X_146  0.3186274468898773)
(X_147  0.40294119715690613)
(X_148  0.3637255132198334)
(X_149  0.41470590233802795)
(X_150  0.4735294282436371)
(X_151  0.5088235139846802)
(X_152  0.5245097875595093)
(X_153  0.5088235139846802)
(X_154  0.46568629145622253)
(X_155  0.41862747073173523)
(X_156  0.24411766231060028)
(X_157  0.23235295712947845)
(X_158  0.2852941155433655)
(X_159  0.22647058963775635)
(X_160  0.19901961088180542)
(X_161  0.09509804844856262)
(X_162  0.0676470622420311)
(X_163  0.12843137979507446)
(X_164  0.06372549384832382)
(X_165  0.0676470622420311)
(X_166  0.1558823585510254)
(X_167  0.14803922176361084)
(X_168  0.3068627417087555)
(X_169  0.41470590233802795)
(X_170  0.4225490391254425)
(X_171  0.43039217591285706)
(X_172  0.4539215862751007)
(X_173  0.3696078360080719)
(X_174  0.3539215624332428)
(X_175  0.4225490391254425)
(X_176  0.35196080803871155)
(X_177  0.3598039448261261)
(X_178  0.3715686500072479)
(X_179  0.39901962876319885)
(X_180  0.457843154668808)
(X_181  0.5284313559532166)
(X_182  0.45588237047195435)
(X_183  0.44411763548851013)
(X_184  0.6107843518257141)
(X_185  0.6460784673690796)
(X_186  0.6500000357627869)
(X_187  0.6107843518257141)
(X_188  0.4480392038822174)
(X_189  0.3578431308269501)
(X_190  0.21666668355464935)
(X_191  0.19901961088180542)
(X_192  0.21078431606292725)
(X_193  0.1715686321258545)
(X_194  0.14411765336990356)
(X_195  0.15196079015731812)
(X_196  0.32647058367729187)
(X_197  0.4421568810939789)
(X_198  0.457843154668808)
(X_199  0.47745099663734436)
(X_200  0.4049019515514374)
(X_201  0.41274508833885193)
(X_202  0.385294109582901)
(X_203  0.44607844948768616)
(X_204  0.3499999940395355)
(X_205  0.4068627655506134)
(X_206  0.344117671251297)
(X_207  0.3127451241016388)
(X_208  0.25196078419685364)
(X_209  0.3186274468898773)
(X_210  0.3343137204647064)
(X_211  0.31470587849617004)
(X_212  0.4539215862751007)
(X_213  0.46176472306251526)
(X_214  0.4421568810939789)
(X_215  0.4225490391254425)
(X_216  0.45000001788139343)
(X_217  0.5127450823783875)
(X_218  0.5284313559532166)
(X_219  0.5009803771972656)
(X_220  0.2696078419685364)
(X_221  0.10294118523597717)
(X_222  0.05588235333561897)
(X_223  0.16764706373214722)
(X_224  0.40882351994514465)
(X_225  0.3813725411891937)
(X_226  0.3499999940395355)
(X_227  0.32647058367729187)
(X_228  0.29509803652763367)
(X_229  0.28333333134651184)
(X_230  0.3029411733150482)
(X_231  0.3382352888584137)
(X_232  0.3225490152835846)
(X_233  0.3343137204647064)
(X_234  0.3598039448261261)
(X_235  0.18529412150382996)
(X_236  0.20098040997982025)
(X_237  0.240196093916893)
(X_238  0.240196093916893)
(X_239  0.240196093916893)
(X_240  0.2598039209842682)
(X_241  0.344117671251297)
(X_242  0.3637255132198334)
(X_243  0.39901962876319885)
(X_244  0.3950980603694916)
(X_245  0.3715686500072479)
(X_246  0.4068627655506134)
(X_247  0.4735294282436371)
(X_248  0.3970588147640228)
(X_249  0.31078431010246277)
(X_250  0.20098040997982025)
(X_251  0.12647059559822083)
(X_252  0.37745097279548645)
(X_253  0.3696078360080719)
(X_254  0.36176469922065735)
(X_255  0.34607842564582825)
(X_256  0.41862747073173523)
(X_257  0.3950980603694916)
(X_258  0.4107843339443207)
(X_259  0.4382353127002716)
(X_260  0.29509803652763367)
(X_261  0.3578431308269501)
(X_262  0.46568629145622253)
(X_263  0.43431374430656433)
(X_264  0.4107843339443207)
(X_265  0.3637255132198334)
(X_266  0.32058826088905334)
(X_267  0.31666669249534607)
(X_268  0.3245098292827606)
(X_269  0.33627453446388245)
(X_270  0.3911764919757843)
(X_271  0.45000001788139343)
(X_272  0.4421568810939789)
(X_273  0.3754902184009552)
(X_274  0.240196093916893)
(X_275  0.24803923070430756)
(X_276  0.41862747073173523)
(X_277  0.41470590233802795)
(X_278  0.32647058367729187)
(X_279  0.34607842564582825)
(X_280  0.2872548997402191)
(X_281  0.40294119715690613)
(X_282  0.32647058367729187)
(X_283  0.3343137204647064)
(X_284  0.31078431010246277)
(X_285  0.387254923582077)
(X_286  0.39901962876319885)
(X_287  0.4264706075191498)
(X_288  0.3735294044017792)
(X_289  0.3578431308269501)
(X_290  0.33039215207099915)
(X_291  0.46176472306251526)
(X_292  0.5284313559532166)
(X_293  0.4166666567325592)
(X_294  0.36176469922065735)
(X_295  0.3499999940395355)
(X_296  0.43039217591285706)
(X_297  0.4421568810939789)
(X_298  0.37745097279548645)
(X_299  0.4205882251262665)
(X_300  0.3970588147640228)
(X_301  0.4068627655506134)
(X_302  0.31666669249534607)
(X_303  0.1774509847164154)
(X_304  0.18529412150382996)
(X_305  0.30490198731422424)
(X_306  0.23235295712947845)
(X_307  0.25196078419685364)
(X_308  0.2656862735748291)
(X_309  0.29313725233078003)
(X_310  0.23627452552318573)
(X_311  0.2598039209842682)
(X_312  0.24803923070430756)
(X_313  0.22843138873577118)
(X_314  0.24803923070430756)
(X_315  0.27941176295280457)
(X_316  0.3735294044017792)
(X_317  0.4068627655506134)
(X_318  0.3558823764324188)
(X_319  0.4264706075191498)
(X_320  0.5441176295280457)
(X_321  0.4754902124404907)
(X_322  0.4637255072593689)
(X_323  0.4911764860153198)
(X_324  0.44411763548851013)
(X_325  0.4166666567325592)
(X_326  0.49705883860588074)
(X_327  0.49705883860588074)
(X_328  0.3970588147640228)
(X_329  0.3696078360080719)
(X_330  0.33039215207099915)
(X_331  0.3029411733150482)
(X_332  0.24803923070430756)
(X_333  0.27156862616539)
(X_334  0.27941176295280457)
(X_335  0.26372548937797546)
(X_336  0.09117648005485535)
(X_337  0.21078431606292725)
(X_338  0.24215686321258545)
(X_339  0.2617647051811218)
(X_340  0.2539215683937073)
(X_341  0.24215686321258545)
(X_342  0.16568627953529358)
(X_343  0.19705882668495178)
(X_344  0.31666669249534607)
(X_345  0.33235296607017517)
(X_346  0.2598039209842682)
(X_347  0.3186274468898773)
(X_348  0.3539215624332428)
(X_349  0.3225490152835846)
(X_350  0.3382352888584137)
(X_351  0.5284313559532166)
(X_352  0.5754902362823486)
(X_353  0.5323529243469238)
(X_354  0.48137256503105164)
(X_355  0.48137256503105164)
(X_356  0.44019606709480286)
(X_357  0.6225490570068359)
(X_358  0.6774510145187378)
(X_359  0.6931372880935669)
(X_360  0.3970588147640228)
(X_361  0.46764707565307617)
(X_362  0.5303921699523926)
(X_363  0.5421568751335144)
(X_364  0.07549020648002625)
(X_365  0.07549020648002625)
(X_366  0.18333333730697632)
(X_367  0.19117647409439087)
(X_368  0.18333333730697632)
(X_369  0.17549020051956177)
(X_370  0.09117648005485535)
(X_371  0.114705890417099)
(X_372  0.13823530077934265)
(X_373  0.15784314274787903)
(X_374  0.17352941632270813)
(X_375  0.21274511516094208)
(X_376  0.33627453446388245)
(X_377  0.20098040997982025)
(X_378  0.2088235467672348)
(X_379  0.27941176295280457)
(X_380  0.4696078598499298)
(X_381  0.44607844948768616)
(X_382  0.4068627655506134)
(X_383  0.3068627417087555)
(X_384  0.3970588147640228)
(X_385  0.522549033164978)
(X_386  0.5970588326454163)
(X_387  0.6127451062202454)
(X_388  0.5245097875595093)
(X_389  0.6029412150382996)
(X_390  0.5617647171020508)
(X_391  0.5617647171020508)
(X_392  0.16372549533843994)
(X_393  0.14803922176361084)
(X_394  0.14411765336990356)
(X_395  0.1558823585510254)
(X_396  0.1558823585510254)
(X_397  0.15196079015731812)
(X_398  0.1558823585510254)
(X_399  0.16764706373214722)
(X_400  0.12254902720451355)
(X_401  0.0990196168422699)
(X_402  0.05980392172932625)
(X_403  0.17941176891326904)
(X_404  0.24215686321258545)
(X_405  0.15000000596046448)
(X_406  0.1460784375667572)
(X_407  0.18137255311012268)
(X_408  0.18529412150382996)
(X_409  0.18137255311012268)
(X_410  0.2539215683937073)
(X_411  0.24607843160629272)
(X_412  0.30490198731422424)
(X_413  0.39901962876319885)
(X_414  0.4382353127002716)
(X_415  0.41862747073173523)
(X_416  0.32647058367729187)
(X_417  0.47745099663734436)
(X_418  0.3970588147640228)
(X_419  0.36176469922065735)
(X_420  0.04019607976078987)
(X_421  0.020588237792253494)
(X_422  0.01666666939854622)
(X_423  0.036274511367082596)
(X_424  0.05588235333561897)
(X_425  0.0519607849419117)
(X_426  0.0519607849419117)
(X_427  0.15980392694473267)
(X_428  0.12843137979507446)
(X_429  0.1715686321258545)
(X_430  0.07549020648002625)
(X_431  0.07156863063573837)
(X_432  0.07941177487373352)
(X_433  0.16372549533843994)
(X_434  0.0676470622420311)
(X_435  0.11862745881080627)
(X_436  0.22647058963775635)
(X_437  0.23823529481887817)
(X_438  0.2186274528503418)
(X_439  0.19509804248809814)
(X_440  0.23039215803146362)
(X_441  0.2970588207244873)
(X_442  0.20098040997982025)
(X_443  0.15784314274787903)
(X_444  0.1460784375667572)
(X_445  0.21274511516094208)
(X_446  0.25196078419685364)
(X_447  0.33627453446388245)
(X_448  0.12450980395078659)
(X_449  0.028431374579668045)
(X_450  0.028431374579668045)
(X_451  0.13235294818878174)
(X_452  0.136274516582489)
(X_453  0.1401960849761963)
(X_454  0.14411765336990356)
(X_455  0.14411765336990356)
(X_456  0.12450980395078659)
(X_457  0.12843137979507446)
(X_458  0.13235294818878174)
(X_459  0.04019607976078987)
(X_460  0.04803921654820442)
(X_461  0.05588235333561897)
(X_462  0.05980392172932625)
(X_463  0.06372549384832382)
(X_464  0.07156863063573837)
(X_465  0.07156863063573837)
(X_466  0.1715686321258545)
(X_467  0.17941176891326904)
(X_468  0.19509804248809814)
(X_469  0.2186274528503418)
(X_470  0.24215686321258545)
(X_471  0.2539215683937073)
(X_472  0.20686274766921997)
(X_473  0.22254902124404907)
(X_474  0.24215686321258545)
(X_475  0.24607843160629272)
(X_476  0.028431374579668045)
(X_477  0.02450980618596077)
(X_478  0.12450980395078659)
(X_479  0.12058823555707932)
(X_480  0.01666666939854622)
(X_481  0.01666666939854622)
(X_482  0.012745101936161518)
(X_483  0.11274509876966476)
(X_484  0.13235294818878174)
(X_485  0.13235294818878174)
(X_486  0.03235294297337532)
(X_487  0.03235294297337532)
(X_488  0.03235294297337532)
(X_489  0.036274511367082596)
(X_490  0.036274511367082596)
(X_491  0.036274511367082596)
(X_492  0.04803921654820442)
(X_493  0.04019607976078987)
(X_494  0.136274516582489)
(X_495  0.136274516582489)
(X_496  0.14411765336990356)
(X_497  0.15980392694473267)
(X_498  0.1715686321258545)
(X_499  0.0833333432674408)
(X_500  0.1558823585510254)
(X_501  0.07156863063573837)
(X_502  0.0833333432674408)
(X_503  0.08725491166114807)
(X_504  0.04019607976078987)
(X_505  0.04019607976078987)
(X_506  0.036274511367082596)
(X_507  0.03235294297337532)
(X_508  0.028431374579668045)
(X_509  0.028431374579668045)
(X_510  0.02450980618596077)
(X_511  0.12450980395078659)
(X_512  0.028431374579668045)
(X_513  0.028431374579668045)
(X_514  0.028431374579668045)
(X_515  0.028431374579668045)
(X_516  0.028431374579668045)
(X_517  0.028431374579668045)
(X_518  0.028431374579668045)
(X_519  0.02450980618596077)
(X_520  0.04411764815449715)
(X_521  0.04019607976078987)
(X_522  0.03235294297337532)
(X_523  0.028431374579668045)
(X_524  0.03235294297337532)
(X_525  0.1401960849761963)
(X_526  0.15196079015731812)
(X_527  0.15980392694473267)
(X_528  0.028431374579668045)
(X_529  0.036274511367082596)
(X_530  0.04411764815449715)
(X_531  0.04411764815449715)
(X_532  0.10490196198225021)
(X_533  0.10490196198225021)
(X_534  0.10490196198225021)
(X_535  0.10882353037595749)
(X_536  0.10882353037595749)
(X_537  0.012745101936161518)
(X_538  0.012745101936161518)
(X_539  0.11274509876966476)
(X_540  0.02450980618596077)
(X_541  0.02450980618596077)
(X_542  0.028431374579668045)
(X_543  0.03235294297337532)
(X_544  0.036274511367082596)
(X_545  0.036274511367082596)
(X_546  0.04019607976078987)
(X_547  0.04411764815449715)
(X_548  0.12450980395078659)
(X_549  0.12058823555707932)
(X_550  0.11666666716337204)
(X_551  0.11666666716337204)
(X_552  0.12058823555707932)
(X_553  0.12843137979507446)
(X_554  0.136274516582489)
(X_555  0.04411764815449715)
(X_556  0.14411765336990356)
(X_557  0.04803921654820442)
(X_558  0.05588235333561897)
(X_559  0.1558823585510254)
(X_560  0.12843137979507446)
(X_561  0.028431374579668045)
(X_562  0.03235294297337532)
(X_563  0.03235294297337532)
(X_564  0.03235294297337532)
(X_565  0.13235294818878174)
(X_566  0.03235294297337532)
(X_567  0.03235294297337532)
(X_568  0.10882353037595749)
(X_569  0.10882353037595749)
(X_570  0.11274509876966476)
(X_571  0.012745101936161518)
(X_572  0.01666666939854622)
(X_573  0.01666666939854622)
(X_574  0.020588237792253494)
(X_575  0.020588237792253494)
(X_576  0.028431374579668045)
(X_577  0.028431374579668045)
(X_578  0.12450980395078659)
(X_579  0.12058823555707932)
(X_580  0.12058823555707932)
(X_581  0.12450980395078659)
(X_582  0.12843137979507446)
(X_583  0.13235294818878174)
(X_584  0.012745101936161518)
(X_585  0.012745101936161518)
(X_586  0.01666666939854622)
(X_587  0.020588237792253494)
(X_588  0.14803922176361084)
(X_589  0.04411764815449715)
(X_590  0.04019607976078987)
(X_591  0.036274511367082596)
(X_592  0.028431374579668045)
(X_593  0.02450980618596077)
(X_594  0.12058823555707932)
(X_595  0.11666666716337204)
(X_596  0.14411765336990356)
(X_597  0.1401960849761963)
(X_598  0.136274516582489)
(X_599  0.13235294818878174)
(X_600  0.02450980618596077)
(X_601  0.020588237792253494)
(X_602  0.01666666939854622)
(X_603  0.01666666939854622)
(X_604  0.04019607976078987)
(X_605  0.03235294297337532)
(X_606  0.12843137979507446)
(X_607  0.11666666716337204)
(X_608  0.10882353037595749)
(X_609  0.10490196198225021)
(X_610  0.10098039358854294)
(X_611  0.10098039358854294)
(X_612  0.02450980618596077)
(X_613  0.02450980618596077)
(X_614  0.020588237792253494)
(X_615  0.12843137979507446)
(X_616  0.7754902243614197)
(X_617  0.6715686321258545)
(X_618  0.6676470637321472)
(X_619  0.6637254953384399)
(X_620  0.6558823585510254)
(X_621  0.7480392456054688)
(X_622  0.7441176772117615)
(X_623  0.7441176772117615)
(X_624  0.6852941513061523)
(X_625  0.6813725829124451)
(X_626  0.6774510145187378)
(X_627  0.6696078777313232)
(X_628  0.6617647409439087)
(X_629  0.5578431487083435)
(X_630  0.6539216041564941)
(X_631  0.6500000357627869)
(X_632  0.6147059202194214)
(X_633  0.5107843279838562)
(X_634  0.5029411911964417)
(X_635  0.4950980544090271)
(X_636  0.48725491762161255)
(X_637  0.5794118046760559)
(X_638  0.5754902362823486)
(X_639  0.5754902362823486)
(X_640  0.5127450823783875)
(X_641  0.5009803771972656)
(X_642  0.49705883860588074)
(X_643  0.5009803771972656)
(X_644  0.949999988079071)
(X_645  0.949999988079071)
(X_646  1.0499999523162842)
(X_647  1.0499999523162842)
(X_648  1.0460784435272217)
(X_649  1.0460784435272217)
(X_650  1.0460784435272217)
(X_651  1.0460784435272217)
(X_652  1.0499999523162842)
(X_653  1.0499999523162842)
(X_654  0.949999988079071)
(X_655  0.949999988079071)
(X_656  0.949999988079071)
(X_657  0.949999988079071)
(X_658  0.949999988079071)
(X_659  0.949999988079071)
(X_660  1.0499999523162842)
(X_661  1.0499999523162842)
(X_662  1.0499999523162842)
(X_663  0.9460784196853638)
(X_664  0.9460784196853638)
(X_665  0.9421568512916565)
(X_666  0.9421568512916565)
(X_667  0.9421568512916565)
(X_668  0.949999988079071)
(X_669  0.9460784196853638)
(X_670  0.9343137145042419)
(X_671  0.9343137145042419)
(X_672  1.0499999523162842)
(X_673  0.949999988079071)
(X_674  0.949999988079071)
(X_675  0.949999988079071)
(X_676  0.949999988079071)
(X_677  1.0499999523162842)
(X_678  1.0499999523162842)
(X_679  1.0499999523162842)
(X_680  1.0499999523162842)
(X_681  1.0499999523162842)
(X_682  1.0499999523162842)
(X_683  1.0499999523162842)
(X_684  1.0499999523162842)
(X_685  1.0499999523162842)
(X_686  0.949999988079071)
(X_687  0.949999988079071)
(X_688  1.0499999523162842)
(X_689  1.0499999523162842)
(X_690  0.949999988079071)
(X_691  0.949999988079071)
(X_692  0.949999988079071)
(X_693  1.0499999523162842)
(X_694  0.949999988079071)
(X_695  0.949999988079071)
(X_696  1.0499999523162842)
(X_697  1.0499999523162842)
(X_698  1.0499999523162842)
(X_699  0.949999988079071)
(X_700  1.0499999523162842)
(X_701  0.949999988079071)
(X_702  0.949999988079071)
(X_703  0.949999988079071)
(X_704  0.949999988079071)
(X_705  0.949999988079071)
(X_706  0.949999988079071)
(X_707  0.949999988079071)
(X_708  0.949999988079071)
(X_709  0.949999988079071)
(X_710  0.949999988079071)
(X_711  1.0499999523162842)
(X_712  1.0499999523162842)
(X_713  1.0499999523162842)
(X_714  0.949999988079071)
(X_715  0.949999988079071)
(X_716  0.949999988079071)
(X_717  0.949999988079071)
(X_718  0.949999988079071)
(X_719  0.949999988079071)
(X_720  0.949999988079071)
(X_721  0.949999988079071)
(X_722  0.949999988079071)
(X_723  0.949999988079071)
(X_724  1.0499999523162842)
(X_725  1.0499999523162842)
(X_726  1.0499999523162842)
(X_727  1.0499999523162842)
(X_728  1.0499999523162842)
(X_729  1.0499999523162842)
(X_730  1.0499999523162842)
(X_731  1.0499999523162842)
(X_732  1.0499999523162842)
(X_733  1.0499999523162842)
(X_734  0.949999988079071)
(X_735  1.0499999523162842)
(X_736  1.0499999523162842)
(X_737  1.0499999523162842)
(X_738  0.949999988079071)
(X_739  0.949999988079071)
(X_740  1.0499999523162842)
(X_741  0.949999988079071)
(X_742  0.949999988079071)
(X_743  0.949999988079071)
(X_744  0.949999988079071)
(X_745  1.0499999523162842)
(X_746  1.0499999523162842)
(X_747  0.949999988079071)
(X_748  0.949999988079071)
(X_749  1.0499999523162842)
(X_750  0.949999988079071)
(X_751  0.949999988079071)
(X_752  1.0499999523162842)
(X_753  1.0499999523162842)
(X_754  1.0499999523162842)
(X_755  1.0499999523162842)
(X_756  1.0499999523162842)
(X_757  0.949999988079071)
(X_758  1.0499999523162842)
(X_759  0.949999988079071)
(X_760  0.949999988079071)
(X_761  1.0499999523162842)
(X_762  1.0499999523162842)
(X_763  1.0499999523162842)
(X_764  0.949999988079071)
(X_765  0.949999988079071)
(X_766  0.949999988079071)
(X_767  0.949999988079071)
(X_768  0.949999988079071)
(X_769  0.949999988079071)
(X_770  0.949999988079071)
(X_771  0.949999988079071)
(X_772  0.949999988079071)
(X_773  0.949999988079071)
(X_774  0.949999988079071)
(X_775  0.949999988079071)
(X_776  0.949999988079071)
(X_777  0.949999988079071)
(X_778  0.949999988079071)
(X_779  0.949999988079071)
(X_780  0.949999988079071)
(X_781  0.949999988079071)
(X_782  0.949999988079071)
(X_783  0.949999988079071)
(Y_0 -18.103809356689453)
(Y_1 37.8811149597168)
(Y_2 -13.51080322265625)
(Y_3 -3.978545665740967))