((X_0  1.0499999523162842)
(X_1  0.949999988079071)
(X_2  0.949999988079071)
(X_3  1.0499999523162842)
(X_4  0.949999988079071)
(X_5  0.949999988079071)
(X_6  0.949999988079071)
(X_7  0.949999988079071)
(X_8  1.0499999523162842)
(X_9  1.0499999523162842)
(X_10  1.0499999523162842)
(X_11  1.0499999523162842)
(X_12  1.0460784435272217)
(X_13  1.0421568155288696)
(X_14  1.0421568155288696)
(X_15  0.9421568512916565)
(X_16  0.9421568512916565)
(X_17  0.9460784196853638)
(X_18  0.949999988079071)
(X_19  0.949999988079071)
(X_20  1.0499999523162842)
(X_21  1.0499999523162842)
(X_22  1.0499999523162842)
(X_23  0.949999988079071)
(X_24  1.0499999523162842)
(X_25  1.0499999523162842)
(X_26  0.949999988079071)
(X_27  1.0499999523162842)
(X_28  1.0421568155288696)
(X_29  0.9460784196853638)
(X_30  0.949999988079071)
(X_31  0.949999988079071)
(X_32  0.949999988079071)
(X_33  0.949999988079071)
(X_34  1.0499999523162842)
(X_35  1.0499999523162842)
(X_36  1.0499999523162842)
(X_37  1.0499999523162842)
(X_38  0.949999988079071)
(X_39  0.949999988079071)
(X_40  0.949999988079071)
(X_41  1.0499999523162842)
(X_42  1.0499999523162842)
(X_43  0.949999988079071)
(X_44  1.0421568155288696)
(X_45  1.0460784435272217)
(X_46  0.949999988079071)
(X_47  0.949999988079071)
(X_48  0.949999988079071)
(X_49  0.949999988079071)
(X_50  0.949999988079071)
(X_51  0.949999988079071)
(X_52  1.0499999523162842)
(X_53  1.0499999523162842)
(X_54  0.949999988079071)
(X_55  1.0460784435272217)
(X_56  1.0499999523162842)
(X_57  0.949999988079071)
(X_58  0.949999988079071)
(X_59  0.949999988079071)
(X_60  0.949999988079071)
(X_61  0.949999988079071)
(X_62  0.949999988079071)
(X_63  0.949999988079071)
(X_64  0.949999988079071)
(X_65  0.949999988079071)
(X_66  0.949999988079071)
(X_67  1.0499999523162842)
(X_68  1.0499999523162842)
(X_69  0.949999988079071)
(X_70  0.9460784196853638)
(X_71  1.0460784435272217)
(X_72  0.9460784196853638)
(X_73  0.9460784196853638)
(X_74  0.9460784196853638)
(X_75  0.9460784196853638)
(X_76  0.9460784196853638)
(X_77  1.0421568155288696)
(X_78  0.9421568512916565)
(X_79  1.0421568155288696)
(X_80  1.0499999523162842)
(X_81  1.0499999523162842)
(X_82  0.949999988079071)
(X_83  1.0499999523162842)
(X_84  1.0499999523162842)
(X_85  1.0499999523162842)
(X_86  0.9460784196853638)
(X_87  1.034313678741455)
(X_88  0.9264705777168274)
(X_89  0.9225490093231201)
(X_90  0.9186274409294128)
(X_91  0.9186274409294128)
(X_92  1.0382353067398071)
(X_93  0.9303921461105347)
(X_94  0.9225490093231201)
(X_95  1.018627405166626)
(X_96  1.0147058963775635)
(X_97  1.006862759590149)
(X_98  0.9990196228027344)
(X_99  0.9950980544090271)
(X_100  1.006862759590149)
(X_101  1.0029411315917969)
(X_102  0.9950980544090271)
(X_103  0.8833333253860474)
(X_104  0.8715686202049255)
(X_105  0.863725483417511)
(X_106  0.8558823466300964)
(X_107  0.8558823466300964)
(X_108  0.8480392098426819)
(X_109  0.8441176414489746)
(X_110  0.8401960730552673)
(X_111  0.9401960968971252)
(X_112  0.42450979351997375)
(X_113  0.5127450823783875)
(X_114  0.49313727021217346)
(X_115  0.47745099663734436)
(X_116  0.3696078360080719)
(X_117  0.3696078360080719)
(X_118  0.3735294044017792)
(X_119  0.3813725411891937)
(X_120  0.31470587849617004)
(X_121  0.3068627417087555)
(X_122  0.29509803652763367)
(X_123  0.2911764681339264)
(X_124  0.2911764681339264)
(X_125  0.2911764681339264)
(X_126  0.27941176295280457)
(X_127  0.26764705777168274)
(X_128  0.3754902184009552)
(X_129  0.36764708161354065)
(X_130  0.3558823764324188)
(X_131  0.344117671251297)
(X_132  0.33235296607017517)
(X_133  0.3245098292827606)
(X_134  0.32058826088905334)
(X_135  0.31666669249534607)
(X_136  0.30490198731422424)
(X_137  0.20490197837352753)
(X_138  0.20098040997982025)
(X_139  0.2970588207244873)
(X_140  0.1715686321258545)
(X_141  0.15980392694473267)
(X_142  0.04411764815449715)
(X_143  0.03235294297337532)
(X_144  0.03235294297337532)
(X_145  0.04019607976078987)
(X_146  0.04803921654820442)
(X_147  0.1558823585510254)
(X_148  0.16372549533843994)
(X_149  0.1558823585510254)
(X_150  0.14803922176361084)
(X_151  0.0519607849419117)
(X_152  0.0676470622420311)
(X_153  0.1715686321258545)
(X_154  0.16372549533843994)
(X_155  0.1558823585510254)
(X_156  0.16764706373214722)
(X_157  0.16372549533843994)
(X_158  0.1558823585510254)
(X_159  0.14803922176361084)
(X_160  0.14411765336990356)
(X_161  0.04411764815449715)
(X_162  0.04803921654820442)
(X_163  0.0519607849419117)
(X_164  0.16372549533843994)
(X_165  0.06372549384832382)
(X_166  0.05980392172932625)
(X_167  0.1558823585510254)
(X_168  0.07941177487373352)
(X_169  0.17549020051956177)
(X_170  0.07549020648002625)
(X_171  0.1715686321258545)
(X_172  0.1715686321258545)
(X_173  0.1715686321258545)
(X_174  0.07156863063573837)
(X_175  0.07156863063573837)
(X_176  0.1558823585510254)
(X_177  0.1401960849761963)
(X_178  0.03235294297337532)
(X_179  0.04411764815449715)
(X_180  0.06372549384832382)
(X_181  0.07156863063573837)
(X_182  0.06372549384832382)
(X_183  0.0519607849419117)
(X_184  0.17941176891326904)
(X_185  0.17549020051956177)
(X_186  0.16764706373214722)
(X_187  0.16372549533843994)
(X_188  0.16372549533843994)
(X_189  0.0676470622420311)
(X_190  0.17549020051956177)
(X_191  0.17941176891326904)
(X_192  0.16764706373214722)
(X_193  0.16764706373214722)
(X_194  0.06372549384832382)
(X_195  0.05980392172932625)
(X_196  0.0676470622420311)
(X_197  0.1715686321258545)
(X_198  0.07941177487373352)
(X_199  0.07941177487373352)
(X_200  0.07156863063573837)
(X_201  0.05980392172932625)
(X_202  0.04803921654820442)
(X_203  0.036274511367082596)
(X_204  0.07941177487373352)
(X_205  0.06372549384832382)
(X_206  0.15196079015731812)
(X_207  0.15980392694473267)
(X_208  0.07549020648002625)
(X_209  0.0833333432674408)
(X_210  0.07156863063573837)
(X_211  0.1558823585510254)
(X_212  0.17549020051956177)
(X_213  0.16764706373214722)
(X_214  0.05980392172932625)
(X_215  0.04803921654820442)
(X_216  0.04411764815449715)
(X_217  0.04803921654820442)
(X_218  0.15196079015731812)
(X_219  0.1558823585510254)
(X_220  0.17549020051956177)
(X_221  0.17549020051956177)
(X_222  0.1715686321258545)
(X_223  0.16764706373214722)
(X_224  0.0676470622420311)
(X_225  0.06372549384832382)
(X_226  0.1558823585510254)
(X_227  0.15980392694473267)
(X_228  0.16372549533843994)
(X_229  0.0676470622420311)
(X_230  0.04803921654820442)
(X_231  0.020588237792253494)
(X_232  0.17549020051956177)
(X_233  0.07549020648002625)
(X_234  0.0676470622420311)
(X_235  0.15980392694473267)
(X_236  0.05588235333561897)
(X_237  0.05980392172932625)
(X_238  0.07156863063573837)
(X_239  0.07941177487373352)
(X_240  0.03235294297337532)
(X_241  0.05588235333561897)
(X_242  0.14803922176361084)
(X_243  0.14803922176361084)
(X_244  0.17549020051956177)
(X_245  0.16372549533843994)
(X_246  0.14411765336990356)
(X_247  0.1558823585510254)
(X_248  0.07156863063573837)
(X_249  0.0676470622420311)
(X_250  0.06372549384832382)
(X_251  0.16372549533843994)
(X_252  0.27941176295280457)
(X_253  0.22058825194835663)
(X_254  0.1617647111415863)
(X_255  0.09117648005485535)
(X_256  0.12058823555707932)
(X_257  0.12450980395078659)
(X_258  0.16764706373214722)
(X_259  0.07156863063573837)
(X_260  0.028431374579668045)
(X_261  0.03235294297337532)
(X_262  0.04019607976078987)
(X_263  0.04803921654820442)
(X_264  0.15980392694473267)
(X_265  0.0676470622420311)
(X_266  0.1715686321258545)
(X_267  0.1715686321258545)
(X_268  0.14803922176361084)
(X_269  0.16764706373214722)
(X_270  0.1558823585510254)
(X_271  0.15196079015731812)
(X_272  0.17941176891326904)
(X_273  0.17549020051956177)
(X_274  0.15980392694473267)
(X_275  0.17549020051956177)
(X_276  0.15196079015731812)
(X_277  0.15196079015731812)
(X_278  0.0519607849419117)
(X_279  0.0519607849419117)
(X_280  0.3558823764324188)
(X_281  0.31666669249534607)
(X_282  0.24411766231060028)
(X_283  0.24803923070430756)
(X_284  0.16568627953529358)
(X_285  0.22647058963775635)
(X_286  0.2029411792755127)
(X_287  0.12843137979507446)
(X_288  0.07156863063573837)
(X_289  0.06372549384832382)
(X_290  0.0519607849419117)
(X_291  0.0519607849419117)
(X_292  0.0519607849419117)
(X_293  0.0519607849419117)
(X_294  0.0519607849419117)
(X_295  0.14803922176361084)
(X_296  0.1401960849761963)
(X_297  0.05588235333561897)
(X_298  0.03235294297337532)
(X_299  0.02450980618596077)
(X_300  0.05588235333561897)
(X_301  0.15196079015731812)
(X_302  0.136274516582489)
(X_303  0.05588235333561897)
(X_304  0.04019607976078987)
(X_305  0.04019607976078987)
(X_306  0.04019607976078987)
(X_307  0.04019607976078987)
(X_308  0.4382353127002716)
(X_309  0.3480392396450043)
(X_310  0.344117671251297)
(X_311  0.24803923070430756)
(X_312  0.18921568989753723)
(X_313  0.18529412150382996)
(X_314  0.1931372582912445)
(X_315  0.1303921639919281)
(X_316  0.17549020051956177)
(X_317  0.15980392694473267)
(X_318  0.14411765336990356)
(X_319  0.136274516582489)
(X_320  0.04411764815449715)
(X_321  0.05588235333561897)
(X_322  0.0676470622420311)
(X_323  0.07549020648002625)
(X_324  0.09117648005485535)
(X_325  0.0990196168422699)
(X_326  0.06372549384832382)
(X_327  0.04803921654820442)
(X_328  0.17549020051956177)
(X_329  0.1715686321258545)
(X_330  0.1558823585510254)
(X_331  0.1715686321258545)
(X_332  0.0676470622420311)
(X_333  0.0676470622420311)
(X_334  0.0676470622420311)
(X_335  0.06372549384832382)
(X_336  0.4852941334247589)
(X_337  0.4225490391254425)
(X_338  0.4107843339443207)
(X_339  0.2911764681339264)
(X_340  0.3088235557079315)
(X_341  0.2852941155433655)
(X_342  0.31666669249534607)
(X_343  0.21274511516094208)
(X_344  0.22254902124404907)
(X_345  0.23039215803146362)
(X_346  0.24607843160629272)
(X_347  0.15784314274787903)
(X_348  0.1774509847164154)
(X_349  0.19705882668495178)
(X_350  0.22058825194835663)
(X_351  0.33235296607017517)
(X_352  0.23823529481887817)
(X_353  0.22647058963775635)
(X_354  0.1715686321258545)
(X_355  0.04019607976078987)
(X_356  0.15980392694473267)
(X_357  0.15196079015731812)
(X_358  0.12843137979507446)
(X_359  0.14411765336990356)
(X_360  0.1401960849761963)
(X_361  0.14411765336990356)
(X_362  0.04803921654820442)
(X_363  0.0519607849419117)
(X_364  0.23823529481887817)
(X_365  0.22058825194835663)
(X_366  0.3186274468898773)
(X_367  0.3656862676143646)
(X_368  0.3225490152835846)
(X_369  0.3284313976764679)
(X_370  0.18921568989753723)
(X_371  0.21666668355464935)
(X_372  0.24411766231060028)
(X_373  0.36764708161354065)
(X_374  0.387254923582077)
(X_375  0.3911764919757843)
(X_376  0.2754901945590973)
(X_377  0.26764705777168274)
(X_378  0.27941176295280457)
(X_379  0.29509803652763367)
(X_380  0.3558823764324188)
(X_381  0.31666669249534607)
(X_382  0.22254902124404907)
(X_383  0.1558823585510254)
(X_384  0.06372549384832382)
(X_385  0.05588235333561897)
(X_386  0.04019607976078987)
(X_387  0.05980392172932625)
(X_388  0.1872549057006836)
(X_389  0.19509804248809814)
(X_390  0.10686275362968445)
(X_391  0.11862745881080627)
(X_392  0.136274516582489)
(X_393  0.21078431606292725)
(X_394  0.24215686321258545)
(X_395  0.3127451241016388)
(X_396  0.40294119715690613)
(X_397  0.35196080803871155)
(X_398  0.18921568989753723)
(X_399  0.25196078419685364)
(X_400  0.240196093916893)
(X_401  0.2598039209842682)
(X_402  0.26764705777168274)
(X_403  0.344117671251297)
(X_404  0.32058826088905334)
(X_405  0.240196093916893)
(X_406  0.29901960492134094)
(X_407  0.3578431308269501)
(X_408  0.5872549414634705)
(X_409  0.5166666507720947)
(X_410  0.3754902184009552)
(X_411  0.27352941036224365)
(X_412  0.2617647051811218)
(X_413  0.2656862735748291)
(X_414  0.2696078419685364)
(X_415  0.30098041892051697)
(X_416  0.22058825194835663)
(X_417  0.22843138873577118)
(X_418  0.240196093916893)
(X_419  0.25196078419685364)
(X_420  0.2029411792755127)
(X_421  0.10686275362968445)
(X_422  0.12843137979507446)
(X_423  0.0990196168422699)
(X_424  0.3029411733150482)
(X_425  0.26764705777168274)
(X_426  0.12647059559822083)
(X_427  0.24215686321258545)
(X_428  0.1931372582912445)
(X_429  0.3088235557079315)
(X_430  0.21274511516094208)
(X_431  0.2088235467672348)
(X_432  0.23627452552318573)
(X_433  0.3382352888584137)
(X_434  0.4990196228027344)
(X_435  0.6245098114013672)
(X_436  0.7049019932746887)
(X_437  0.6107843518257141)
(X_438  0.43431374430656433)
(X_439  0.30098041892051697)
(X_440  0.18529412150382996)
(X_441  0.1931372582912445)
(X_442  0.21666668355464935)
(X_443  0.2598039209842682)
(X_444  0.21274511516094208)
(X_445  0.21666668355464935)
(X_446  0.2245098203420639)
(X_447  0.22843138873577118)
(X_448  0.14411765336990356)
(X_449  0.15980392694473267)
(X_450  0.04019607976078987)
(X_451  0.12843137979507446)
(X_452  0.114705890417099)
(X_453  0.23627452552318573)
(X_454  0.24411766231060028)
(X_455  0.2696078419685364)
(X_456  0.33235296607017517)
(X_457  0.32058826088905334)
(X_458  0.35196080803871155)
(X_459  0.45000001788139343)
(X_460  0.5558823943138123)
(X_461  0.4833333492279053)
(X_462  0.42450979351997375)
(X_463  0.34607842564582825)
(X_464  0.27941176295280457)
(X_465  0.33039215207099915)
(X_466  0.34607842564582825)
(X_467  0.2754901945590973)
(X_468  0.28921568393707275)
(X_469  0.30098041892051697)
(X_470  0.43039217591285706)
(X_471  0.5598039627075195)
(X_472  0.5362744927406311)
(X_473  0.5245097875595093)
(X_474  0.5009803771972656)
(X_475  0.48137256503105164)
(X_476  0.02450980618596077)
(X_477  0.04411764815449715)
(X_478  0.1401960849761963)
(X_479  0.136274516582489)
(X_480  0.09509804844856262)
(X_481  0.19705882668495178)
(X_482  0.240196093916893)
(X_483  0.3245098292827606)
(X_484  0.31666669249534607)
(X_485  0.3794117867946625)
(X_486  0.36176469922065735)
(X_487  0.40882351994514465)
(X_488  0.3970588147640228)
(X_489  0.3225490152835846)
(X_490  0.23235295712947845)
(X_491  0.16960784792900085)
(X_492  0.1617647111415863)
(X_493  0.3127451241016388)
(X_494  0.3558823764324188)
(X_495  0.3480392396450043)
(X_496  0.3127451241016388)
(X_497  0.3127451241016388)
(X_498  0.3637255132198334)
(X_499  0.3225490152835846)
(X_500  0.39313724637031555)
(X_501  0.385294109582901)
(X_502  0.37745097279548645)
(X_503  0.3696078360080719)
(X_504  0.12450980395078659)
(X_505  0.04411764815449715)
(X_506  0.14411765336990356)
(X_507  0.13235294818878174)
(X_508  0.1401960849761963)
(X_509  0.19117647409439087)
(X_510  0.25784313678741455)
(X_511  0.19705882668495178)
(X_512  0.22843138873577118)
(X_513  0.2754901945590973)
(X_514  0.31470587849617004)
(X_515  0.3029411733150482)
(X_516  0.240196093916893)
(X_517  0.16568627953529358)
(X_518  0.12254902720451355)
(X_519  0.10686275362968445)
(X_520  0.0833333432674408)
(X_521  0.114705890417099)
(X_522  0.2617647051811218)
(X_523  0.20490197837352753)
(X_524  0.22843138873577118)
(X_525  0.3284313976764679)
(X_526  0.31666669249534607)
(X_527  0.30490198731422424)
(X_528  0.21666668355464935)
(X_529  0.2088235467672348)
(X_530  0.1931372582912445)
(X_531  0.18529412150382996)
(X_532  0.13235294818878174)
(X_533  0.1401960849761963)
(X_534  0.14411765336990356)
(X_535  0.13235294818878174)
(X_536  0.11666666716337204)
(X_537  0.12843137979507446)
(X_538  0.1872549057006836)
(X_539  0.2539215683937073)
(X_540  0.21274511516094208)
(X_541  0.18921568989753723)
(X_542  0.25784313678741455)
(X_543  0.23039215803146362)
(X_544  0.2186274528503418)
(X_545  0.10686275362968445)
(X_546  0.09509804844856262)
(X_547  0.0833333432674408)
(X_548  0.17549020051956177)
(X_549  0.1715686321258545)
(X_550  0.08725491166114807)
(X_551  0.23039215803146362)
(X_552  0.2774509787559509)
(X_553  0.29313725233078003)
(X_554  0.16960784792900085)
(X_555  0.13823530077934265)
(X_556  0.20686274766921997)
(X_557  0.19509804248809814)
(X_558  0.07941177487373352)
(X_559  0.06372549384832382)
(X_560  0.12843137979507446)
(X_561  0.020588237792253494)
(X_562  0.03235294297337532)
(X_563  0.04803921654820442)
(X_564  0.04411764815449715)
(X_565  0.04803921654820442)
(X_566  0.08725491166114807)
(X_567  0.13823530077934265)
(X_568  0.12254902720451355)
(X_569  0.10294118523597717)
(X_570  0.18333333730697632)
(X_571  0.0833333432674408)
(X_572  0.08725491166114807)
(X_573  0.07549020648002625)
(X_574  0.036274511367082596)
(X_575  0.0009803927969187498)
(X_576  0.05588235333561897)
(X_577  0.04411764815449715)
(X_578  0.04019607976078987)
(X_579  0.15980392694473267)
(X_580  0.19117647409439087)
(X_581  0.2029411792755127)
(X_582  0.19117647409439087)
(X_583  0.1715686321258545)
(X_584  0.1558823585510254)
(X_585  0.0519607849419117)
(X_586  0.04803921654820442)
(X_587  0.04411764815449715)
(X_588  0.136274516582489)
(X_589  0.028431374579668045)
(X_590  0.028431374579668045)
(X_591  0.036274511367082596)
(X_592  0.04411764815449715)
(X_593  0.04019607976078987)
(X_594  0.15196079015731812)
(X_595  0.16372549533843994)
(X_596  0.136274516582489)
(X_597  0.15196079015731812)
(X_598  0.06372549384832382)
(X_599  0.05980392172932625)
(X_600  0.04411764815449715)
(X_601  0.02450980618596077)
(X_602  0.01666666939854622)
(X_603  0.01666666939854622)
(X_604  0.13235294818878174)
(X_605  0.13235294818878174)
(X_606  0.1401960849761963)
(X_607  0.14803922176361084)
(X_608  0.15196079015731812)
(X_609  0.14803922176361084)
(X_610  0.136274516582489)
(X_611  0.12450980395078659)
(X_612  0.020588237792253494)
(X_613  0.01666666939854622)
(X_614  0.11666666716337204)
(X_615  0.11666666716337204)
(X_616  0.14411765336990356)
(X_617  0.1401960849761963)
(X_618  0.03235294297337532)
(X_619  0.01666666939854622)
(X_620  0.012745101936161518)
(X_621  0.11666666716337204)
(X_622  0.11274509876966476)
(X_623  0.10098039358854294)
(X_624  0.12843137979507446)
(X_625  0.13235294818878174)
(X_626  0.13235294818878174)
(X_627  0.01666666939854622)
(X_628  0.0009803927969187498)
(X_629  0.008823529817163944)
(X_630  0.036274511367082596)
(X_631  0.16372549533843994)
(X_632  0.12843137979507446)
(X_633  0.03235294297337532)
(X_634  0.04019607976078987)
(X_635  0.04411764815449715)
(X_636  0.04019607976078987)
(X_637  0.13235294818878174)
(X_638  0.12843137979507446)
(X_639  0.12450980395078659)
(X_640  0.04019607976078987)
(X_641  0.1401960849761963)
(X_642  0.13235294818878174)
(X_643  0.12843137979507446)
(X_644  0.12450980395078659)
(X_645  0.1401960849761963)
(X_646  0.13235294818878174)
(X_647  0.10882353037595749)
(X_648  0.11274509876966476)
(X_649  0.136274516582489)
(X_650  0.14411765336990356)
(X_651  0.13235294818878174)
(X_652  0.15196079015731812)
(X_653  0.03235294297337532)
(X_654  0.01666666939854622)
(X_655  0.020588237792253494)
(X_656  0.03235294297337532)
(X_657  0.036274511367082596)
(X_658  0.02450980618596077)
(X_659  0.008823529817163944)
(X_660  0.12843137979507446)
(X_661  0.12450980395078659)
(X_662  0.12058823555707932)
(X_663  0.11274509876966476)
(X_664  0.012745101936161518)
(X_665  0.11666666716337204)
(X_666  0.12843137979507446)
(X_667  0.04019607976078987)
(X_668  0.020588237792253494)
(X_669  0.020588237792253494)
(X_670  0.020588237792253494)
(X_671  0.020588237792253494)
(X_672  0.12843137979507446)
(X_673  0.028431374579668045)
(X_674  0.02450980618596077)
(X_675  0.020588237792253494)
(X_676  0.020588237792253494)
(X_677  0.02450980618596077)
(X_678  0.028431374579668045)
(X_679  0.028431374579668045)
(X_680  0.02450980618596077)
(X_681  0.12450980395078659)
(X_682  0.02450980618596077)
(X_683  0.028431374579668045)
(X_684  0.03235294297337532)
(X_685  0.03235294297337532)
(X_686  0.03235294297337532)
(X_687  0.036274511367082596)
(X_688  0.12843137979507446)
(X_689  0.028431374579668045)
(X_690  0.028431374579668045)
(X_691  0.02450980618596077)
(X_692  0.12450980395078659)
(X_693  0.12450980395078659)
(X_694  0.12058823555707932)
(X_695  0.12058823555707932)
(X_696  0.12450980395078659)
(X_697  0.12450980395078659)
(X_698  0.12450980395078659)
(X_699  0.12843137979507446)
(X_700  0.12450980395078659)
(X_701  0.12450980395078659)
(X_702  0.12058823555707932)
(X_703  0.12058823555707932)
(X_704  0.12058823555707932)
(X_705  0.020588237792253494)
(X_706  0.02450980618596077)
(X_707  0.02450980618596077)
(X_708  0.01666666939854622)
(X_709  0.11666666716337204)
(X_710  0.01666666939854622)
(X_711  0.020588237792253494)
(X_712  0.020588237792253494)
(X_713  0.02450980618596077)
(X_714  0.02450980618596077)
(X_715  0.02450980618596077)
(X_716  0.02450980618596077)
(X_717  0.02450980618596077)
(X_718  0.02450980618596077)
(X_719  0.020588237792253494)
(X_720  0.12058823555707932)
(X_721  0.12058823555707932)
(X_722  0.11666666716337204)
(X_723  0.11666666716337204)
(X_724  0.12058823555707932)
(X_725  0.12058823555707932)
(X_726  0.12450980395078659)
(X_727  0.12450980395078659)
(X_728  0.11666666716337204)
(X_729  0.11666666716337204)
(X_730  0.11666666716337204)
(X_731  0.11666666716337204)
(X_732  0.11666666716337204)
(X_733  0.11666666716337204)
(X_734  0.11666666716337204)
(X_735  0.11666666716337204)
(X_736  0.10882353037595749)
(X_737  0.10882353037595749)
(X_738  0.008823529817163944)
(X_739  0.008823529817163944)
(X_740  0.012745101936161518)
(X_741  0.012745101936161518)
(X_742  0.012745101936161518)
(X_743  0.012745101936161518)
(X_744  0.020588237792253494)
(X_745  0.020588237792253494)
(X_746  0.01666666939854622)
(X_747  0.01666666939854622)
(X_748  0.01666666939854622)
(X_749  0.012745101936161518)
(X_750  0.012745101936161518)
(X_751  0.012745101936161518)
(X_752  0.11666666716337204)
(X_753  0.11666666716337204)
(X_754  0.11666666716337204)
(X_755  0.12058823555707932)
(X_756  0.11274509876966476)
(X_757  0.11274509876966476)
(X_758  0.11274509876966476)
(X_759  0.11666666716337204)
(X_760  0.01666666939854622)
(X_761  0.012745101936161518)
(X_762  0.012745101936161518)
(X_763  0.012745101936161518)
(X_764  0.004901961423456669)
(X_765  0.10490196198225021)
(X_766  0.004901961423456669)
(X_767  0.008823529817163944)
(X_768  0.008823529817163944)
(X_769  0.008823529817163944)
(X_770  0.008823529817163944)
(X_771  0.008823529817163944)
(X_772  0.012745101936161518)
(X_773  0.012745101936161518)
(X_774  0.012745101936161518)
(X_775  0.008823529817163944)
(X_776  0.10882353037595749)
(X_777  0.10882353037595749)
(X_778  0.10490196198225021)
(X_779  0.10490196198225021)
(X_780  0.012745101936161518)
(X_781  0.012745101936161518)
(X_782  0.012745101936161518)
(X_783  0.012745101936161518)
(Y_0 -12.58116340637207)
(Y_1 3.9734768867492676)
(Y_2 -4.560196399688721)
(Y_3 13.275636672973633))