((X_0  1.034313678741455)
(X_1  0.9421568512916565)
(X_2  0.949999988079071)
(X_3  0.949999988079071)
(X_4  1.0499999523162842)
(X_5  1.0382353067398071)
(X_6  0.9343137145042419)
(X_7  0.9382352828979492)
(X_8  1.0499999523162842)
(X_9  1.0382353067398071)
(X_10  1.022549033164978)
(X_11  0.9303921461105347)
(X_12  0.9225490093231201)
(X_13  0.979411780834198)
(X_14  0.9205882549285889)
(X_15  0.8852941393852234)
(X_16  0.7578431367874146)
(X_17  0.7539215683937073)
(X_18  0.679411768913269)
(X_19  0.5617647171020508)
(X_20  0.5911765098571777)
(X_21  0.5637255311012268)
(X_22  0.49313727021217346)
(X_23  0.29901960492134094)
(X_24  0.32058826088905334)
(X_25  0.2696078419685364)
(X_26  0.21078431606292725)
(X_27  0.1715686321258545)
(X_28  1.034313678741455)
(X_29  0.8872548937797546)
(X_30  0.8245097994804382)
(X_31  0.8813725709915161)
(X_32  0.7539215683937073)
(X_33  0.7147058844566345)
(X_34  0.7715686559677124)
(X_35  0.7441176772117615)
(X_36  0.6500000357627869)
(X_37  0.5794118046760559)
(X_38  0.39313724637031555)
(X_39  0.3382352888584137)
(X_40  0.29509803652763367)
(X_41  0.2598039209842682)
(X_42  0.33235296607017517)
(X_43  0.22843138873577118)
(X_44  0.2539215683937073)
(X_45  0.21470588445663452)
(X_46  0.0990196168422699)
(X_47  0.11078432202339172)
(X_48  0.11078432202339172)
(X_49  0.08725491166114807)
(X_50  0.07549020648002625)
(X_51  0.0833333432674408)
(X_52  0.24215686321258545)
(X_53  0.21078431606292725)
(X_54  0.07941177487373352)
(X_55  0.16372549533843994)
(X_56  0.344117671251297)
(X_57  0.2245098203420639)
(X_58  0.1931372582912445)
(X_59  0.16568627953529358)
(X_60  0.14215686917304993)
(X_61  0.114705890417099)
(X_62  0.07941177487373352)
(X_63  0.0519607849419117)
(X_64  0.19509804248809814)
(X_65  0.08725491166114807)
(X_66  0.19117647409439087)
(X_67  0.2029411792755127)
(X_68  0.19509804248809814)
(X_69  0.0676470622420311)
(X_70  0.04803921654820442)
(X_71  0.04803921654820442)
(X_72  0.0990196168422699)
(X_73  0.09117648005485535)
(X_74  0.10686275362968445)
(X_75  0.13431373238563538)
(X_76  0.23039215803146362)
(X_77  0.2029411792755127)
(X_78  0.19509804248809814)
(X_79  0.2186274528503418)
(X_80  0.19509804248809814)
(X_81  0.18333333730697632)
(X_82  0.17941176891326904)
(X_83  0.1872549057006836)
(X_84  0.09509804844856262)
(X_85  0.21078431606292725)
(X_86  0.21078431606292725)
(X_87  0.19117647409439087)
(X_88  0.07941177487373352)
(X_89  0.10294118523597717)
(X_90  0.1460784375667572)
(X_91  0.17352941632270813)
(X_92  0.16568627953529358)
(X_93  0.21274511516094208)
(X_94  0.2754901945590973)
(X_95  0.3029411733150482)
(X_96  0.3637255132198334)
(X_97  0.28921568393707275)
(X_98  0.24607843160629272)
(X_99  0.23823529481887817)
(X_100  0.21470588445663452)
(X_101  0.27352941036224365)
(X_102  0.27352941036224365)
(X_103  0.09117648005485535)
(X_104  0.04411764815449715)
(X_105  0.07549020648002625)
(X_106  0.10294118523597717)
(X_107  0.09509804844856262)
(X_108  0.08725491166114807)
(X_109  0.08725491166114807)
(X_110  0.09117648005485535)
(X_111  0.2029411792755127)
(X_112  0.13823530077934265)
(X_113  0.22254902124404907)
(X_114  0.17941176891326904)
(X_115  0.04803921654820442)
(X_116  0.07941177487373352)
(X_117  0.16568627953529358)
(X_118  0.24411766231060028)
(X_119  0.28333333134651184)
(X_120  0.3696078360080719)
(X_121  0.3735294044017792)
(X_122  0.36176469922065735)
(X_123  0.3029411733150482)
(X_124  0.3127451241016388)
(X_125  0.15000000596046448)
(X_126  0.1617647111415863)
(X_127  0.2088235467672348)
(X_128  0.43431374430656433)
(X_129  0.48137256503105164)
(X_130  0.44607844948768616)
(X_131  0.30490198731422424)
(X_132  0.19117647409439087)
(X_133  0.17941176891326904)
(X_134  0.0990196168422699)
(X_135  0.19901961088180542)
(X_136  0.18333333730697632)
(X_137  0.18333333730697632)
(X_138  0.18333333730697632)
(X_139  0.1872549057006836)
(X_140  0.19117647409439087)
(X_141  0.17549020051956177)
(X_142  0.1715686321258545)
(X_143  0.22647058963775635)
(X_144  0.344117671251297)
(X_145  0.3578431308269501)
(X_146  0.3735294044017792)
(X_147  0.33039215207099915)
(X_148  0.43039217591285706)
(X_149  0.387254923582077)
(X_150  0.3245098292827606)
(X_151  0.25)
(X_152  0.19509804248809814)
(X_153  0.19901961088180542)
(X_154  0.2774509787559509)
(X_155  0.3558823764324188)
(X_156  0.3735294044017792)
(X_157  0.4049019515514374)
(X_158  0.5401960611343384)
(X_159  0.5245097875595093)
(X_160  0.4107843339443207)
(X_161  0.15784314274787903)
(X_162  0.06372549384832382)
(X_163  0.1401960849761963)
(X_164  0.0833333432674408)
(X_165  0.0833333432674408)
(X_166  0.0833333432674408)
(X_167  0.18333333730697632)
(X_168  0.0676470622420311)
(X_169  0.20686274766921997)
(X_170  0.25784313678741455)
(X_171  0.33235296607017517)
(X_172  0.43039217591285706)
(X_173  0.3892156779766083)
(X_174  0.3499999940395355)
(X_175  0.26764705777168274)
(X_176  0.3911764919757843)
(X_177  0.3245098292827606)
(X_178  0.25)
(X_179  0.2186274528503418)
(X_180  0.2186274528503418)
(X_181  0.24215686321258545)
(X_182  0.18137255311012268)
(X_183  0.21666668355464935)
(X_184  0.1460784375667572)
(X_185  0.3127451241016388)
(X_186  0.4382353127002716)
(X_187  0.5480391979217529)
(X_188  0.4480392038822174)
(X_189  0.32647058367729187)
(X_190  0.18529412150382996)
(X_191  0.10294118523597717)
(X_192  0.19117647409439087)
(X_193  0.19117647409439087)
(X_194  0.09117648005485535)
(X_195  0.19117647409439087)
(X_196  0.3696078360080719)
(X_197  0.5166666507720947)
(X_198  0.5245097875595093)
(X_199  0.47745099663734436)
(X_200  0.3343137204647064)
(X_201  0.41862747073173523)
(X_202  0.2872548997402191)
(X_203  0.24411766231060028)
(X_204  0.25196078419685364)
(X_205  0.16568627953529358)
(X_206  0.1872549057006836)
(X_207  0.19509804248809814)
(X_208  0.15392157435417175)
(X_209  0.20490197837352753)
(X_210  0.22058825194835663)
(X_211  0.2245098203420639)
(X_212  0.23823529481887817)
(X_213  0.31666669249534607)
(X_214  0.3911764919757843)
(X_215  0.44607844948768616)
(X_216  0.40882351994514465)
(X_217  0.42843136191368103)
(X_218  0.4225490391254425)
(X_219  0.2813725471496582)
(X_220  0.17941176891326904)
(X_221  0.0833333432674408)
(X_222  0.0833333432674408)
(X_223  0.17941176891326904)
(X_224  0.4205882251262665)
(X_225  0.4166666567325592)
(X_226  0.4892157018184662)
(X_227  0.4421568810939789)
(X_228  0.29509803652763367)
(X_229  0.2754901945590973)
(X_230  0.2598039209842682)
(X_231  0.25196078419685364)
(X_232  0.2970588207244873)
(X_233  0.114705890417099)
(X_234  0.08725491166114807)
(X_235  0.114705890417099)
(X_236  0.13431373238563538)
(X_237  0.1774509847164154)
(X_238  0.23627452552318573)
(X_239  0.25196078419685364)
(X_240  0.2088235467672348)
(X_241  0.32058826088905334)
(X_242  0.3598039448261261)
(X_243  0.3911764919757843)
(X_244  0.41862747073173523)
(X_245  0.48137256503105164)
(X_246  0.5127450823783875)
(X_247  0.48137256503105164)
(X_248  0.18529412150382996)
(X_249  0.13823530077934265)
(X_250  0.19901961088180542)
(X_251  0.19117647409439087)
(X_252  0.34607842564582825)
(X_253  0.2911764681339264)
(X_254  0.24411766231060028)
(X_255  0.344117671251297)
(X_256  0.3558823764324188)
(X_257  0.3245098292827606)
(X_258  0.25)
(X_259  0.0833333432674408)
(X_260  0.11078432202339172)
(X_261  0.07941177487373352)
(X_262  0.10686275362968445)
(X_263  0.16568627953529358)
(X_264  0.20490197837352753)
(X_265  0.24411766231060028)
(X_266  0.3558823764324188)
(X_267  0.3127451241016388)
(X_268  0.3598039448261261)
(X_269  0.31666669249534607)
(X_270  0.29313725233078003)
(X_271  0.33627453446388245)
(X_272  0.39901962876319885)
(X_273  0.43431374430656433)
(X_274  0.45000001788139343)
(X_275  0.3735294044017792)
(X_276  0.42843136191368103)
(X_277  0.39313724637031555)
(X_278  0.3735294044017792)
(X_279  0.3813725411891937)
(X_280  0.25196078419685364)
(X_281  0.28921568393707275)
(X_282  0.25784313678741455)
(X_283  0.18921568989753723)
(X_284  0.21666668355464935)
(X_285  0.2696078419685364)
(X_286  0.17941176891326904)
(X_287  0.12058823555707932)
(X_288  0.05980392172932625)
(X_289  0.07941177487373352)
(X_290  0.13823530077934265)
(X_291  0.20098040997982025)
(X_292  0.24803923070430756)
(X_293  0.3068627417087555)
(X_294  0.29509803652763367)
(X_295  0.21274511516094208)
(X_296  0.3911764919757843)
(X_297  0.21666668355464935)
(X_298  0.22647058963775635)
(X_299  0.2617647051811218)
(X_300  0.3637255132198334)
(X_301  0.3637255132198334)
(X_302  0.3558823764324188)
(X_303  0.3382352888584137)
(X_304  0.4009803831577301)
(X_305  0.3892156779766083)
(X_306  0.3892156779766083)
(X_307  0.4049019515514374)
(X_308  0.2852941155433655)
(X_309  0.2617647051811218)
(X_310  0.1617647111415863)
(X_311  0.18529412150382996)
(X_312  0.16568627953529358)
(X_313  0.11078432202339172)
(X_314  0.08725491166114807)
(X_315  0.10294118523597717)
(X_316  0.19117647409439087)
(X_317  0.22647058963775635)
(X_318  0.27352941036224365)
(X_319  0.2813725471496582)
(X_320  0.3088235557079315)
(X_321  0.2911764681339264)
(X_322  0.31470587849617004)
(X_323  0.24411766231060028)
(X_324  0.2598039209842682)
(X_325  0.22843138873577118)
(X_326  0.21470588445663452)
(X_327  0.20686274766921997)
(X_328  0.31666669249534607)
(X_329  0.30490198731422424)
(X_330  0.17352941632270813)
(X_331  0.26372548937797546)
(X_332  0.29509803652763367)
(X_333  0.3911764919757843)
(X_334  0.29901960492134094)
(X_335  0.3068627417087555)
(X_336  0.18137255311012268)
(X_337  0.2696078419685364)
(X_338  0.2617647051811218)
(X_339  0.25)
(X_340  0.20686274766921997)
(X_341  0.17549020051956177)
(X_342  0.20686274766921997)
(X_343  0.1617647111415863)
(X_344  0.2343137264251709)
(X_345  0.27352941036224365)
(X_346  0.1931372582912445)
(X_347  0.15000000596046448)
(X_348  0.13823530077934265)
(X_349  0.22843138873577118)
(X_350  0.2872548997402191)
(X_351  0.344117671251297)
(X_352  0.2970588207244873)
(X_353  0.33627453446388245)
(X_354  0.2539215683937073)
(X_355  0.19901961088180542)
(X_356  0.2696078419685364)
(X_357  0.2656862735748291)
(X_358  0.23039215803146362)
(X_359  0.2852941155433655)
(X_360  0.29313725233078003)
(X_361  0.30098041892051697)
(X_362  0.20490197837352753)
(X_363  0.20098040997982025)
(X_364  0.23627452552318573)
(X_365  0.3127451241016388)
(X_366  0.27352941036224365)
(X_367  0.23823529481887817)
(X_368  0.2186274528503418)
(X_369  0.22254902124404907)
(X_370  0.23823529481887817)
(X_371  0.15000000596046448)
(X_372  0.14215686917304993)
(X_373  0.16960784792900085)
(X_374  0.2852941155433655)
(X_375  0.24215686321258545)
(X_376  0.114705890417099)
(X_377  0.18529412150382996)
(X_378  0.240196093916893)
(X_379  0.20490197837352753)
(X_380  0.2696078419685364)
(X_381  0.3284313976764679)
(X_382  0.2852941155433655)
(X_383  0.22254902124404907)
(X_384  0.14215686917304993)
(X_385  0.13823530077934265)
(X_386  0.11862745881080627)
(X_387  0.24215686321258545)
(X_388  0.3088235557079315)
(X_389  0.3284313976764679)
(X_390  0.23627452552318573)
(X_391  0.3284313976764679)
(X_392  0.3598039448261261)
(X_393  0.36764708161354065)
(X_394  0.24803923070430756)
(X_395  0.30490198731422424)
(X_396  0.29313725233078003)
(X_397  0.3088235557079315)
(X_398  0.29313725233078003)
(X_399  0.15784314274787903)
(X_400  0.1460784375667572)
(X_401  0.1460784375667572)
(X_402  0.15784314274787903)
(X_403  0.24607843160629272)
(X_404  0.14215686917304993)
(X_405  0.19705882668495178)
(X_406  0.22843138873577118)
(X_407  0.2852941155433655)
(X_408  0.30098041892051697)
(X_409  0.30098041892051697)
(X_410  0.2813725471496582)
(X_411  0.25784313678741455)
(X_412  0.23039215803146362)
(X_413  0.21470588445663452)
(X_414  0.22647058963775635)
(X_415  0.25)
(X_416  0.1303921639919281)
(X_417  0.16960784792900085)
(X_418  0.19705882668495178)
(X_419  0.19705882668495178)
(X_420  0.3245098292827606)
(X_421  0.29901960492134094)
(X_422  0.33039215207099915)
(X_423  0.28333333134651184)
(X_424  0.24411766231060028)
(X_425  0.25196078419685364)
(X_426  0.23627452552318573)
(X_427  0.28921568393707275)
(X_428  0.16568627953529358)
(X_429  0.13431373238563538)
(X_430  0.13431373238563538)
(X_431  0.1460784375667572)
(X_432  0.16960784792900085)
(X_433  0.33235296607017517)
(X_434  0.25196078419685364)
(X_435  0.20490197837352753)
(X_436  0.35196080803871155)
(X_437  0.27352941036224365)
(X_438  0.25784313678741455)
(X_439  0.2774509787559509)
(X_440  0.2343137264251709)
(X_441  0.19901961088180542)
(X_442  0.13431373238563538)
(X_443  0.17352941632270813)
(X_444  0.1774509847164154)
(X_445  0.23235295712947845)
(X_446  0.2754901945590973)
(X_447  0.3911764919757843)
(X_448  0.29313725233078003)
(X_449  0.3480392396450043)
(X_450  0.3911764919757843)
(X_451  0.39901962876319885)
(X_452  0.4107843339443207)
(X_453  0.33039215207099915)
(X_454  0.4068627655506134)
(X_455  0.3558823764324188)
(X_456  0.3127451241016388)
(X_457  0.32058826088905334)
(X_458  0.30490198731422424)
(X_459  0.18137255311012268)
(X_460  0.30490198731422424)
(X_461  0.3558823764324188)
(X_462  0.2598039209842682)
(X_463  0.22843138873577118)
(X_464  0.23627452552318573)
(X_465  0.22843138873577118)
(X_466  0.21666668355464935)
(X_467  0.3127451241016388)
(X_468  0.32058826088905334)
(X_469  0.33627453446388245)
(X_470  0.3598039448261261)
(X_471  0.3715686500072479)
(X_472  0.4107843339443207)
(X_473  0.4107843339443207)
(X_474  0.4107843339443207)
(X_475  0.4107843339443207)
(X_476  0.16568627953529358)
(X_477  0.2088235467672348)
(X_478  0.3284313976764679)
(X_479  0.31666669249534607)
(X_480  0.21666668355464935)
(X_481  0.22843138873577118)
(X_482  0.2088235467672348)
(X_483  0.16960784792900085)
(X_484  0.2696078419685364)
(X_485  0.2813725471496582)
(X_486  0.2656862735748291)
(X_487  0.14215686917304993)
(X_488  0.16568627953529358)
(X_489  0.21274511516094208)
(X_490  0.21666668355464935)
(X_491  0.18529412150382996)
(X_492  0.21666668355464935)
(X_493  0.21274511516094208)
(X_494  0.30490198731422424)
(X_495  0.3088235557079315)
(X_496  0.31666669249534607)
(X_497  0.3401961028575897)
(X_498  0.3598039448261261)
(X_499  0.2754901945590973)
(X_500  0.33627453446388245)
(X_501  0.23235295712947845)
(X_502  0.2245098203420639)
(X_503  0.21666668355464935)
(X_504  0.2656862735748291)
(X_505  0.18921568989753723)
(X_506  0.1931372582912445)
(X_507  0.2696078419685364)
(X_508  0.1617647111415863)
(X_509  0.17352941632270813)
(X_510  0.1617647111415863)
(X_511  0.23039215803146362)
(X_512  0.13823530077934265)
(X_513  0.24607843160629272)
(X_514  0.2343137264251709)
(X_515  0.114705890417099)
(X_516  0.13431373238563538)
(X_517  0.16960784792900085)
(X_518  0.17352941632270813)
(X_519  0.15000000596046448)
(X_520  0.18921568989753723)
(X_521  0.18529412150382996)
(X_522  0.18529412150382996)
(X_523  0.1931372582912445)
(X_524  0.20490197837352753)
(X_525  0.22843138873577118)
(X_526  0.35196080803871155)
(X_527  0.3637255132198334)
(X_528  0.2754901945590973)
(X_529  0.27156862616539)
(X_530  0.2598039209842682)
(X_531  0.25196078419685364)
(X_532  0.2617647051811218)
(X_533  0.2774509787559509)
(X_534  0.2774509787559509)
(X_535  0.2617647051811218)
(X_536  0.15784314274787903)
(X_537  0.16960784792900085)
(X_538  0.1617647111415863)
(X_539  0.24607843160629272)
(X_540  0.1303921639919281)
(X_541  0.2343137264251709)
(X_542  0.22647058963775635)
(X_543  0.11078432202339172)
(X_544  0.12647059559822083)
(X_545  0.15000000596046448)
(X_546  0.2539215683937073)
(X_547  0.13823530077934265)
(X_548  0.2539215683937073)
(X_549  0.2539215683937073)
(X_550  0.2539215683937073)
(X_551  0.2617647051811218)
(X_552  0.2774509787559509)
(X_553  0.29313725233078003)
(X_554  0.3088235557079315)
(X_555  0.22058825194835663)
(X_556  0.22843138873577118)
(X_557  0.22843138873577118)
(X_558  0.2245098203420639)
(X_559  0.22058825194835663)
(X_560  0.21470588445663452)
(X_561  0.1303921639919281)
(X_562  0.13823530077934265)
(X_563  0.13431373238563538)
(X_564  0.13431373238563538)
(X_565  0.13431373238563538)
(X_566  0.12647059559822083)
(X_567  0.114705890417099)
(X_568  0.11078432202339172)
(X_569  0.11078432202339172)
(X_570  0.10686275362968445)
(X_571  0.0990196168422699)
(X_572  0.10686275362968445)
(X_573  0.22254902124404907)
(X_574  0.22254902124404907)
(X_575  0.114705890417099)
(X_576  0.114705890417099)
(X_577  0.11862745881080627)
(X_578  0.11862745881080627)
(X_579  0.22254902124404907)
(X_580  0.23039215803146362)
(X_581  0.24215686321258545)
(X_582  0.25)
(X_583  0.2539215683937073)
(X_584  0.12254902720451355)
(X_585  0.12254902720451355)
(X_586  0.12254902720451355)
(X_587  0.12254902720451355)
(X_588  0.17549020051956177)
(X_589  0.0833333432674408)
(X_590  0.09117648005485535)
(X_591  0.09509804844856262)
(X_592  0.09117648005485535)
(X_593  0.0833333432674408)
(X_594  0.1715686321258545)
(X_595  0.15980392694473267)
(X_596  0.1715686321258545)
(X_597  0.1715686321258545)
(X_598  0.07156863063573837)
(X_599  0.0676470622420311)
(X_600  0.0676470622420311)
(X_601  0.07156863063573837)
(X_602  0.07549020648002625)
(X_603  0.07549020648002625)
(X_604  0.17941176891326904)
(X_605  0.07941177487373352)
(X_606  0.18333333730697632)
(X_607  0.1872549057006836)
(X_608  0.19117647409439087)
(X_609  0.19117647409439087)
(X_610  0.19509804248809814)
(X_611  0.09509804844856262)
(X_612  0.09509804844856262)
(X_613  0.09117648005485535)
(X_614  0.09117648005485535)
(X_615  0.1872549057006836)
(X_616  0.15980392694473267)
(X_617  0.05980392172932625)
(X_618  0.06372549384832382)
(X_619  0.07156863063573837)
(X_620  0.0676470622420311)
(X_621  0.15980392694473267)
(X_622  0.15196079015731812)
(X_623  0.14803922176361084)
(X_624  0.14803922176361084)
(X_625  0.14411765336990356)
(X_626  0.14411765336990356)
(X_627  0.14803922176361084)
(X_628  0.04411764815449715)
(X_629  0.04019607976078987)
(X_630  0.04019607976078987)
(X_631  0.04803921654820442)
(X_632  0.14411765336990356)
(X_633  0.04803921654820442)
(X_634  0.0519607849419117)
(X_635  0.05588235333561897)
(X_636  0.15980392694473267)
(X_637  0.15980392694473267)
(X_638  0.15980392694473267)
(X_639  0.05588235333561897)
(X_640  0.16372549533843994)
(X_641  0.15980392694473267)
(X_642  0.1558823585510254)
(X_643  0.14803922176361084)
(X_644  0.04803921654820442)
(X_645  0.04019607976078987)
(X_646  0.04411764815449715)
(X_647  0.14803922176361084)
(X_648  0.15196079015731812)
(X_649  0.15196079015731812)
(X_650  0.15196079015731812)
(X_651  0.15980392694473267)
(X_652  0.14411765336990356)
(X_653  0.04411764815449715)
(X_654  0.04411764815449715)
(X_655  0.04803921654820442)
(X_656  0.04411764815449715)
(X_657  0.03235294297337532)
(X_658  0.036274511367082596)
(X_659  0.04411764815449715)
(X_660  0.12450980395078659)
(X_661  0.12843137979507446)
(X_662  0.136274516582489)
(X_663  0.04411764815449715)
(X_664  0.04803921654820442)
(X_665  0.14803922176361084)
(X_666  0.14411765336990356)
(X_667  0.04411764815449715)
(X_668  0.0519607849419117)
(X_669  0.04803921654820442)
(X_670  0.04411764815449715)
(X_671  0.04411764815449715)
(X_672  0.12843137979507446)
(X_673  0.03235294297337532)
(X_674  0.036274511367082596)
(X_675  0.036274511367082596)
(X_676  0.036274511367082596)
(X_677  0.136274516582489)
(X_678  0.13235294818878174)
(X_679  0.028431374579668045)
(X_680  0.12843137979507446)
(X_681  0.13235294818878174)
(X_682  0.13235294818878174)
(X_683  0.13235294818878174)
(X_684  0.13235294818878174)
(X_685  0.12843137979507446)
(X_686  0.02450980618596077)
(X_687  0.020588237792253494)
(X_688  0.13235294818878174)
(X_689  0.13235294818878174)
(X_690  0.036274511367082596)
(X_691  0.036274511367082596)
(X_692  0.136274516582489)
(X_693  0.13235294818878174)
(X_694  0.03235294297337532)
(X_695  0.028431374579668045)
(X_696  0.02450980618596077)
(X_697  0.12450980395078659)
(X_698  0.12843137979507446)
(X_699  0.12843137979507446)
(X_700  0.12843137979507446)
(X_701  0.028431374579668045)
(X_702  0.13235294818878174)
(X_703  0.13235294818878174)
(X_704  0.03235294297337532)
(X_705  0.03235294297337532)
(X_706  0.028431374579668045)
(X_707  0.028431374579668045)
(X_708  0.028431374579668045)
(X_709  0.028431374579668045)
(X_710  0.12843137979507446)
(X_711  0.12843137979507446)
(X_712  0.12843137979507446)
(X_713  0.12450980395078659)
(X_714  0.020588237792253494)
(X_715  0.01666666939854622)
(X_716  0.028431374579668045)
(X_717  0.028431374579668045)
(X_718  0.03235294297337532)
(X_719  0.03235294297337532)
(X_720  0.03235294297337532)
(X_721  0.12843137979507446)
(X_722  0.12843137979507446)
(X_723  0.12450980395078659)
(X_724  0.12058823555707932)
(X_725  0.12058823555707932)
(X_726  0.12450980395078659)
(X_727  0.12450980395078659)
(X_728  0.12058823555707932)
(X_729  0.02450980618596077)
(X_730  0.12450980395078659)
(X_731  0.12843137979507446)
(X_732  0.12843137979507446)
(X_733  0.02450980618596077)
(X_734  0.02450980618596077)
(X_735  0.020588237792253494)
(X_736  0.12058823555707932)
(X_737  0.12450980395078659)
(X_738  0.12450980395078659)
(X_739  0.12450980395078659)
(X_740  0.12450980395078659)
(X_741  0.12058823555707932)
(X_742  0.11666666716337204)
(X_743  0.11274509876966476)
(X_744  0.12058823555707932)
(X_745  0.12058823555707932)
(X_746  0.12450980395078659)
(X_747  0.02450980618596077)
(X_748  0.028431374579668045)
(X_749  0.02450980618596077)
(X_750  0.02450980618596077)
(X_751  0.020588237792253494)
(X_752  0.01666666939854622)
(X_753  0.11666666716337204)
(X_754  0.12058823555707932)
(X_755  0.12058823555707932)
(X_756  0.11666666716337204)
(X_757  0.020588237792253494)
(X_758  0.020588237792253494)
(X_759  0.12450980395078659)
(X_760  0.02450980618596077)
(X_761  0.12058823555707932)
(X_762  0.12058823555707932)
(X_763  0.11666666716337204)
(X_764  0.11666666716337204)
(X_765  0.12058823555707932)
(X_766  0.12058823555707932)
(X_767  0.12058823555707932)
(X_768  0.12058823555707932)
(X_769  0.01666666939854622)
(X_770  0.012745101936161518)
(X_771  0.008823529817163944)
(X_772  0.012745101936161518)
(X_773  0.012745101936161518)
(X_774  0.01666666939854622)
(X_775  0.020588237792253494)
(X_776  0.020588237792253494)
(X_777  0.020588237792253494)
(X_778  0.020588237792253494)
(X_779  0.01666666939854622)
(X_780  0.012745101936161518)
(X_781  0.012745101936161518)
(X_782  0.012745101936161518)
(X_783  0.01666666939854622)
(Y_0 -31.928237915039062)
(Y_1 38.524070739746094)
(Y_2 -27.944923400878906)
(Y_3 21.08678436279297))