((X_0  0.9382352828979492)
(X_1  0.9460784196853638)
(X_2  0.949999988079071)
(X_3  0.949999988079071)
(X_4  0.949999988079071)
(X_5  0.9460784196853638)
(X_6  0.9343137145042419)
(X_7  1.0264705419540405)
(X_8  1.006862759590149)
(X_9  0.9754902124404907)
(X_10  0.9245098233222961)
(X_11  0.8774510025978088)
(X_12  0.8343137502670288)
(X_13  0.779411792755127)
(X_14  0.6166666746139526)
(X_15  0.5735294222831726)
(X_16  0.45196080207824707)
(X_17  0.3970588147640228)
(X_18  0.31078431010246277)
(X_19  0.22843138873577118)
(X_20  0.16960784792900085)
(X_21  0.12647059559822083)
(X_22  0.09509804844856262)
(X_23  0.17549020051956177)
(X_24  0.05588235333561897)
(X_25  0.05980392172932625)
(X_26  0.05980392172932625)
(X_27  0.0519607849419117)
(X_28  0.8735294342041016)
(X_29  0.8421568870544434)
(X_30  0.679411768913269)
(X_31  0.7009804248809814)
(X_32  0.5186274647712708)
(X_33  0.44019606709480286)
(X_34  0.385294109582901)
(X_35  0.3539215624332428)
(X_36  0.3558823764324188)
(X_37  0.3284313976764679)
(X_38  0.29313725233078003)
(X_39  0.2696078419685364)
(X_40  0.25)
(X_41  0.22647058963775635)
(X_42  0.19509804248809814)
(X_43  0.16764706373214722)
(X_44  0.19901961088180542)
(X_45  0.08725491166114807)
(X_46  0.07549020648002625)
(X_47  0.1715686321258545)
(X_48  0.17549020051956177)
(X_49  0.1715686321258545)
(X_50  0.15980392694473267)
(X_51  0.14803922176361084)
(X_52  0.15196079015731812)
(X_53  0.1558823585510254)
(X_54  0.05588235333561897)
(X_55  0.04803921654820442)
(X_56  0.22254902124404907)
(X_57  0.21078431606292725)
(X_58  0.09509804844856262)
(X_59  0.0833333432674408)
(X_60  0.07941177487373352)
(X_61  0.0833333432674408)
(X_62  0.09509804844856262)
(X_63  0.10294118523597717)
(X_64  0.114705890417099)
(X_65  0.09509804844856262)
(X_66  0.17549020051956177)
(X_67  0.16764706373214722)
(X_68  0.1715686321258545)
(X_69  0.17549020051956177)
(X_70  0.1715686321258545)
(X_71  0.16372549533843994)
(X_72  0.12450980395078659)
(X_73  0.028431374579668045)
(X_74  0.036274511367082596)
(X_75  0.0519607849419117)
(X_76  0.06372549384832382)
(X_77  0.0676470622420311)
(X_78  0.15980392694473267)
(X_79  0.14803922176361084)
(X_80  0.13235294818878174)
(X_81  0.136274516582489)
(X_82  0.136274516582489)
(X_83  0.13235294818878174)
(X_84  0.0833333432674408)
(X_85  0.07549020648002625)
(X_86  0.05980392172932625)
(X_87  0.04803921654820442)
(X_88  0.14411765336990356)
(X_89  0.15196079015731812)
(X_90  0.16372549533843994)
(X_91  0.1715686321258545)
(X_92  0.14803922176361084)
(X_93  0.1401960849761963)
(X_94  0.12843137979507446)
(X_95  0.12843137979507446)
(X_96  0.036274511367082596)
(X_97  0.04411764815449715)
(X_98  0.04411764815449715)
(X_99  0.036274511367082596)
(X_100  0.07549020648002625)
(X_101  0.06372549384832382)
(X_102  0.0519607849419117)
(X_103  0.04411764815449715)
(X_104  0.136274516582489)
(X_105  0.13235294818878174)
(X_106  0.12843137979507446)
(X_107  0.12843137979507446)
(X_108  0.04019607976078987)
(X_109  0.04019607976078987)
(X_110  0.1401960849761963)
(X_111  0.136274516582489)
(X_112  0.12843137979507446)
(X_113  0.13235294818878174)
(X_114  0.13235294818878174)
(X_115  0.1401960849761963)
(X_116  0.14803922176361084)
(X_117  0.15980392694473267)
(X_118  0.16764706373214722)
(X_119  0.07549020648002625)
(X_120  0.14411765336990356)
(X_121  0.14411765336990356)
(X_122  0.14411765336990356)
(X_123  0.14411765336990356)
(X_124  0.14803922176361084)
(X_125  0.14411765336990356)
(X_126  0.036274511367082596)
(X_127  0.028431374579668045)
(X_128  0.03235294297337532)
(X_129  0.03235294297337532)
(X_130  0.028431374579668045)
(X_131  0.02450980618596077)
(X_132  0.02450980618596077)
(X_133  0.028431374579668045)
(X_134  0.03235294297337532)
(X_135  0.036274511367082596)
(X_136  0.1401960849761963)
(X_137  0.14803922176361084)
(X_138  0.15196079015731812)
(X_139  0.04803921654820442)
(X_140  0.1872549057006836)
(X_141  0.18333333730697632)
(X_142  0.07549020648002625)
(X_143  0.06372549384832382)
(X_144  0.15196079015731812)
(X_145  0.136274516582489)
(X_146  0.02450980618596077)
(X_147  0.01666666939854622)
(X_148  0.13235294818878174)
(X_149  0.036274511367082596)
(X_150  0.04411764815449715)
(X_151  0.14803922176361084)
(X_152  0.14803922176361084)
(X_153  0.1401960849761963)
(X_154  0.13235294818878174)
(X_155  0.12450980395078659)
(X_156  0.13235294818878174)
(X_157  0.04411764815449715)
(X_158  0.05588235333561897)
(X_159  0.05980392172932625)
(X_160  0.14803922176361084)
(X_161  0.136274516582489)
(X_162  0.13235294818878174)
(X_163  0.12843137979507446)
(X_164  0.11274509876966476)
(X_165  0.12450980395078659)
(X_166  0.136274516582489)
(X_167  0.1401960849761963)
(X_168  0.0009803927969187498)
(X_169  0.004901961423456669)
(X_170  0.012745101936161518)
(X_171  0.020588237792253494)
(X_172  0.03235294297337532)
(X_173  0.036274511367082596)
(X_174  0.1401960849761963)
(X_175  0.04411764815449715)
(X_176  0.01666666939854622)
(X_177  0.020588237792253494)
(X_178  0.12450980395078659)
(X_179  0.12843137979507446)
(X_180  0.12450980395078659)
(X_181  0.12450980395078659)
(X_182  0.12450980395078659)
(X_183  0.12843137979507446)
(X_184  0.04019607976078987)
(X_185  0.04411764815449715)
(X_186  0.04803921654820442)
(X_187  0.04019607976078987)
(X_188  0.12843137979507446)
(X_189  0.12058823555707932)
(X_190  0.12450980395078659)
(X_191  0.12843137979507446)
(X_192  0.0676470622420311)
(X_193  0.1872549057006836)
(X_194  0.21078431606292725)
(X_195  0.22647058963775635)
(X_196  0.14411765336990356)
(X_197  0.1401960849761963)
(X_198  0.136274516582489)
(X_199  0.13235294818878174)
(X_200  0.028431374579668045)
(X_201  0.03235294297337532)
(X_202  0.03235294297337532)
(X_203  0.036274511367082596)
(X_204  0.04411764815449715)
(X_205  0.04411764815449715)
(X_206  0.1401960849761963)
(X_207  0.13235294818878174)
(X_208  0.12843137979507446)
(X_209  0.13235294818878174)
(X_210  0.1401960849761963)
(X_211  0.15196079015731812)
(X_212  0.13235294818878174)
(X_213  0.13235294818878174)
(X_214  0.12843137979507446)
(X_215  0.12843137979507446)
(X_216  0.1401960849761963)
(X_217  0.07941177487373352)
(X_218  0.12647059559822083)
(X_219  0.16568627953529358)
(X_220  0.20490197837352753)
(X_221  0.22843138873577118)
(X_222  0.26372548937797546)
(X_223  0.2872548997402191)
(X_224  0.136274516582489)
(X_225  0.12843137979507446)
(X_226  0.02450980618596077)
(X_227  0.13235294818878174)
(X_228  0.04411764815449715)
(X_229  0.04803921654820442)
(X_230  0.036274511367082596)
(X_231  0.028431374579668045)
(X_232  0.136274516582489)
(X_233  0.14411765336990356)
(X_234  0.14803922176361084)
(X_235  0.1401960849761963)
(X_236  0.12450980395078659)
(X_237  0.11666666716337204)
(X_238  0.12450980395078659)
(X_239  0.136274516582489)
(X_240  0.13235294818878174)
(X_241  0.17941176891326904)
(X_242  0.25)
(X_243  0.21274511516094208)
(X_244  0.2598039209842682)
(X_245  0.2911764681339264)
(X_246  0.31470587849617004)
(X_247  0.4264706075191498)
(X_248  0.2911764681339264)
(X_249  0.27941176295280457)
(X_250  0.27156862616539)
(X_251  0.3754902184009552)
(X_252  0.16764706373214722)
(X_253  0.15980392694473267)
(X_254  0.0519607849419117)
(X_255  0.15196079015731812)
(X_256  0.1558823585510254)
(X_257  0.1558823585510254)
(X_258  0.14411765336990356)
(X_259  0.13235294818878174)
(X_260  0.0519607849419117)
(X_261  0.04019607976078987)
(X_262  0.02450980618596077)
(X_263  0.11274509876966476)
(X_264  0.11666666716337204)
(X_265  0.14411765336990356)
(X_266  0.1872549057006836)
(X_267  0.21470588445663452)
(X_268  0.2598039209842682)
(X_269  0.2872548997402191)
(X_270  0.31470587849617004)
(X_271  0.3225490152835846)
(X_272  0.3068627417087555)
(X_273  0.29509803652763367)
(X_274  0.29509803652763367)
(X_275  0.29901960492134094)
(X_276  0.2558823525905609)
(X_277  0.24803923070430756)
(X_278  0.240196093916893)
(X_279  0.3245098292827606)
(X_280  0.2911764681339264)
(X_281  0.28333333134651184)
(X_282  0.2754901945590973)
(X_283  0.27156862616539)
(X_284  0.3715686500072479)
(X_285  0.36764708161354065)
(X_286  0.3558823764324188)
(X_287  0.24803923070430756)
(X_288  0.22647058963775635)
(X_289  0.2029411792755127)
(X_290  0.17941176891326904)
(X_291  0.0833333432674408)
(X_292  0.23039215803146362)
(X_293  0.30490198731422424)
(X_294  0.3794117867946625)
(X_295  0.3225490152835846)
(X_296  0.2558823525905609)
(X_297  0.38333335518836975)
(X_298  0.4068627655506134)
(X_299  0.40294119715690613)
(X_300  0.3715686500072479)
(X_301  0.33235296607017517)
(X_302  0.2088235467672348)
(X_303  0.20098040997982025)
(X_304  0.23627452552318573)
(X_305  0.29901960492134094)
(X_306  0.385294109582901)
(X_307  0.4480392038822174)
(X_308  0.29509803652763367)
(X_309  0.2911764681339264)
(X_310  0.2872548997402191)
(X_311  0.28333333134651184)
(X_312  0.28333333134651184)
(X_313  0.28333333134651184)
(X_314  0.28333333134651184)
(X_315  0.38333335518836975)
(X_316  0.3343137204647064)
(X_317  0.2911764681339264)
(X_318  0.24411766231060028)
(X_319  0.21274511516094208)
(X_320  0.31666669249534607)
(X_321  0.33627453446388245)
(X_322  0.3558823764324188)
(X_323  0.36764708161354065)
(X_324  0.2598039209842682)
(X_325  0.3284313976764679)
(X_326  0.29313725233078003)
(X_327  0.18137255311012268)
(X_328  0.21666668355464935)
(X_329  0.2911764681339264)
(X_330  0.3735294044017792)
(X_331  0.42843136191368103)
(X_332  0.5362744927406311)
(X_333  0.5166666507720947)
(X_334  0.4735294282436371)
(X_335  0.41862747073173523)
(X_336  0.24411766231060028)
(X_337  0.3480392396450043)
(X_338  0.24803923070430756)
(X_339  0.35196080803871155)
(X_340  0.3558823764324188)
(X_341  0.3637255132198334)
(X_342  0.2754901945590973)
(X_343  0.28333333134651184)
(X_344  0.21666668355464935)
(X_345  0.21274511516094208)
(X_346  0.3127451241016388)
(X_347  0.3284313976764679)
(X_348  0.3558823764324188)
(X_349  0.3794117867946625)
(X_350  0.38333335518836975)
(X_351  0.27941176295280457)
(X_352  0.3499999940395355)
(X_353  0.36176469922065735)
(X_354  0.39313724637031555)
(X_355  0.4323529303073883)
(X_356  0.45588237047195435)
(X_357  0.42450979351997375)
(X_358  0.3578431308269501)
(X_359  0.40294119715690613)
(X_360  0.3598039448261261)
(X_361  0.2245098203420639)
(X_362  0.17352941632270813)
(X_363  0.24215686321258545)
(X_364  0.23627452552318573)
(X_365  0.240196093916893)
(X_366  0.24803923070430756)
(X_367  0.3480392396450043)
(X_368  0.35196080803871155)
(X_369  0.3598039448261261)
(X_370  0.3794117867946625)
(X_371  0.3911764919757843)
(X_372  0.3696078360080719)
(X_373  0.3892156779766083)
(X_374  0.520588219165802)
(X_375  0.5598039627075195)
(X_376  0.5911765098571777)
(X_377  0.6068627834320068)
(X_378  0.6029412150382996)
(X_379  0.5990196466445923)
(X_380  0.5872549414634705)
(X_381  0.4205882251262665)
(X_382  0.3343137204647064)
(X_383  0.27156862616539)
(X_384  0.344117671251297)
(X_385  0.22058825194835663)
(X_386  0.18921568989753723)
(X_387  0.16568627953529358)
(X_388  0.2029411792755127)
(X_389  0.2029411792755127)
(X_390  0.10686275362968445)
(X_391  0.22647058963775635)
(X_392  0.5029411911964417)
(X_393  0.5068627595901489)
(X_394  0.6068627834320068)
(X_395  0.6029412150382996)
(X_396  0.595098078250885)
(X_397  0.4990196228027344)
(X_398  0.5147058963775635)
(X_399  0.5264706015586853)
(X_400  0.5833333730697632)
(X_401  0.5715686678886414)
(X_402  0.5441176295280457)
(X_403  0.3970588147640228)
(X_404  0.3382352888584137)
(X_405  0.27941176295280457)
(X_406  0.3401961028575897)
(X_407  0.31666669249534607)
(X_408  0.1774509847164154)
(X_409  0.15784314274787903)
(X_410  0.13431373238563538)
(X_411  0.11862745881080627)
(X_412  0.11078432202339172)
(X_413  0.10686275362968445)
(X_414  0.2029411792755127)
(X_415  0.19901961088180542)
(X_416  0.15000000596046448)
(X_417  0.13431373238563538)
(X_418  0.11078432202339172)
(X_419  0.19901961088180542)
(X_420  0.240196093916893)
(X_421  0.3401961028575897)
(X_422  0.33627453446388245)
(X_423  0.32058826088905334)
(X_424  0.30490198731422424)
(X_425  0.30098041892051697)
(X_426  0.21274511516094208)
(X_427  0.2245098203420639)
(X_428  0.1460784375667572)
(X_429  0.15000000596046448)
(X_430  0.14215686917304993)
(X_431  0.22647058963775635)
(X_432  0.21470588445663452)
(X_433  0.2186274528503418)
(X_434  0.23823529481887817)
(X_435  0.25784313678741455)
(X_436  0.15392157435417175)
(X_437  0.15784314274787903)
(X_438  0.15392157435417175)
(X_439  0.13823530077934265)
(X_440  0.11862745881080627)
(X_441  0.11862745881080627)
(X_442  0.13823530077934265)
(X_443  0.1617647111415863)
(X_444  0.1558823585510254)
(X_445  0.1715686321258545)
(X_446  0.18333333730697632)
(X_447  0.17549020051956177)
(X_448  0.1931372582912445)
(X_449  0.29313725233078003)
(X_450  0.29313725233078003)
(X_451  0.29313725233078003)
(X_452  0.29313725233078003)
(X_453  0.28921568393707275)
(X_454  0.2852941155433655)
(X_455  0.18137255311012268)
(X_456  0.16568627953529358)
(X_457  0.16568627953529358)
(X_458  0.16960784792900085)
(X_459  0.16568627953529358)
(X_460  0.25784313678741455)
(X_461  0.24607843160629272)
(X_462  0.23039215803146362)
(X_463  0.22254902124404907)
(X_464  0.19509804248809814)
(X_465  0.1872549057006836)
(X_466  0.17941176891326904)
(X_467  0.07941177487373352)
(X_468  0.07941177487373352)
(X_469  0.07941177487373352)
(X_470  0.07156863063573837)
(X_471  0.06372549384832382)
(X_472  0.13235294818878174)
(X_473  0.13235294818878174)
(X_474  0.136274516582489)
(X_475  0.136274516582489)
(X_476  0.22254902124404907)
(X_477  0.12254902720451355)
(X_478  0.12647059559822083)
(X_479  0.12647059559822083)
(X_480  0.12254902720451355)
(X_481  0.2186274528503418)
(X_482  0.114705890417099)
(X_483  0.114705890417099)
(X_484  0.11078432202339172)
(X_485  0.11078432202339172)
(X_486  0.114705890417099)
(X_487  0.21470588445663452)
(X_488  0.20686274766921997)
(X_489  0.19509804248809814)
(X_490  0.18333333730697632)
(X_491  0.17549020051956177)
(X_492  0.15980392694473267)
(X_493  0.05588235333561897)
(X_494  0.04803921654820442)
(X_495  0.04803921654820442)
(X_496  0.04803921654820442)
(X_497  0.14803922176361084)
(X_498  0.1401960849761963)
(X_499  0.136274516582489)
(X_500  0.01666666939854622)
(X_501  0.11666666716337204)
(X_502  0.11666666716337204)
(X_503  0.12058823555707932)
(X_504  0.0676470622420311)
(X_505  0.16764706373214722)
(X_506  0.1715686321258545)
(X_507  0.1715686321258545)
(X_508  0.07156863063573837)
(X_509  0.0676470622420311)
(X_510  0.06372549384832382)
(X_511  0.05980392172932625)
(X_512  0.04803921654820442)
(X_513  0.0519607849419117)
(X_514  0.05588235333561897)
(X_515  0.05588235333561897)
(X_516  0.15196079015731812)
(X_517  0.14411765336990356)
(X_518  0.136274516582489)
(X_519  0.13235294818878174)
(X_520  0.13235294818878174)
(X_521  0.12450980395078659)
(X_522  0.020588237792253494)
(X_523  0.020588237792253494)
(X_524  0.02450980618596077)
(X_525  0.020588237792253494)
(X_526  0.01666666939854622)
(X_527  0.008823529817163944)
(X_528  0.004901961423456669)
(X_529  0.10490196198225021)
(X_530  0.10882353037595749)
(X_531  0.10882353037595749)
(X_532  0.036274511367082596)
(X_533  0.04019607976078987)
(X_534  0.04019607976078987)
(X_535  0.04411764815449715)
(X_536  0.1401960849761963)
(X_537  0.1401960849761963)
(X_538  0.136274516582489)
(X_539  0.036274511367082596)
(X_540  0.11666666716337204)
(X_541  0.020588237792253494)
(X_542  0.02450980618596077)
(X_543  0.12450980395078659)
(X_544  0.12450980395078659)
(X_545  0.12450980395078659)
(X_546  0.12058823555707932)
(X_547  0.11666666716337204)
(X_548  0.12450980395078659)
(X_549  0.12058823555707932)
(X_550  0.11274509876966476)
(X_551  0.012745101936161518)
(X_552  0.01666666939854622)
(X_553  0.01666666939854622)
(X_554  0.11274509876966476)
(X_555  0.10490196198225021)
(X_556  0.012745101936161518)
(X_557  0.012745101936161518)
(X_558  0.012745101936161518)
(X_559  0.012745101936161518)
(X_560  0.004901961423456669)
(X_561  0.10882353037595749)
(X_562  0.11274509876966476)
(X_563  0.11274509876966476)
(X_564  0.11274509876966476)
(X_565  0.012745101936161518)
(X_566  0.008823529817163944)
(X_567  0.008823529817163944)
(X_568  0.10490196198225021)
(X_569  0.008823529817163944)
(X_570  0.012745101936161518)
(X_571  0.11274509876966476)
(X_572  0.11666666716337204)
(X_573  0.11666666716337204)
(X_574  0.11666666716337204)
(X_575  0.11666666716337204)
(X_576  0.02450980618596077)
(X_577  0.11666666716337204)
(X_578  0.11274509876966476)
(X_579  0.012745101936161518)
(X_580  0.11666666716337204)
(X_581  0.12058823555707932)
(X_582  0.012745101936161518)
(X_583  0.008823529817163944)
(X_584  0.012745101936161518)
(X_585  0.11274509876966476)
(X_586  0.11274509876966476)
(X_587  0.11274509876966476)
(X_588  -0.0029411755967885256)
(X_589  0.10098039358854294)
(X_590  0.10490196198225021)
(X_591  0.10882353037595749)
(X_592  0.008823529817163944)
(X_593  0.008823529817163944)
(X_594  0.004901961423456669)
(X_595  0.004901961423456669)
(X_596  0.0009803927969187498)
(X_597  0.0009803927969187498)
(X_598  0.004901961423456669)
(X_599  0.10490196198225021)
(X_600  0.10882353037595749)
(X_601  0.10882353037595749)
(X_602  0.10882353037595749)
(X_603  0.11274509876966476)
(X_604  0.012745101936161518)
(X_605  0.008823529817163944)
(X_606  0.0009803927969187498)
(X_607  0.004901961423456669)
(X_608  0.10882353037595749)
(X_609  0.11274509876966476)
(X_610  0.008823529817163944)
(X_611  0.0009803927969187498)
(X_612  0.10882353037595749)
(X_613  0.10882353037595749)
(X_614  0.10490196198225021)
(X_615  0.10490196198225021)
(X_616  0.004901961423456669)
(X_617  0.10490196198225021)
(X_618  0.10882353037595749)
(X_619  0.11274509876966476)
(X_620  0.11666666716337204)
(X_621  0.01666666939854622)
(X_622  0.012745101936161518)
(X_623  0.012745101936161518)
(X_624  0.10098039358854294)
(X_625  0.10098039358854294)
(X_626  0.10098039358854294)
(X_627  0.0009803927969187498)
(X_628  0.10098039358854294)
(X_629  0.10490196198225021)
(X_630  0.10882353037595749)
(X_631  0.10882353037595749)
(X_632  0.008823529817163944)
(X_633  0.0009803927969187498)
(X_634  0.09705882519483566)
(X_635  0.10098039358854294)
(X_636  0.10490196198225021)
(X_637  0.008823529817163944)
(X_638  0.10490196198225021)
(X_639  0.10098039358854294)
(X_640  0.10490196198225021)
(X_641  0.10490196198225021)
(X_642  0.10490196198225021)
(X_643  0.10098039358854294)
(X_644  0.09313725680112839)
(X_645  0.09705882519483566)
(X_646  0.0009803927969187498)
(X_647  0.004901961423456669)
(X_648  0.004901961423456669)
(X_649  0.004901961423456669)
(X_650  0.004901961423456669)
(X_651  0.004901961423456669)
(X_652  0.008823529817163944)
(X_653  0.008823529817163944)
(X_654  0.004901961423456669)
(X_655  0.004901961423456669)
(X_656  0.10490196198225021)
(X_657  0.10490196198225021)
(X_658  0.10882353037595749)
(X_659  0.10882353037595749)
(X_660  0.10882353037595749)
(X_661  0.004901961423456669)
(X_662  0.0009803927969187498)
(X_663  0.0009803927969187498)
(X_664  0.008823529817163944)
(X_665  0.012745101936161518)
(X_666  0.008823529817163944)
(X_667  0.0009803927969187498)
(X_668  0.012745101936161518)
(X_669  0.008823529817163944)
(X_670  0.008823529817163944)
(X_671  0.10490196198225021)
(X_672  0.0009803927969187498)
(X_673  0.10098039358854294)
(X_674  0.10098039358854294)
(X_675  0.10098039358854294)
(X_676  0.10098039358854294)
(X_677  0.10098039358854294)
(X_678  0.10098039358854294)
(X_679  0.10098039358854294)
(X_680  0.09313725680112839)
(X_681  0.09705882519483566)
(X_682  0.09705882519483566)
(X_683  0.10098039358854294)
(X_684  0.10098039358854294)
(X_685  0.09705882519483566)
(X_686  0.09705882519483566)
(X_687  0.09313725680112839)
(X_688  0.0009803927969187498)
(X_689  0.09705882519483566)
(X_690  0.09313725680112839)
(X_691  0.09313725680112839)
(X_692  0.09705882519483566)
(X_693  0.10098039358854294)
(X_694  0.09705882519483566)
(X_695  -0.006862743757665157)
(X_696  0.09705882519483566)
(X_697  -0.0029411755967885256)
(X_698  -0.010784312151372433)
(X_699  0.08529412001371384)
(X_700  0.10098039358854294)
(X_701  0.10098039358854294)
(X_702  0.10098039358854294)
(X_703  0.10098039358854294)
(X_704  0.10098039358854294)
(X_705  0.0009803927969187498)
(X_706  0.0009803927969187498)
(X_707  0.0009803927969187498)
(X_708  -0.006862743757665157)
(X_709  -0.0029411755967885256)
(X_710  -0.0029411755967885256)
(X_711  0.0009803927969187498)
(X_712  0.0009803927969187498)
(X_713  0.09705882519483566)
(X_714  0.09705882519483566)
(X_715  0.09313725680112839)
(X_716  0.0009803927969187498)
(X_717  -0.0029411755967885256)
(X_718  -0.006862743757665157)
(X_719  -0.006862743757665157)
(X_720  -0.0029411755967885256)
(X_721  -0.0029411755967885256)
(X_722  -0.0029411755967885256)
(X_723  -0.0029411755967885256)
(X_724  -0.006862743757665157)
(X_725  -0.0029411755967885256)
(X_726  0.0009803927969187498)
(X_727  0.0009803927969187498)
(X_728  0.0009803927969187498)
(X_729  0.10098039358854294)
(X_730  0.0009803927969187498)
(X_731  0.10098039358854294)
(X_732  0.10098039358854294)
(X_733  0.10098039358854294)
(X_734  0.10098039358854294)
(X_735  0.10098039358854294)
(X_736  -0.006862743757665157)
(X_737  -0.0029411755967885256)
(X_738  0.09705882519483566)
(X_739  0.10098039358854294)
(X_740  0.10098039358854294)
(X_741  0.09705882519483566)
(X_742  0.09705882519483566)
(X_743  0.09313725680112839)
(X_744  0.09705882519483566)
(X_745  0.09705882519483566)
(X_746  -0.0029411755967885256)
(X_747  -0.006862743757665157)
(X_748  -0.006862743757665157)
(X_749  0.09705882519483566)
(X_750  0.09705882519483566)
(X_751  0.0009803927969187498)
(X_752  0.053921569138765335)
(X_753  -0.026470588520169258)
(X_754  0.0009803927969187498)
(X_755  0.11666666716337204)
(X_756  0.0009803927969187498)
(X_757  0.0009803927969187498)
(X_758  0.0009803927969187498)
(X_759  0.0009803927969187498)
(X_760  0.10098039358854294)
(X_761  0.10098039358854294)
(X_762  0.10098039358854294)
(X_763  0.10098039358854294)
(X_764  0.09313725680112839)
(X_765  0.09705882519483566)
(X_766  0.09705882519483566)
(X_767  0.10098039358854294)
(X_768  0.10098039358854294)
(X_769  0.09705882519483566)
(X_770  0.09705882519483566)
(X_771  0.09313725680112839)
(X_772  0.09705882519483566)
(X_773  -0.0029411755967885256)
(X_774  -0.0029411755967885256)
(X_775  -0.006862743757665157)
(X_776  -0.010784312151372433)
(X_777  -0.006862743757665157)
(X_778  0.10098039358854294)
(X_779  0.10882353037595749)
(X_780  0.19509804248809814)
(X_781  0.13823530077934265)
(X_782  0.1931372582912445)
(X_783  0.33627453446388245)
(Y_0 49.941898345947266)
(Y_1 -10.34684944152832)
(Y_2 15.483052253723145)
(Y_3 -52.551326751708984))