((X_0  0.10686275362968445)
(X_1  0.10686275362968445)
(X_2  0.10294118523597717)
(X_3  0.0990196168422699)
(X_4  0.09117648005485535)
(X_5  0.09117648005485535)
(X_6  0.19509804248809814)
(X_7  0.2029411792755127)
(X_8  0.19509804248809814)
(X_9  0.19509804248809814)
(X_10  0.2029411792755127)
(X_11  0.21078431606292725)
(X_12  0.21470588445663452)
(X_13  0.20686274766921997)
(X_14  0.08725491166114807)
(X_15  0.07156863063573837)
(X_16  0.0676470622420311)
(X_17  0.07941177487373352)
(X_18  0.09117648005485535)
(X_19  0.0990196168422699)
(X_20  0.10294118523597717)
(X_21  0.0990196168422699)
(X_22  0.09117648005485535)
(X_23  0.1872549057006836)
(X_24  0.07549020648002625)
(X_25  0.07941177487373352)
(X_26  0.0833333432674408)
(X_27  0.09117648005485535)
(X_28  0.1872549057006836)
(X_29  0.19117647409439087)
(X_30  0.19509804248809814)
(X_31  0.19509804248809814)
(X_32  0.09117648005485535)
(X_33  0.08725491166114807)
(X_34  0.08725491166114807)
(X_35  0.08725491166114807)
(X_36  0.18333333730697632)
(X_37  0.17941176891326904)
(X_38  0.17941176891326904)
(X_39  0.18333333730697632)
(X_40  0.1872549057006836)
(X_41  0.1872549057006836)
(X_42  0.17941176891326904)
(X_43  0.1715686321258545)
(X_44  0.1715686321258545)
(X_45  0.07156863063573837)
(X_46  0.07549020648002625)
(X_47  0.07549020648002625)
(X_48  0.07549020648002625)
(X_49  0.07549020648002625)
(X_50  0.07549020648002625)
(X_51  0.17549020051956177)
(X_52  0.1715686321258545)
(X_53  0.07156863063573837)
(X_54  0.07549020648002625)
(X_55  0.07549020648002625)
(X_56  0.0833333432674408)
(X_57  0.08725491166114807)
(X_58  0.09117648005485535)
(X_59  0.19117647409439087)
(X_60  0.19117647409439087)
(X_61  0.0833333432674408)
(X_62  0.07549020648002625)
(X_63  0.07156863063573837)
(X_64  0.07549020648002625)
(X_65  0.0676470622420311)
(X_66  0.15980392694473267)
(X_67  0.15980392694473267)
(X_68  0.16764706373214722)
(X_69  0.1715686321258545)
(X_70  0.17549020051956177)
(X_71  0.1715686321258545)
(X_72  0.07549020648002625)
(X_73  0.07156863063573837)
(X_74  0.06372549384832382)
(X_75  0.05980392172932625)
(X_76  0.05980392172932625)
(X_77  0.0676470622420311)
(X_78  0.17549020051956177)
(X_79  0.18333333730697632)
(X_80  0.1715686321258545)
(X_81  0.17549020051956177)
(X_82  0.17941176891326904)
(X_83  0.17941176891326904)
(X_84  0.06372549384832382)
(X_85  0.05980392172932625)
(X_86  0.05588235333561897)
(X_87  0.05588235333561897)
(X_88  0.15980392694473267)
(X_89  0.15980392694473267)
(X_90  0.1558823585510254)
(X_91  0.15196079015731812)
(X_92  0.16764706373214722)
(X_93  0.15980392694473267)
(X_94  0.1558823585510254)
(X_95  0.1558823585510254)
(X_96  0.16764706373214722)
(X_97  0.1715686321258545)
(X_98  0.17549020051956177)
(X_99  0.07156863063573837)
(X_100  0.16764706373214722)
(X_101  0.16372549533843994)
(X_102  0.06372549384832382)
(X_103  0.06372549384832382)
(X_104  0.0676470622420311)
(X_105  0.17941176891326904)
(X_106  0.1872549057006836)
(X_107  0.19509804248809814)
(X_108  0.036274511367082596)
(X_109  0.04411764815449715)
(X_110  0.0519607849419117)
(X_111  0.05980392172932625)
(X_112  0.16764706373214722)
(X_113  0.15980392694473267)
(X_114  0.15196079015731812)
(X_115  0.05588235333561897)
(X_116  0.07156863063573837)
(X_117  0.0833333432674408)
(X_118  0.1872549057006836)
(X_119  0.08725491166114807)
(X_120  0.0519607849419117)
(X_121  0.0519607849419117)
(X_122  0.0519607849419117)
(X_123  0.05980392172932625)
(X_124  0.16764706373214722)
(X_125  0.1715686321258545)
(X_126  0.16372549533843994)
(X_127  0.1558823585510254)
(X_128  0.0519607849419117)
(X_129  0.1558823585510254)
(X_130  0.05980392172932625)
(X_131  0.05980392172932625)
(X_132  0.06372549384832382)
(X_133  0.06372549384832382)
(X_134  0.06372549384832382)
(X_135  0.06372549384832382)
(X_136  0.14803922176361084)
(X_137  0.15196079015731812)
(X_138  0.15980392694473267)
(X_139  0.16764706373214722)
(X_140  0.1401960849761963)
(X_141  0.12843137979507446)
(X_142  0.12058823555707932)
(X_143  0.12450980395078659)
(X_144  0.04411764815449715)
(X_145  0.05588235333561897)
(X_146  0.05588235333561897)
(X_147  0.04803921654820442)
(X_148  0.14411765336990356)
(X_149  0.14411765336990356)
(X_150  0.04411764815449715)
(X_151  0.15196079015731812)
(X_152  0.15980392694473267)
(X_153  0.15980392694473267)
(X_154  0.0519607849419117)
(X_155  0.04019607976078987)
(X_156  0.14803922176361084)
(X_157  0.15196079015731812)
(X_158  0.15196079015731812)
(X_159  0.04803921654820442)
(X_160  0.04803921654820442)
(X_161  0.14411765336990356)
(X_162  0.136274516582489)
(X_163  0.136274516582489)
(X_164  0.136274516582489)
(X_165  0.136274516582489)
(X_166  0.136274516582489)
(X_167  0.1401960849761963)
(X_168  0.114705890417099)
(X_169  0.2029411792755127)
(X_170  0.08725491166114807)
(X_171  0.0833333432674408)
(X_172  0.0833333432674408)
(X_173  0.0676470622420311)
(X_174  0.136274516582489)
(X_175  0.11274509876966476)
(X_176  0.06372549384832382)
(X_177  0.1558823585510254)
(X_178  0.14803922176361084)
(X_179  0.14803922176361084)
(X_180  0.15196079015731812)
(X_181  0.1558823585510254)
(X_182  0.15196079015731812)
(X_183  0.14803922176361084)
(X_184  0.06372549384832382)
(X_185  0.05980392172932625)
(X_186  0.05588235333561897)
(X_187  0.05588235333561897)
(X_188  0.05588235333561897)
(X_189  0.06372549384832382)
(X_190  0.1715686321258545)
(X_191  0.17549020051956177)
(X_192  0.15196079015731812)
(X_193  0.15196079015731812)
(X_194  0.15196079015731812)
(X_195  0.14803922176361084)
(X_196  0.5009803771972656)
(X_197  0.48137256503105164)
(X_198  0.46176472306251526)
(X_199  0.4421568810939789)
(X_200  0.3186274468898773)
(X_201  0.27156862616539)
(X_202  0.21274511516094208)
(X_203  0.16568627953529358)
(X_204  0.09117648005485535)
(X_205  0.07549020648002625)
(X_206  0.05588235333561897)
(X_207  0.04803921654820442)
(X_208  0.0519607849419117)
(X_209  0.05980392172932625)
(X_210  0.0676470622420311)
(X_211  0.16764706373214722)
(X_212  0.17941176891326904)
(X_213  0.17549020051956177)
(X_214  0.1715686321258545)
(X_215  0.07156863063573837)
(X_216  0.1872549057006836)
(X_217  0.21078431606292725)
(X_218  0.2343137264251709)
(X_219  0.25)
(X_220  0.22058825194835663)
(X_221  0.32058826088905334)
(X_222  0.2245098203420639)
(X_223  0.22843138873577118)
(X_224  0.48137256503105164)
(X_225  0.3735294044017792)
(X_226  0.385294109582901)
(X_227  0.4049019515514374)
(X_228  0.3970588147640228)
(X_229  0.3696078360080719)
(X_230  0.36176469922065735)
(X_231  0.47745099663734436)
(X_232  0.3911764919757843)
(X_233  0.3284313976764679)
(X_234  0.24215686321258545)
(X_235  0.1715686321258545)
(X_236  0.14411765336990356)
(X_237  0.14803922176361084)
(X_238  0.15980392694473267)
(X_239  0.16764706373214722)
(X_240  0.1303921639919281)
(X_241  0.24607843160629272)
(X_242  0.2970588207244873)
(X_243  0.26764705777168274)
(X_244  0.31470587849617004)
(X_245  0.3382352888584137)
(X_246  0.3539215624332428)
(X_247  0.3735294044017792)
(X_248  0.4852941334247589)
(X_249  0.48137256503105164)
(X_250  0.37745097279548645)
(X_251  0.4696078598499298)
(X_252  0.4107843339443207)
(X_253  0.39901962876319885)
(X_254  0.3029411733150482)
(X_255  0.41470590233802795)
(X_256  0.4107843339443207)
(X_257  0.39901962876319885)
(X_258  0.4068627655506134)
(X_259  0.4264706075191498)
(X_260  0.43039217591285706)
(X_261  0.3950980603694916)
(X_262  0.3480392396450043)
(X_263  0.3088235557079315)
(X_264  0.29313725233078003)
(X_265  0.29313725233078003)
(X_266  0.20490197837352753)
(X_267  0.21274511516094208)
(X_268  0.26764705777168274)
(X_269  0.2598039209842682)
(X_270  0.27156862616539)
(X_271  0.3029411733150482)
(X_272  0.3186274468898773)
(X_273  0.31078431010246277)
(X_274  0.3029411733150482)
(X_275  0.3029411733150482)
(X_276  0.31078431010246277)
(X_277  0.3068627417087555)
(X_278  0.4068627655506134)
(X_279  0.40294119715690613)
(X_280  0.23235295712947845)
(X_281  0.22058825194835663)
(X_282  0.21274511516094208)
(X_283  0.21666668355464935)
(X_284  0.21274511516094208)
(X_285  0.31666669249534607)
(X_286  0.33627453446388245)
(X_287  0.26372548937797546)
(X_288  0.32058826088905334)
(X_289  0.31666669249534607)
(X_290  0.3088235557079315)
(X_291  0.29313725233078003)
(X_292  0.2774509787559509)
(X_293  0.2696078419685364)
(X_294  0.2696078419685364)
(X_295  0.27352941036224365)
(X_296  0.33627453446388245)
(X_297  0.3127451241016388)
(X_298  0.20490197837352753)
(X_299  0.23235295712947845)
(X_300  0.2558823525905609)
(X_301  0.3558823764324188)
(X_302  0.24803923070430756)
(X_303  0.24411766231060028)
(X_304  0.33627453446388245)
(X_305  0.33235296607017517)
(X_306  0.22843138873577118)
(X_307  0.22843138873577118)
(X_308  0.5617647171020508)
(X_309  0.5421568751335144)
(X_310  0.5068627595901489)
(X_311  0.46764707565307617)
(X_312  0.42843136191368103)
(X_313  0.4009803831577301)
(X_314  0.39313724637031555)
(X_315  0.3970588147640228)
(X_316  0.3735294044017792)
(X_317  0.385294109582901)
(X_318  0.39313724637031555)
(X_319  0.3813725411891937)
(X_320  0.3578431308269501)
(X_321  0.4382353127002716)
(X_322  0.43039217591285706)
(X_323  0.43039217591285706)
(X_324  0.3029411733150482)
(X_325  0.2558823525905609)
(X_326  0.2245098203420639)
(X_327  0.2245098203420639)
(X_328  0.23627452552318573)
(X_329  0.22058825194835663)
(X_330  0.20098040997982025)
(X_331  0.2852941155433655)
(X_332  0.3245098292827606)
(X_333  0.32058826088905334)
(X_334  0.21666668355464935)
(X_335  0.3127451241016388)
(X_336  0.3696078360080719)
(X_337  0.4892157018184662)
(X_338  0.5166666507720947)
(X_339  0.44411763548851013)
(X_340  0.5754902362823486)
(X_341  0.6147059202194214)
(X_342  0.550000011920929)
(X_343  0.5696078538894653)
(X_344  0.665686309337616)
(X_345  0.5774509906768799)
(X_346  0.5892156958580017)
(X_347  0.5813725590705872)
(X_348  0.665686309337616)
(X_349  0.6539216041564941)
(X_350  0.6539216041564941)
(X_351  0.5617647171020508)
(X_352  0.5892156958580017)
(X_353  0.5460784435272217)
(X_354  0.5186274647712708)
(X_355  0.5303921699523926)
(X_356  0.550000011920929)
(X_357  0.5460784435272217)
(X_358  0.5303921699523926)
(X_359  0.6225490570068359)
(X_360  0.665686309337616)
(X_361  0.6617647409439087)
(X_362  0.6500000357627869)
(X_363  0.6421568989753723)
(X_364  0.14215686917304993)
(X_365  0.1617647111415863)
(X_366  0.1774509847164154)
(X_367  0.1774509847164154)
(X_368  0.2852941155433655)
(X_369  0.30098041892051697)
(X_370  0.3088235557079315)
(X_371  0.30490198731422424)
(X_372  0.22843138873577118)
(X_373  0.23235295712947845)
(X_374  0.240196093916893)
(X_375  0.344117671251297)
(X_376  0.35196080803871155)
(X_377  0.3598039448261261)
(X_378  0.3715686500072479)
(X_379  0.38333335518836975)
(X_380  0.3911764919757843)
(X_381  0.36764708161354065)
(X_382  0.3715686500072479)
(X_383  0.4068627655506134)
(X_384  0.4421568810939789)
(X_385  0.3539215624332428)
(X_386  0.3539215624332428)
(X_387  0.3578431308269501)
(X_388  0.457843154668808)
(X_389  0.4539215862751007)
(X_390  0.44607844948768616)
(X_391  0.43431374430656433)
(X_392  0.07156863063573837)
(X_393  0.0990196168422699)
(X_394  0.21470588445663452)
(X_395  0.21078431606292725)
(X_396  0.2186274528503418)
(X_397  0.24215686321258545)
(X_398  0.2539215683937073)
(X_399  0.25)
(X_400  0.21470588445663452)
(X_401  0.20686274766921997)
(X_402  0.2029411792755127)
(X_403  0.21078431606292725)
(X_404  0.22254902124404907)
(X_405  0.13823530077934265)
(X_406  0.24607843160629272)
(X_407  0.25)
(X_408  0.1774509847164154)
(X_409  0.1617647111415863)
(X_410  0.1617647111415863)
(X_411  0.17352941632270813)
(X_412  0.17352941632270813)
(X_413  0.25)
(X_414  0.22647058963775635)
(X_415  0.22254902124404907)
(X_416  0.15392157435417175)
(X_417  0.15000000596046448)
(X_418  0.24607843160629272)
(X_419  0.24215686321258545)
(X_420  0.03235294297337532)
(X_421  0.0519607849419117)
(X_422  0.05980392172932625)
(X_423  0.1401960849761963)
(X_424  0.14411765336990356)
(X_425  0.16764706373214722)
(X_426  0.17941176891326904)
(X_427  0.07156863063573837)
(X_428  0.0990196168422699)
(X_429  0.17941176891326904)
(X_430  0.16372549533843994)
(X_431  0.15980392694473267)
(X_432  0.16764706373214722)
(X_433  0.1715686321258545)
(X_434  0.16372549533843994)
(X_435  0.0519607849419117)
(X_436  0.05980392172932625)
(X_437  0.05980392172932625)
(X_438  0.07549020648002625)
(X_439  0.09509804844856262)
(X_440  0.09509804844856262)
(X_441  0.07156863063573837)
(X_442  0.0519607849419117)
(X_443  0.0519607849419117)
(X_444  0.19509804248809814)
(X_445  0.19117647409439087)
(X_446  0.19117647409439087)
(X_447  0.19117647409439087)
(X_448  0.04019607976078987)
(X_449  0.1401960849761963)
(X_450  0.14411765336990356)
(X_451  0.14411765336990356)
(X_452  0.04411764815449715)
(X_453  0.04803921654820442)
(X_454  0.14803922176361084)
(X_455  0.04803921654820442)
(X_456  0.03235294297337532)
(X_457  0.036274511367082596)
(X_458  0.1401960849761963)
(X_459  0.14411765336990356)
(X_460  0.14411765336990356)
(X_461  0.14411765336990356)
(X_462  0.14411765336990356)
(X_463  0.14411765336990356)
(X_464  0.136274516582489)
(X_465  0.136274516582489)
(X_466  0.04019607976078987)
(X_467  0.04411764815449715)
(X_468  0.04803921654820442)
(X_469  0.0519607849419117)
(X_470  0.0519607849419117)
(X_471  0.05588235333561897)
(X_472  0.14411765336990356)
(X_473  0.04411764815449715)
(X_474  0.04411764815449715)
(X_475  0.14411765336990356)
(X_476  0.03235294297337532)
(X_477  0.03235294297337532)
(X_478  0.036274511367082596)
(X_479  0.036274511367082596)
(X_480  0.036274511367082596)
(X_481  0.04019607976078987)
(X_482  0.04019607976078987)
(X_483  0.04019607976078987)
(X_484  0.02450980618596077)
(X_485  0.028431374579668045)
(X_486  0.028431374579668045)
(X_487  0.13235294818878174)
(X_488  0.136274516582489)
(X_489  0.136274516582489)
(X_490  0.13235294818878174)
(X_491  0.13235294818878174)
(X_492  0.12843137979507446)
(X_493  0.13235294818878174)
(X_494  0.03235294297337532)
(X_495  0.036274511367082596)
(X_496  0.136274516582489)
(X_497  0.1401960849761963)
(X_498  0.04411764815449715)
(X_499  0.04411764815449715)
(X_500  0.036274511367082596)
(X_501  0.036274511367082596)
(X_502  0.036274511367082596)
(X_503  0.136274516582489)
(X_504  0.02450980618596077)
(X_505  0.12450980395078659)
(X_506  0.12450980395078659)
(X_507  0.12843137979507446)
(X_508  0.12843137979507446)
(X_509  0.028431374579668045)
(X_510  0.03235294297337532)
(X_511  0.03235294297337532)
(X_512  0.11274509876966476)
(X_513  0.012745101936161518)
(X_514  0.01666666939854622)
(X_515  0.12058823555707932)
(X_516  0.12450980395078659)
(X_517  0.12450980395078659)
(X_518  0.12058823555707932)
(X_519  0.12058823555707932)
(X_520  0.12450980395078659)
(X_521  0.12450980395078659)
(X_522  0.02450980618596077)
(X_523  0.028431374579668045)
(X_524  0.028431374579668045)
(X_525  0.028431374579668045)
(X_526  0.028431374579668045)
(X_527  0.028431374579668045)
(X_528  0.028431374579668045)
(X_529  0.028431374579668045)
(X_530  0.028431374579668045)
(X_531  0.12843137979507446)
(X_532  0.01666666939854622)
(X_533  0.11666666716337204)
(X_534  0.020588237792253494)
(X_535  0.020588237792253494)
(X_536  0.02450980618596077)
(X_537  0.02450980618596077)
(X_538  0.02450980618596077)
(X_539  0.02450980618596077)
(X_540  0.10490196198225021)
(X_541  0.008823529817163944)
(X_542  0.11274509876966476)
(X_543  0.11666666716337204)
(X_544  0.11666666716337204)
(X_545  0.01666666939854622)
(X_546  0.01666666939854622)
(X_547  0.11274509876966476)
(X_548  0.12450980395078659)
(X_549  0.12450980395078659)
(X_550  0.02450980618596077)
(X_551  0.020588237792253494)
(X_552  0.020588237792253494)
(X_553  0.020588237792253494)
(X_554  0.020588237792253494)
(X_555  0.020588237792253494)
(X_556  0.12058823555707932)
(X_557  0.12058823555707932)
(X_558  0.020588237792253494)
(X_559  0.020588237792253494)
(X_560  0.01666666939854622)
(X_561  0.01666666939854622)
(X_562  0.01666666939854622)
(X_563  0.01666666939854622)
(X_564  0.020588237792253494)
(X_565  0.020588237792253494)
(X_566  0.02450980618596077)
(X_567  0.02450980618596077)
(X_568  0.004901961423456669)
(X_569  0.004901961423456669)
(X_570  0.008823529817163944)
(X_571  0.012745101936161518)
(X_572  0.11666666716337204)
(X_573  0.11666666716337204)
(X_574  0.012745101936161518)
(X_575  0.012745101936161518)
(X_576  0.020588237792253494)
(X_577  0.12058823555707932)
(X_578  0.020588237792253494)
(X_579  0.020588237792253494)
(X_580  0.020588237792253494)
(X_581  0.01666666939854622)
(X_582  0.01666666939854622)
(X_583  0.01666666939854622)
(X_584  0.020588237792253494)
(X_585  0.12058823555707932)
(X_586  0.020588237792253494)
(X_587  0.12058823555707932)
(X_588  0.10882353037595749)
(X_589  0.10882353037595749)
(X_590  0.012745101936161518)
(X_591  0.012745101936161518)
(X_592  0.012745101936161518)
(X_593  0.01666666939854622)
(X_594  0.01666666939854622)
(X_595  0.01666666939854622)
(X_596  0.004901961423456669)
(X_597  0.004901961423456669)
(X_598  0.008823529817163944)
(X_599  0.11274509876966476)
(X_600  0.11274509876966476)
(X_601  0.11274509876966476)
(X_602  0.11274509876966476)
(X_603  0.11274509876966476)
(X_604  0.11274509876966476)
(X_605  0.012745101936161518)
(X_606  0.012745101936161518)
(X_607  0.11274509876966476)
(X_608  0.11274509876966476)
(X_609  0.11666666716337204)
(X_610  0.01666666939854622)
(X_611  0.01666666939854622)
(X_612  0.012745101936161518)
(X_613  0.11274509876966476)
(X_614  0.11274509876966476)
(X_615  0.11274509876966476)
(X_616  0.0009803927969187498)
(X_617  0.10098039358854294)
(X_618  0.10098039358854294)
(X_619  0.10490196198225021)
(X_620  0.10490196198225021)
(X_621  0.004901961423456669)
(X_622  0.008823529817163944)
(X_623  0.008823529817163944)
(X_624  0.09705882519483566)
(X_625  0.10098039358854294)
(X_626  0.10490196198225021)
(X_627  0.008823529817163944)
(X_628  0.008823529817163944)
(X_629  0.10882353037595749)
(X_630  0.10882353037595749)
(X_631  0.10490196198225021)
(X_632  0.09705882519483566)
(X_633  0.09705882519483566)
(X_634  0.10098039358854294)
(X_635  0.10490196198225021)
(X_636  0.10490196198225021)
(X_637  0.10882353037595749)
(X_638  0.10882353037595749)
(X_639  0.11274509876966476)
(X_640  0.10490196198225021)
(X_641  0.10490196198225021)
(X_642  0.10490196198225021)
(X_643  0.10490196198225021)
(X_644  0.09313725680112839)
(X_645  0.09313725680112839)
(X_646  -0.006862743757665157)
(X_647  -0.0029411755967885256)
(X_648  -0.0029411755967885256)
(X_649  -0.0029411755967885256)
(X_650  0.10098039358854294)
(X_651  0.0009803927969187498)
(X_652  -0.006862743757665157)
(X_653  -0.0029411755967885256)
(X_654  0.0009803927969187498)
(X_655  0.004901961423456669)
(X_656  0.10490196198225021)
(X_657  0.10490196198225021)
(X_658  0.10098039358854294)
(X_659  0.10098039358854294)
(X_660  0.08529412001371384)
(X_661  0.08921568840742111)
(X_662  -0.010784312151372433)
(X_663  -0.006862743757665157)
(X_664  -0.0029411755967885256)
(X_665  0.0009803927969187498)
(X_666  0.004901961423456669)
(X_667  0.004901961423456669)
(X_668  -0.0029411755967885256)
(X_669  -0.0029411755967885256)
(X_670  -0.0029411755967885256)
(X_671  0.09705882519483566)
(X_672  -0.010784312151372433)
(X_673  0.09705882519483566)
(X_674  0.10098039358854294)
(X_675  0.09705882519483566)
(X_676  0.08921568840742111)
(X_677  0.08921568840742111)
(X_678  0.09313725680112839)
(X_679  0.09705882519483566)
(X_680  0.10098039358854294)
(X_681  0.10882353037595749)
(X_682  0.11274509876966476)
(X_683  0.012745101936161518)
(X_684  0.008823529817163944)
(X_685  0.10882353037595749)
(X_686  0.11274509876966476)
(X_687  0.12058823555707932)
(X_688  0.09705882519483566)
(X_689  0.09705882519483566)
(X_690  0.10098039358854294)
(X_691  0.10490196198225021)
(X_692  0.10882353037595749)
(X_693  0.10882353037595749)
(X_694  0.10882353037595749)
(X_695  0.10490196198225021)
(X_696  0.10490196198225021)
(X_697  0.004901961423456669)
(X_698  0.004901961423456669)
(X_699  0.004901961423456669)
(X_700  0.08921568840742111)
(X_701  0.09705882519483566)
(X_702  0.10490196198225021)
(X_703  0.10490196198225021)
(X_704  0.10098039358854294)
(X_705  0.004901961423456669)
(X_706  0.008823529817163944)
(X_707  0.01666666939854622)
(X_708  -0.018627449870109558)
(X_709  -0.014705880545079708)
(X_710  -0.006862743757665157)
(X_711  -0.010784312151372433)
(X_712  -0.014705880545079708)
(X_713  -0.018627449870109558)
(X_714  -0.014705880545079708)
(X_715  0.08921568840742111)
(X_716  -0.014705880545079708)
(X_717  -0.010784312151372433)
(X_718  -0.006862743757665157)
(X_719  -0.006862743757665157)
(X_720  -0.006862743757665157)
(X_721  -0.006862743757665157)
(X_722  -0.010784312151372433)
(X_723  -0.014705880545079708)
(X_724  -0.0029411755967885256)
(X_725  -0.0029411755967885256)
(X_726  -0.0029411755967885256)
(X_727  -0.0029411755967885256)
(X_728  0.07745098322629929)
(X_729  0.08529412001371384)
(X_730  0.08921568840742111)
(X_731  0.08529412001371384)
(X_732  0.07745098322629929)
(X_733  0.07352941483259201)
(X_734  0.07745098322629929)
(X_735  0.08529412001371384)
(X_736  0.012745101936161518)
(X_737  0.01666666939854622)
(X_738  0.02450980618596077)
(X_739  0.020588237792253494)
(X_740  0.008823529817163944)
(X_741  0.0009803927969187498)
(X_742  0.0009803927969187498)
(X_743  0.004901961423456669)
(X_744  0.004901961423456669)
(X_745  0.008823529817163944)
(X_746  0.008823529817163944)
(X_747  0.008823529817163944)
(X_748  0.004901961423456669)
(X_749  0.10098039358854294)
(X_750  0.09313725680112839)
(X_751  0.08921568840742111)
(X_752  0.10098039358854294)
(X_753  0.10098039358854294)
(X_754  0.10098039358854294)
(X_755  0.10098039358854294)
(X_756  0.15784314274787903)
(X_757  0.15784314274787903)
(X_758  0.15392157435417175)
(X_759  0.24215686321258545)
(X_760  0.22647058963775635)
(X_761  0.21470588445663452)
(X_762  0.21078431606292725)
(X_763  0.114705890417099)
(X_764  0.0676470622420311)
(X_765  0.07549020648002625)
(X_766  0.17941176891326904)
(X_767  0.17549020051956177)
(X_768  0.15980392694473267)
(X_769  0.15196079015731812)
(X_770  0.14411765336990356)
(X_771  0.14803922176361084)
(X_772  0.14411765336990356)
(X_773  0.04803921654820442)
(X_774  0.0519607849419117)
(X_775  0.04803921654820442)
(X_776  0.04411764815449715)
(X_777  0.03235294297337532)
(X_778  0.12058823555707932)
(X_779  0.11274509876966476)
(X_780  0.11666666716337204)
(X_781  0.01666666939854622)
(X_782  0.01666666939854622)
(X_783  0.12058823555707932)
(Y_0 33.51152038574219)
(Y_1 -3.3163657188415527)
(Y_2 19.200462341308594)
(Y_3 -48.76945495605469))