((X_0  0.79313725233078)
(X_1  0.79313725233078)
(X_2  0.79313725233078)
(X_3  0.79313725233078)
(X_4  0.79313725233078)
(X_5  0.8931372761726379)
(X_6  0.8931372761726379)
(X_7  0.79313725233078)
(X_8  0.9245098233222961)
(X_9  0.9205882549285889)
(X_10  0.9205882549285889)
(X_11  0.9205882549285889)
(X_12  0.9205882549285889)
(X_13  0.8245097994804382)
(X_14  0.8284313678741455)
(X_15  0.8323529362678528)
(X_16  0.8519607782363892)
(X_17  0.8480392098426819)
(X_18  0.8441176414489746)
(X_19  0.8441176414489746)
(X_20  0.8519607782363892)
(X_21  0.863725483417511)
(X_22  0.9754902124404907)
(X_23  0.9833333492279053)
(X_24  0.863725483417511)
(X_25  0.863725483417511)
(X_26  0.863725483417511)
(X_27  0.9637255072593689)
(X_28  0.17941176891326904)
(X_29  0.07941177487373352)
(X_30  0.07941177487373352)
(X_31  0.17941176891326904)
(X_32  0.17941176891326904)
(X_33  0.07941177487373352)
(X_34  0.17941176891326904)
(X_35  0.07941177487373352)
(X_36  0.11078432202339172)
(X_37  0.11078432202339172)
(X_38  0.10686275362968445)
(X_39  0.20686274766921997)
(X_40  0.21078431606292725)
(X_41  0.21078431606292725)
(X_42  0.21470588445663452)
(X_43  0.2186274528503418)
(X_44  0.23039215803146362)
(X_45  0.22647058963775635)
(X_46  0.12254902720451355)
(X_47  0.22254902124404907)
(X_48  0.22647058963775635)
(X_49  0.2343137264251709)
(X_50  0.24607843160629272)
(X_51  0.2539215683937073)
(X_52  0.2696078419685364)
(X_53  0.16960784792900085)
(X_54  0.16960784792900085)
(X_55  0.2696078419685364)
(X_56  0.07745098322629929)
(X_57  0.07745098322629929)
(X_58  -0.022549020126461983)
(X_59  -0.022549020126461983)
(X_60  -0.022549020126461983)
(X_61  -0.022549020126461983)
(X_62  -0.022549020126461983)
(X_63  -0.022549020126461983)
(X_64  -0.018627449870109558)
(X_65  -0.018627449870109558)
(X_66  -0.022549020126461983)
(X_67  -0.022549020126461983)
(X_68  0.08137255162000656)
(X_69  -0.014705880545079708)
(X_70  0.08921568840742111)
(X_71  0.08921568840742111)
(X_72  0.08921568840742111)
(X_73  -0.010784312151372433)
(X_74  -0.014705880545079708)
(X_75  -0.018627449870109558)
(X_76  -0.018627449870109558)
(X_77  0.08921568840742111)
(X_78  0.09705882519483566)
(X_79  0.10098039358854294)
(X_80  0.07745098322629929)
(X_81  -0.022549020126461983)
(X_82  0.07745098322629929)
(X_83  0.07745098322629929)
(X_84  0.08137255162000656)
(X_85  -0.018627449870109558)
(X_86  -0.018627449870109558)
(X_87  0.08137255162000656)
(X_88  0.08137255162000656)
(X_89  0.08137255162000656)
(X_90  0.08137255162000656)
(X_91  0.08137255162000656)
(X_92  -0.026470588520169258)
(X_93  -0.026470588520169258)
(X_94  -0.030392156913876534)
(X_95  -0.030392156913876534)
(X_96  0.07352941483259201)
(X_97  0.07352941483259201)
(X_98  0.07745098322629929)
(X_99  -0.018627449870109558)
(X_100  0.07745098322629929)
(X_101  0.07745098322629929)
(X_102  -0.026470588520169258)
(X_103  -0.030392156913876534)
(X_104  0.06960784643888474)
(X_105  -0.030392156913876534)
(X_106  -0.026470588520169258)
(X_107  0.07745098322629929)
(X_108  -0.026470588520169258)
(X_109  -0.026470588520169258)
(X_110  -0.026470588520169258)
(X_111  -0.026470588520169258)
(X_112  0.07745098322629929)
(X_113  0.07745098322629929)
(X_114  -0.022549020126461983)
(X_115  0.07745098322629929)
(X_116  -0.022549020126461983)
(X_117  -0.022549020126461983)
(X_118  -0.022549020126461983)
(X_119  -0.022549020126461983)
(X_120  -0.018627449870109558)
(X_121  -0.018627449870109558)
(X_122  -0.022549020126461983)
(X_123  0.07745098322629929)
(X_124  0.08137255162000656)
(X_125  0.08529412001371384)
(X_126  0.08921568840742111)
(X_127  0.08921568840742111)
(X_128  -0.014705880545079708)
(X_129  0.08529412001371384)
(X_130  0.08137255162000656)
(X_131  0.08137255162000656)
(X_132  0.07745098322629929)
(X_133  -0.022549020126461983)
(X_134  -0.018627449870109558)
(X_135  -0.018627449870109558)
(X_136  0.09313725680112839)
(X_137  0.09313725680112839)
(X_138  0.09313725680112839)
(X_139  0.09313725680112839)
(X_140  0.08137255162000656)
(X_141  0.08137255162000656)
(X_142  0.08137255162000656)
(X_143  0.08137255162000656)
(X_144  0.08137255162000656)
(X_145  0.08137255162000656)
(X_146  -0.018627449870109558)
(X_147  -0.018627449870109558)
(X_148  0.08137255162000656)
(X_149  -0.018627449870109558)
(X_150  -0.018627449870109558)
(X_151  0.07745098322629929)
(X_152  0.08137255162000656)
(X_153  0.08529412001371384)
(X_154  0.08921568840742111)
(X_155  0.08921568840742111)
(X_156  -0.014705880545079708)
(X_157  0.08529412001371384)
(X_158  0.08529412001371384)
(X_159  0.08529412001371384)
(X_160  -0.014705880545079708)
(X_161  -0.014705880545079708)
(X_162  0.08529412001371384)
(X_163  0.08137255162000656)
(X_164  0.06960784643888474)
(X_165  0.06960784643888474)
(X_166  0.06960784643888474)
(X_167  0.06960784643888474)
(X_168  -0.010784312151372433)
(X_169  -0.010784312151372433)
(X_170  -0.010784312151372433)
(X_171  -0.010784312151372433)
(X_172  -0.010784312151372433)
(X_173  -0.010784312151372433)
(X_174  -0.010784312151372433)
(X_175  -0.010784312151372433)
(X_176  -0.018627449870109558)
(X_177  -0.022549020126461983)
(X_178  -0.022549020126461983)
(X_179  0.07745098322629929)
(X_180  0.07745098322629929)
(X_181  -0.018627449870109558)
(X_182  -0.014705880545079708)
(X_183  -0.010784312151372433)
(X_184  0.08137255162000656)
(X_185  -0.018627449870109558)
(X_186  -0.014705880545079708)
(X_187  -0.014705880545079708)
(X_188  0.08529412001371384)
(X_189  0.08529412001371384)
(X_190  0.08529412001371384)
(X_191  0.08529412001371384)
(X_192  0.08921568840742111)
(X_193  0.08921568840742111)
(X_194  -0.010784312151372433)
(X_195  -0.010784312151372433)
(X_196  -0.018627449870109558)
(X_197  0.08137255162000656)
(X_198  0.08137255162000656)
(X_199  0.08137255162000656)
(X_200  -0.018627449870109558)
(X_201  -0.018627449870109558)
(X_202  -0.018627449870109558)
(X_203  -0.018627449870109558)
(X_204  -0.018627449870109558)
(X_205  -0.018627449870109558)
(X_206  -0.018627449870109558)
(X_207  -0.022549020126461983)
(X_208  -0.018627449870109558)
(X_209  -0.014705880545079708)
(X_210  -0.010784312151372433)
(X_211  0.08921568840742111)
(X_212  0.07745098322629929)
(X_213  0.07745098322629929)
(X_214  0.08137255162000656)
(X_215  0.08529412001371384)
(X_216  0.08921568840742111)
(X_217  0.08921568840742111)
(X_218  0.08529412001371384)
(X_219  -0.014705880545079708)
(X_220  0.08137255162000656)
(X_221  0.08137255162000656)
(X_222  -0.018627449870109558)
(X_223  -0.018627449870109558)
(X_224  -0.014705880545079708)
(X_225  -0.014705880545079708)
(X_226  0.08529412001371384)
(X_227  0.08529412001371384)
(X_228  -0.014705880545079708)
(X_229  -0.014705880545079708)
(X_230  -0.014705880545079708)
(X_231  0.08529412001371384)
(X_232  0.08921568840742111)
(X_233  0.08921568840742111)
(X_234  0.08529412001371384)
(X_235  0.08529412001371384)
(X_236  0.08529412001371384)
(X_237  0.08137255162000656)
(X_238  0.08137255162000656)
(X_239  0.08137255162000656)
(X_240  0.08529412001371384)
(X_241  0.08529412001371384)
(X_242  0.08529412001371384)
(X_243  -0.014705880545079708)
(X_244  0.08529412001371384)
(X_245  0.08529412001371384)
(X_246  0.08529412001371384)
(X_247  -0.014705880545079708)
(X_248  0.08137255162000656)
(X_249  -0.018627449870109558)
(X_250  -0.018627449870109558)
(X_251  0.08137255162000656)
(X_252  0.08529412001371384)
(X_253  -0.014705880545079708)
(X_254  -0.014705880545079708)
(X_255  -0.014705880545079708)
(X_256  0.08529412001371384)
(X_257  0.08529412001371384)
(X_258  0.08529412001371384)
(X_259  -0.014705880545079708)
(X_260  0.08921568840742111)
(X_261  0.08921568840742111)
(X_262  -0.010784312151372433)
(X_263  0.08529412001371384)
(X_264  0.08529412001371384)
(X_265  0.08529412001371384)
(X_266  0.08137255162000656)
(X_267  0.08137255162000656)
(X_268  -0.010784312151372433)
(X_269  -0.010784312151372433)
(X_270  -0.010784312151372433)
(X_271  -0.010784312151372433)
(X_272  -0.010784312151372433)
(X_273  -0.010784312151372433)
(X_274  -0.010784312151372433)
(X_275  -0.010784312151372433)
(X_276  -0.006862743757665157)
(X_277  -0.006862743757665157)
(X_278  -0.006862743757665157)
(X_279  0.09313725680112839)
(X_280  -0.010784312151372433)
(X_281  -0.010784312151372433)
(X_282  -0.010784312151372433)
(X_283  -0.010784312151372433)
(X_284  -0.010784312151372433)
(X_285  -0.010784312151372433)
(X_286  -0.010784312151372433)
(X_287  -0.010784312151372433)
(X_288  0.09313725680112839)
(X_289  0.09313725680112839)
(X_290  0.08921568840742111)
(X_291  -0.010784312151372433)
(X_292  0.08921568840742111)
(X_293  0.08529412001371384)
(X_294  0.08529412001371384)
(X_295  0.08529412001371384)
(X_296  0.09313725680112839)
(X_297  0.09313725680112839)
(X_298  -0.006862743757665157)
(X_299  -0.006862743757665157)
(X_300  -0.006862743757665157)
(X_301  0.09313725680112839)
(X_302  -0.006862743757665157)
(X_303  -0.006862743757665157)
(X_304  -0.010784312151372433)
(X_305  -0.010784312151372433)
(X_306  -0.006862743757665157)
(X_307  -0.006862743757665157)
(X_308  0.09313725680112839)
(X_309  -0.006862743757665157)
(X_310  -0.006862743757665157)
(X_311  -0.006862743757665157)
(X_312  -0.006862743757665157)
(X_313  -0.006862743757665157)
(X_314  -0.006862743757665157)
(X_315  -0.006862743757665157)
(X_316  -0.0029411755967885256)
(X_317  0.09313725680112839)
(X_318  -0.006862743757665157)
(X_319  -0.006862743757665157)
(X_320  0.08921568840742111)
(X_321  0.08921568840742111)
(X_322  0.08921568840742111)
(X_323  0.08921568840742111)
(X_324  -0.0029411755967885256)
(X_325  0.09705882519483566)
(X_326  0.09705882519483566)
(X_327  -0.0029411755967885256)
(X_328  -0.0029411755967885256)
(X_329  -0.0029411755967885256)
(X_330  -0.0029411755967885256)
(X_331  -0.0029411755967885256)
(X_332  0.08921568840742111)
(X_333  0.08921568840742111)
(X_334  -0.006862743757665157)
(X_335  -0.006862743757665157)
(X_336  0.09313725680112839)
(X_337  0.09313725680112839)
(X_338  -0.006862743757665157)
(X_339  -0.006862743757665157)
(X_340  0.09313725680112839)
(X_341  0.09313725680112839)
(X_342  -0.006862743757665157)
(X_343  -0.006862743757665157)
(X_344  -0.0029411755967885256)
(X_345  -0.0029411755967885256)
(X_346  -0.0029411755967885256)
(X_347  -0.0029411755967885256)
(X_348  0.09313725680112839)
(X_349  0.09313725680112839)
(X_350  0.09313725680112839)
(X_351  -0.010784312151372433)
(X_352  0.09705882519483566)
(X_353  0.09705882519483566)
(X_354  0.09705882519483566)
(X_355  -0.0029411755967885256)
(X_356  -0.0029411755967885256)
(X_357  0.09705882519483566)
(X_358  0.09705882519483566)
(X_359  0.09705882519483566)
(X_360  -0.0029411755967885256)
(X_361  -0.0029411755967885256)
(X_362  -0.0029411755967885256)
(X_363  0.0009803927969187498)
(X_364  -0.0029411755967885256)
(X_365  -0.0029411755967885256)
(X_366  -0.0029411755967885256)
(X_367  -0.0029411755967885256)
(X_368  0.09705882519483566)
(X_369  0.09705882519483566)
(X_370  0.09705882519483566)
(X_371  0.09705882519483566)
(X_372  0.0009803927969187498)
(X_373  0.0009803927969187498)
(X_374  0.10098039358854294)
(X_375  0.09705882519483566)
(X_376  0.09705882519483566)
(X_377  0.09705882519483566)
(X_378  0.09313725680112839)
(X_379  0.09313725680112839)
(X_380  -0.0029411755967885256)
(X_381  0.09705882519483566)
(X_382  0.09705882519483566)
(X_383  0.09705882519483566)
(X_384  0.09705882519483566)
(X_385  0.09705882519483566)
(X_386  -0.0029411755967885256)
(X_387  -0.0029411755967885256)
(X_388  0.08137255162000656)
(X_389  0.08529412001371384)
(X_390  -0.014705880545079708)
(X_391  -0.010784312151372433)
(X_392  0.10098039358854294)
(X_393  0.10098039358854294)
(X_394  0.0009803927969187498)
(X_395  0.10098039358854294)
(X_396  0.0009803927969187498)
(X_397  0.0009803927969187498)
(X_398  0.10098039358854294)
(X_399  0.10098039358854294)
(X_400  0.004901961423456669)
(X_401  0.10490196198225021)
(X_402  0.10098039358854294)
(X_403  0.0009803927969187498)
(X_404  0.10098039358854294)
(X_405  -0.0029411755967885256)
(X_406  0.09705882519483566)
(X_407  0.09705882519483566)
(X_408  -0.006862743757665157)
(X_409  -0.006862743757665157)
(X_410  -0.006862743757665157)
(X_411  -0.006862743757665157)
(X_412  -0.006862743757665157)
(X_413  -0.006862743757665157)
(X_414  -0.006862743757665157)
(X_415  -0.006862743757665157)
(X_416  -0.014705880545079708)
(X_417  0.08921568840742111)
(X_418  -0.010784312151372433)
(X_419  -0.006862743757665157)
(X_420  0.0009803927969187498)
(X_421  0.0009803927969187498)
(X_422  0.0009803927969187498)
(X_423  0.10098039358854294)
(X_424  0.0009803927969187498)
(X_425  0.10098039358854294)
(X_426  0.10098039358854294)
(X_427  0.10098039358854294)
(X_428  0.004901961423456669)
(X_429  0.10490196198225021)
(X_430  0.004901961423456669)
(X_431  0.0009803927969187498)
(X_432  0.10098039358854294)
(X_433  0.10098039358854294)
(X_434  0.09705882519483566)
(X_435  0.09705882519483566)
(X_436  -0.006862743757665157)
(X_437  -0.006862743757665157)
(X_438  0.09313725680112839)
(X_439  0.09313725680112839)
(X_440  0.09313725680112839)
(X_441  0.09313725680112839)
(X_442  -0.006862743757665157)
(X_443  -0.006862743757665157)
(X_444  0.020588237792253494)
(X_445  0.02450980618596077)
(X_446  0.02450980618596077)
(X_447  0.028431374579668045)
(X_448  -0.018627449870109558)
(X_449  0.08137255162000656)
(X_450  0.08137255162000656)
(X_451  0.08921568840742111)
(X_452  -0.0029411755967885256)
(X_453  0.0009803927969187498)
(X_454  0.10098039358854294)
(X_455  -0.0029411755967885256)
(X_456  -0.0029411755967885256)
(X_457  0.09705882519483566)
(X_458  0.10098039358854294)
(X_459  0.10098039358854294)
(X_460  0.10490196198225021)
(X_461  0.10490196198225021)
(X_462  0.10098039358854294)
(X_463  0.10098039358854294)
(X_464  0.10882353037595749)
(X_465  0.09705882519483566)
(X_466  0.08529412001371384)
(X_467  -0.014705880545079708)
(X_468  0.008823529817163944)
(X_469  0.0519607849419117)
(X_470  0.0990196168422699)
(X_471  0.23039215803146362)
(X_472  0.22647058963775635)
(X_473  0.28921568393707275)
(X_474  0.3245098292827606)
(X_475  0.3088235557079315)
(X_476  0.18921568989753723)
(X_477  0.18137255311012268)
(X_478  0.16568627953529358)
(X_479  0.24215686321258545)
(X_480  0.21470588445663452)
(X_481  0.0833333432674408)
(X_482  0.05588235333561897)
(X_483  0.036274511367082596)
(X_484  0.020588237792253494)
(X_485  0.012745101936161518)
(X_486  0.0009803927969187498)
(X_487  -0.010784312151372433)
(X_488  0.08529412001371384)
(X_489  0.08921568840742111)
(X_490  0.09313725680112839)
(X_491  0.10098039358854294)
(X_492  -0.014705880545079708)
(X_493  0.01666666939854622)
(X_494  0.06372549384832382)
(X_495  0.12254902720451355)
(X_496  0.2696078419685364)
(X_497  0.3088235557079315)
(X_498  0.22843138873577118)
(X_499  0.240196093916893)
(X_500  0.22843138873577118)
(X_501  0.24411766231060028)
(X_502  0.240196093916893)
(X_503  0.31666669249534607)
(X_504  0.240196093916893)
(X_505  0.344117671251297)
(X_506  0.35196080803871155)
(X_507  0.35196080803871155)
(X_508  0.3480392396450043)
(X_509  0.240196093916893)
(X_510  0.3284313976764679)
(X_511  0.22058825194835663)
(X_512  0.15000000596046448)
(X_513  0.12647059559822083)
(X_514  0.09509804844856262)
(X_515  0.0676470622420311)
(X_516  0.04803921654820442)
(X_517  0.04411764815449715)
(X_518  0.04803921654820442)
(X_519  0.1558823585510254)
(X_520  0.15392157435417175)
(X_521  0.1774509847164154)
(X_522  0.2088235467672348)
(X_523  0.33627453446388245)
(X_524  0.3401961028575897)
(X_525  0.22058825194835663)
(X_526  0.18921568989753723)
(X_527  0.16568627953529358)
(X_528  0.20098040997982025)
(X_529  0.17352941632270813)
(X_530  0.15784314274787903)
(X_531  0.1617647111415863)
(X_532  0.3480392396450043)
(X_533  0.35196080803871155)
(X_534  0.25196078419685364)
(X_535  0.344117671251297)
(X_536  0.33235296607017517)
(X_537  0.3245098292827606)
(X_538  0.32058826088905334)
(X_539  0.32058826088905334)
(X_540  0.2245098203420639)
(X_541  0.3088235557079315)
(X_542  0.18137255311012268)
(X_543  0.15784314274787903)
(X_544  0.1460784375667572)
(X_545  0.15000000596046448)
(X_546  0.15784314274787903)
(X_547  0.2617647051811218)
(X_548  0.24215686321258545)
(X_549  0.24607843160629272)
(X_550  0.25)
(X_551  0.2539215683937073)
(X_552  0.2617647051811218)
(X_553  0.2656862735748291)
(X_554  0.27352941036224365)
(X_555  0.27352941036224365)
(X_556  0.2539215683937073)
(X_557  0.21078431606292725)
(X_558  0.11078432202339172)
(X_559  0.1617647111415863)
(X_560  0.30490198731422424)
(X_561  0.30490198731422424)
(X_562  0.20098040997982025)
(X_563  0.18921568989753723)
(X_564  0.17352941632270813)
(X_565  0.17352941632270813)
(X_566  0.18529412150382996)
(X_567  0.19705882668495178)
(X_568  0.29313725233078003)
(X_569  0.1931372582912445)
(X_570  0.19705882668495178)
(X_571  0.20098040997982025)
(X_572  0.3127451241016388)
(X_573  0.3245098292827606)
(X_574  0.23627452552318573)
(X_575  0.24411766231060028)
(X_576  0.26372548937797546)
(X_577  0.24803923070430756)
(X_578  0.33235296607017517)
(X_579  0.3284313976764679)
(X_580  0.35196080803871155)
(X_581  0.2911764681339264)
(X_582  0.3343137204647064)
(X_583  0.3656862676143646)
(X_584  0.520588219165802)
(X_585  0.3656862676143646)
(X_586  0.36176469922065735)
(X_587  0.4166666567325592)
(X_588  0.4107843339443207)
(X_589  0.32647058367729187)
(X_590  0.34215685725212097)
(X_591  0.45000001788139343)
(X_592  0.36176469922065735)
(X_593  0.3813725411891937)
(X_594  0.5127450823783875)
(X_595  0.44019606709480286)
(X_596  0.4480392038822174)
(X_597  0.45196080207824707)
(X_598  0.45588237047195435)
(X_599  0.4598039388656616)
(X_600  0.5598039627075195)
(X_601  0.5598039627075195)
(X_602  0.5558823943138123)
(X_603  0.5558823943138123)
(X_604  0.5774509906768799)
(X_605  0.5578431487083435)
(X_606  0.522549033164978)
(X_607  0.5911765098571777)
(X_608  0.5715686678886414)
(X_609  0.5715686678886414)
(X_610  0.4833333492279053)
(X_611  0.4911764860153198)
(X_612  0.5049019455909729)
(X_613  0.4421568810939789)
(X_614  0.4107843339443207)
(X_615  0.43039217591285706)
(X_616  0.5558823943138123)
(X_617  0.47156864404678345)
(X_618  0.4833333492279053)
(X_619  0.5794118046760559)
(X_620  0.4637255072593689)
(X_621  0.45588237047195435)
(X_622  0.5598039627075195)
(X_623  0.5715686678886414)
(X_624  0.40882351994514465)
(X_625  0.4049019515514374)
(X_626  0.39313724637031555)
(X_627  0.3813725411891937)
(X_628  0.36176469922065735)
(X_629  0.34607842564582825)
(X_630  0.43039217591285706)
(X_631  0.4225490391254425)
(X_632  0.27156862616539)
(X_633  0.26372548937797546)
(X_634  0.24803923070430756)
(X_635  0.33235296607017517)
(X_636  0.31666669249534607)
(X_637  0.30490198731422424)
(X_638  0.30098041892051697)
(X_639  0.2970588207244873)
(X_640  0.31666669249534607)
(X_641  0.2774509787559509)
(X_642  0.25)
(X_643  0.15392157435417175)
(X_644  0.2970588207244873)
(X_645  0.22058825194835663)
(X_646  0.24411766231060028)
(X_647  0.24411766231060028)
(X_648  0.32058826088905334)
(X_649  0.19705882668495178)
(X_650  0.28921568393707275)
(X_651  0.28921568393707275)
(X_652  0.19705882668495178)
(X_653  0.18921568989753723)
(X_654  0.1774509847164154)
(X_655  0.16568627953529358)
(X_656  0.15392157435417175)
(X_657  0.24215686321258545)
(X_658  0.2343137264251709)
(X_659  0.23039215803146362)
(X_660  0.11862745881080627)
(X_661  0.11862745881080627)
(X_662  0.114705890417099)
(X_663  0.20686274766921997)
(X_664  0.2029411792755127)
(X_665  0.09509804844856262)
(X_666  0.09117648005485535)
(X_667  0.09117648005485535)
(X_668  0.05588235333561897)
(X_669  0.0519607849419117)
(X_670  0.15980392694473267)
(X_671  0.17549020051956177)
(X_672  0.22254902124404907)
(X_673  0.22254902124404907)
(X_674  0.11862745881080627)
(X_675  0.21078431606292725)
(X_676  0.19901961088180542)
(X_677  0.19509804248809814)
(X_678  0.19509804248809814)
(X_679  0.0990196168422699)
(X_680  0.11078432202339172)
(X_681  0.10294118523597717)
(X_682  0.1872549057006836)
(X_683  0.0833333432674408)
(X_684  0.17941176891326904)
(X_685  0.17549020051956177)
(X_686  0.1715686321258545)
(X_687  0.06372549384832382)
(X_688  0.06372549384832382)
(X_689  0.05588235333561897)
(X_690  0.04803921654820442)
(X_691  0.0519607849419117)
(X_692  0.15980392694473267)
(X_693  0.16372549533843994)
(X_694  0.16372549533843994)
(X_695  0.15980392694473267)
(X_696  0.1715686321258545)
(X_697  0.07549020648002625)
(X_698  0.07549020648002625)
(X_699  0.17941176891326904)
(X_700  0.2029411792755127)
(X_701  0.2029411792755127)
(X_702  0.0990196168422699)
(X_703  0.19117647409439087)
(X_704  0.18333333730697632)
(X_705  0.07941177487373352)
(X_706  0.0833333432674408)
(X_707  0.0833333432674408)
(X_708  0.0833333432674408)
(X_709  0.07156863063573837)
(X_710  0.15980392694473267)
(X_711  0.05588235333561897)
(X_712  0.1558823585510254)
(X_713  0.15196079015731812)
(X_714  0.14803922176361084)
(X_715  0.04019607976078987)
(X_716  0.0676470622420311)
(X_717  0.05980392172932625)
(X_718  0.0519607849419117)
(X_719  0.05588235333561897)
(X_720  0.16372549533843994)
(X_721  0.16764706373214722)
(X_722  0.0676470622420311)
(X_723  0.06372549384832382)
(X_724  0.18333333730697632)
(X_725  0.0833333432674408)
(X_726  0.0833333432674408)
(X_727  0.1872549057006836)
(X_728  0.1872549057006836)
(X_729  0.08725491166114807)
(X_730  0.0833333432674408)
(X_731  0.17941176891326904)
(X_732  0.17549020051956177)
(X_733  0.17549020051956177)
(X_734  0.17941176891326904)
(X_735  0.17941176891326904)
(X_736  0.0833333432674408)
(X_737  0.07156863063573837)
(X_738  0.06372549384832382)
(X_739  0.05980392172932625)
(X_740  0.16372549533843994)
(X_741  0.16372549533843994)
(X_742  0.05980392172932625)
(X_743  0.05588235333561897)
(X_744  0.07156863063573837)
(X_745  0.06372549384832382)
(X_746  0.05980392172932625)
(X_747  0.05980392172932625)
(X_748  0.16764706373214722)
(X_749  0.17549020051956177)
(X_750  0.1715686321258545)
(X_751  0.1715686321258545)
(X_752  0.18333333730697632)
(X_753  0.0833333432674408)
(X_754  0.0833333432674408)
(X_755  0.18333333730697632)
(X_756  0.19117647409439087)
(X_757  0.08725491166114807)
(X_758  0.07941177487373352)
(X_759  0.17941176891326904)
(X_760  0.18333333730697632)
(X_761  0.1872549057006836)
(X_762  0.1872549057006836)
(X_763  0.1872549057006836)
(X_764  0.19509804248809814)
(X_765  0.1872549057006836)
(X_766  0.17941176891326904)
(X_767  0.17941176891326904)
(X_768  0.18333333730697632)
(X_769  0.1872549057006836)
(X_770  0.0833333432674408)
(X_771  0.07941177487373352)
(X_772  0.07549020648002625)
(X_773  0.0676470622420311)
(X_774  0.06372549384832382)
(X_775  0.06372549384832382)
(X_776  0.07156863063573837)
(X_777  0.17941176891326904)
(X_778  0.17549020051956177)
(X_779  0.17549020051956177)
(X_780  0.1715686321258545)
(X_781  0.07156863063573837)
(X_782  0.07156863063573837)
(X_783  0.16764706373214722)
(Y_0 17.3406982421875)
(Y_1 15.001474380493164)
(Y_2 -2.873732089996338)
(Y_3 -36.16641616821289))