((X_0  0.21470588445663452)
(X_1  0.1872549057006836)
(X_2  0.16764706373214722)
(X_3  0.17549020051956177)
(X_4  0.2029411792755127)
(X_5  0.11078432202339172)
(X_6  0.08725491166114807)
(X_7  0.05980392172932625)
(X_8  0.09509804844856262)
(X_9  0.0833333432674408)
(X_10  0.07156863063573837)
(X_11  0.07156863063573837)
(X_12  0.0833333432674408)
(X_13  0.1872549057006836)
(X_14  0.17549020051956177)
(X_15  0.16372549533843994)
(X_16  0.08725491166114807)
(X_17  0.0833333432674408)
(X_18  0.09117648005485535)
(X_19  0.11078432202339172)
(X_20  0.19901961088180542)
(X_21  0.16764706373214722)
(X_22  0.15980392694473267)
(X_23  0.07941177487373352)
(X_24  0.1715686321258545)
(X_25  0.18333333730697632)
(X_26  0.19509804248809814)
(X_27  0.19117647409439087)
(X_28  0.20686274766921997)
(X_29  0.08725491166114807)
(X_30  0.0676470622420311)
(X_31  0.07156863063573837)
(X_32  0.09117648005485535)
(X_33  0.0990196168422699)
(X_34  0.0833333432674408)
(X_35  0.16764706373214722)
(X_36  0.06372549384832382)
(X_37  0.07941177487373352)
(X_38  0.0990196168422699)
(X_39  0.12254902720451355)
(X_40  0.13431373238563538)
(X_41  0.1303921639919281)
(X_42  0.21078431606292725)
(X_43  0.09117648005485535)
(X_44  0.2029411792755127)
(X_45  0.17941176891326904)
(X_46  0.1715686321258545)
(X_47  0.07941177487373352)
(X_48  0.08725491166114807)
(X_49  0.0990196168422699)
(X_50  0.1303921639919281)
(X_51  0.16568627953529358)
(X_52  0.17941176891326904)
(X_53  0.1872549057006836)
(X_54  0.19901961088180542)
(X_55  0.21470588445663452)
(X_56  0.19509804248809814)
(X_57  0.0833333432674408)
(X_58  0.07156863063573837)
(X_59  0.07156863063573837)
(X_60  0.07549020648002625)
(X_61  0.0833333432674408)
(X_62  0.07941177487373352)
(X_63  0.07941177487373352)
(X_64  0.1872549057006836)
(X_65  0.08725491166114807)
(X_66  0.0833333432674408)
(X_67  0.07549020648002625)
(X_68  0.05980392172932625)
(X_69  0.04803921654820442)
(X_70  0.04803921654820442)
(X_71  0.04803921654820442)
(X_72  0.0519607849419117)
(X_73  0.05588235333561897)
(X_74  0.07549020648002625)
(X_75  0.20686274766921997)
(X_76  0.20686274766921997)
(X_77  0.17941176891326904)
(X_78  0.14803922176361084)
(X_79  0.13235294818878174)
(X_80  0.1872549057006836)
(X_81  0.17549020051956177)
(X_82  0.07156863063573837)
(X_83  0.17941176891326904)
(X_84  0.18333333730697632)
(X_85  0.17941176891326904)
(X_86  0.17549020051956177)
(X_87  0.1715686321258545)
(X_88  0.16372549533843994)
(X_89  0.0676470622420311)
(X_90  0.07549020648002625)
(X_91  0.08725491166114807)
(X_92  0.15980392694473267)
(X_93  0.07156863063573837)
(X_94  0.07549020648002625)
(X_95  0.07549020648002625)
(X_96  0.0676470622420311)
(X_97  0.07549020648002625)
(X_98  0.19509804248809814)
(X_99  0.21078431606292725)
(X_100  0.19117647409439087)
(X_101  0.1715686321258545)
(X_102  0.1558823585510254)
(X_103  0.16372549533843994)
(X_104  0.19509804248809814)
(X_105  0.1303921639919281)
(X_106  0.1617647111415863)
(X_107  0.18529412150382996)
(X_108  0.3637255132198334)
(X_109  0.24411766231060028)
(X_110  0.22058825194835663)
(X_111  0.30490198731422424)
(X_112  0.07156863063573837)
(X_113  0.07549020648002625)
(X_114  0.07941177487373352)
(X_115  0.1715686321258545)
(X_116  0.16372549533843994)
(X_117  0.06372549384832382)
(X_118  0.07549020648002625)
(X_119  0.08725491166114807)
(X_120  0.0519607849419117)
(X_121  0.07156863063573837)
(X_122  0.19117647409439087)
(X_123  0.19509804248809814)
(X_124  0.0833333432674408)
(X_125  0.07549020648002625)
(X_126  0.07156863063573837)
(X_127  0.07941177487373352)
(X_128  0.1872549057006836)
(X_129  0.2029411792755127)
(X_130  0.2343137264251709)
(X_131  0.2813725471496582)
(X_132  0.3558823764324188)
(X_133  0.4382353127002716)
(X_134  0.4009803831577301)
(X_135  0.5323529243469238)
(X_136  0.4637255072593689)
(X_137  0.46764707565307617)
(X_138  0.5715686678886414)
(X_139  0.5676470994949341)
(X_140  0.16764706373214722)
(X_141  0.1715686321258545)
(X_142  0.17941176891326904)
(X_143  0.17941176891326904)
(X_144  0.07549020648002625)
(X_145  0.07156863063573837)
(X_146  0.07549020648002625)
(X_147  0.17941176891326904)
(X_148  0.19117647409439087)
(X_149  0.17941176891326904)
(X_150  0.16372549533843994)
(X_151  0.15196079015731812)
(X_152  0.15196079015731812)
(X_153  0.1715686321258545)
(X_154  0.2029411792755127)
(X_155  0.12647059559822083)
(X_156  0.15392157435417175)
(X_157  0.20490197837352753)
(X_158  0.26372548937797546)
(X_159  0.40294119715690613)
(X_160  0.43039217591285706)
(X_161  0.34607842564582825)
(X_162  0.34607842564582825)
(X_163  0.43431374430656433)
(X_164  0.3970588147640228)
(X_165  0.42843136191368103)
(X_166  0.47156864404678345)
(X_167  0.595098078250885)
(X_168  0.16764706373214722)
(X_169  0.1715686321258545)
(X_170  0.17549020051956177)
(X_171  0.18333333730697632)
(X_172  0.1872549057006836)
(X_173  0.1872549057006836)
(X_174  0.07941177487373352)
(X_175  0.07156863063573837)
(X_176  0.17941176891326904)
(X_177  0.1715686321258545)
(X_178  0.17549020051956177)
(X_179  0.2029411792755127)
(X_180  0.2539215683937073)
(X_181  0.31666669249534607)
(X_182  0.3754902184009552)
(X_183  0.3068627417087555)
(X_184  0.41862747073173523)
(X_185  0.4068627655506134)
(X_186  0.35196080803871155)
(X_187  0.2774509787559509)
(X_188  0.24215686321258545)
(X_189  0.18137255311012268)
(X_190  0.24411766231060028)
(X_191  0.38333335518836975)
(X_192  0.41470590233802795)
(X_193  0.43039217591285706)
(X_194  0.3539215624332428)
(X_195  0.3696078360080719)
(X_196  0.0676470622420311)
(X_197  0.0676470622420311)
(X_198  0.17549020051956177)
(X_199  0.08725491166114807)
(X_200  0.19901961088180542)
(X_201  0.19509804248809814)
(X_202  0.17941176891326904)
(X_203  0.16764706373214722)
(X_204  0.1715686321258545)
(X_205  0.2029411792755127)
(X_206  0.1617647111415863)
(X_207  0.22058825194835663)
(X_208  0.25196078419685364)
(X_209  0.24411766231060028)
(X_210  0.20098040997982025)
(X_211  0.1617647111415863)
(X_212  0.344117671251297)
(X_213  0.344117671251297)
(X_214  0.20490197837352753)
(X_215  0.13823530077934265)
(X_216  0.12647059559822083)
(X_217  0.2970588207244873)
(X_218  0.39901962876319885)
(X_219  0.46568629145622253)
(X_220  0.5401960611343384)
(X_221  0.41274508833885193)
(X_222  0.3813725411891937)
(X_223  0.46568629145622253)
(X_224  0.07941177487373352)
(X_225  0.07549020648002625)
(X_226  0.08725491166114807)
(X_227  0.19509804248809814)
(X_228  0.07549020648002625)
(X_229  0.04411764815449715)
(X_230  0.0519607849419117)
(X_231  0.07941177487373352)
(X_232  0.114705890417099)
(X_233  0.16960784792900085)
(X_234  0.24411766231060028)
(X_235  0.2872548997402191)
(X_236  0.26764705777168274)
(X_237  0.20490197837352753)
(X_238  0.1460784375667572)
(X_239  0.11862745881080627)
(X_240  0.16568627953529358)
(X_241  0.19705882668495178)
(X_242  0.32058826088905334)
(X_243  0.3088235557079315)
(X_244  0.3637255132198334)
(X_245  0.5558823943138123)
(X_246  0.7245098352432251)
(X_247  0.6637254953384399)
(X_248  0.6990196108818054)
(X_249  0.636274516582489)
(X_250  0.5186274647712708)
(X_251  0.4009803831577301)
(X_252  0.07941177487373352)
(X_253  0.07549020648002625)
(X_254  0.07549020648002625)
(X_255  0.07156863063573837)
(X_256  0.1558823585510254)
(X_257  0.15196079015731812)
(X_258  0.19509804248809814)
(X_259  0.24607843160629272)
(X_260  0.23627452552318573)
(X_261  0.25196078419685364)
(X_262  0.240196093916893)
(X_263  0.23627452552318573)
(X_264  0.3186274468898773)
(X_265  0.44411763548851013)
(X_266  0.4950980544090271)
(X_267  0.47156864404678345)
(X_268  0.3696078360080719)
(X_269  0.46176472306251526)
(X_270  0.46568629145622253)
(X_271  0.46568629145622253)
(X_272  0.5009803771972656)
(X_273  0.6264706254005432)
(X_274  0.7284314036369324)
(X_275  0.6323529481887817)
(X_276  0.6892157196998596)
(X_277  0.665686309337616)
(X_278  0.5147058963775635)
(X_279  0.46764707565307617)
(X_280  0.18333333730697632)
(X_281  0.17549020051956177)
(X_282  0.16764706373214722)
(X_283  0.05980392172932625)
(X_284  0.05980392172932625)
(X_285  0.1872549057006836)
(X_286  0.2617647051811218)
(X_287  0.3284313976764679)
(X_288  0.26764705777168274)
(X_289  0.2598039209842682)
(X_290  0.2558823525905609)
(X_291  0.31470587849617004)
(X_292  0.45196080207824707)
(X_293  0.5892156958580017)
(X_294  0.6323529481887817)
(X_295  0.6088235378265381)
(X_296  0.6225490570068359)
(X_297  0.46764707565307617)
(X_298  0.5558823943138123)
(X_299  0.5794118046760559)
(X_300  0.5990196466445923)
(X_301  0.6421568989753723)
(X_302  0.665686309337616)
(X_303  0.5421568751335144)
(X_304  0.5029411911964417)
(X_305  0.4911764860153198)
(X_306  0.47156864404678345)
(X_307  0.5598039627075195)
(X_308  0.17941176891326904)
(X_309  0.1715686321258545)
(X_310  0.16372549533843994)
(X_311  0.17549020051956177)
(X_312  0.2029411792755127)
(X_313  0.25)
(X_314  0.3127451241016388)
(X_315  0.2558823525905609)
(X_316  0.3088235557079315)
(X_317  0.2970588207244873)
(X_318  0.38333335518836975)
(X_319  0.5480391979217529)
(X_320  0.6343137621879578)
(X_321  0.5107843279838562)
(X_322  0.4950980544090271)
(X_323  0.5264706015586853)
(X_324  0.5107843279838562)
(X_325  0.4323529303073883)
(X_326  0.42450979351997375)
(X_327  0.5715686678886414)
(X_328  0.5754902362823486)
(X_329  0.5637255311012268)
(X_330  0.5637255311012268)
(X_331  0.5480391979217529)
(X_332  0.45588237047195435)
(X_333  0.42843136191368103)
(X_334  0.39313724637031555)
(X_335  0.3696078360080719)
(X_336  0.16764706373214722)
(X_337  0.16372549533843994)
(X_338  0.16764706373214722)
(X_339  0.19901961088180542)
(X_340  0.24607843160629272)
(X_341  0.28921568393707275)
(X_342  0.3088235557079315)
(X_343  0.20490197837352753)
(X_344  0.2656862735748291)
(X_345  0.3127451241016388)
(X_346  0.3343137204647064)
(X_347  0.45196080207824707)
(X_348  0.44411763548851013)
(X_349  0.3735294044017792)
(X_350  0.3970588147640228)
(X_351  0.5911765098571777)
(X_352  0.520588219165802)
(X_353  0.44607844948768616)
(X_354  0.4539215862751007)
(X_355  0.5088235139846802)
(X_356  0.49313727021217346)
(X_357  0.46176472306251526)
(X_358  0.4735294282436371)
(X_359  0.49313727021217346)
(X_360  0.3970588147640228)
(X_361  0.36176469922065735)
(X_362  0.32647058367729187)
(X_363  0.41470590233802795)
(X_364  0.05588235333561897)
(X_365  0.0676470622420311)
(X_366  0.19117647409439087)
(X_367  0.22254902124404907)
(X_368  0.2617647051811218)
(X_369  0.18529412150382996)
(X_370  0.1617647111415863)
(X_371  0.12647059559822083)
(X_372  0.25)
(X_373  0.28333333134651184)
(X_374  0.3813725411891937)
(X_375  0.3578431308269501)
(X_376  0.2872548997402191)
(X_377  0.27941176295280457)
(X_378  0.3343137204647064)
(X_379  0.3892156779766083)
(X_380  0.33039215207099915)
(X_381  0.26372548937797546)
(X_382  0.3715686500072479)
(X_383  0.31470587849617004)
(X_384  0.2872548997402191)
(X_385  0.2598039209842682)
(X_386  0.3911764919757843)
(X_387  0.4264706075191498)
(X_388  0.4264706075191498)
(X_389  0.39901962876319885)
(X_390  0.38333335518836975)
(X_391  0.387254923582077)
(X_392  0.1715686321258545)
(X_393  0.20686274766921997)
(X_394  0.13823530077934265)
(X_395  0.1460784375667572)
(X_396  0.25)
(X_397  0.24607843160629272)
(X_398  0.2186274528503418)
(X_399  0.0833333432674408)
(X_400  0.16960784792900085)
(X_401  0.27156862616539)
(X_402  0.3186274468898773)
(X_403  0.3480392396450043)
(X_404  0.2813725471496582)
(X_405  0.29313725233078003)
(X_406  0.22843138873577118)
(X_407  0.240196093916893)
(X_408  0.35196080803871155)
(X_409  0.18921568989753723)
(X_410  0.28921568393707275)
(X_411  0.31666669249534607)
(X_412  0.29313725233078003)
(X_413  0.2813725471496582)
(X_414  0.31666669249534607)
(X_415  0.344117671251297)
(X_416  0.3598039448261261)
(X_417  0.3284313976764679)
(X_418  0.2088235467672348)
(X_419  0.3127451241016388)
(X_420  0.09509804844856262)
(X_421  0.15000000596046448)
(X_422  0.18529412150382996)
(X_423  0.16960784792900085)
(X_424  0.13823530077934265)
(X_425  0.11862745881080627)
(X_426  0.2029411792755127)
(X_427  0.18333333730697632)
(X_428  0.31666669249534607)
(X_429  0.20098040997982025)
(X_430  0.1774509847164154)
(X_431  0.15000000596046448)
(X_432  0.12254902720451355)
(X_433  0.22254902124404907)
(X_434  0.16568627953529358)
(X_435  0.2088235467672348)
(X_436  0.3127451241016388)
(X_437  0.25)
(X_438  0.24607843160629272)
(X_439  0.2656862735748291)
(X_440  0.25)
(X_441  0.25784313678741455)
(X_442  0.18529412150382996)
(X_443  0.1931372582912445)
(X_444  0.20490197837352753)
(X_445  0.15784314274787903)
(X_446  0.12647059559822083)
(X_447  0.22647058963775635)
(X_448  0.24607843160629272)
(X_449  0.15000000596046448)
(X_450  0.15392157435417175)
(X_451  0.24607843160629272)
(X_452  0.23039215803146362)
(X_453  0.20686274766921997)
(X_454  0.19117647409439087)
(X_455  0.18333333730697632)
(X_456  0.2852941155433655)
(X_457  0.24607843160629272)
(X_458  0.21470588445663452)
(X_459  0.2186274528503418)
(X_460  0.12647059559822083)
(X_461  0.12254902720451355)
(X_462  0.11862745881080627)
(X_463  0.12254902720451355)
(X_464  0.0990196168422699)
(X_465  0.10686275362968445)
(X_466  0.21470588445663452)
(X_467  0.22647058963775635)
(X_468  0.23039215803146362)
(X_469  0.22647058963775635)
(X_470  0.22254902124404907)
(X_471  0.2186274528503418)
(X_472  0.24215686321258545)
(X_473  0.2343137264251709)
(X_474  0.2186274528503418)
(X_475  0.2029411792755127)
(X_476  0.08725491166114807)
(X_477  0.10294118523597717)
(X_478  0.21470588445663452)
(X_479  0.2029411792755127)
(X_480  0.07549020648002625)
(X_481  0.06372549384832382)
(X_482  0.07156863063573837)
(X_483  0.1872549057006836)
(X_484  0.23039215803146362)
(X_485  0.19509804248809814)
(X_486  0.16372549533843994)
(X_487  0.0676470622420311)
(X_488  0.07549020648002625)
(X_489  0.07156863063573837)
(X_490  0.0676470622420311)
(X_491  0.07156863063573837)
(X_492  0.07549020648002625)
(X_493  0.0833333432674408)
(X_494  0.19117647409439087)
(X_495  0.2029411792755127)
(X_496  0.2029411792755127)
(X_497  0.2029411792755127)
(X_498  0.19901961088180542)
(X_499  0.09509804844856262)
(X_500  0.21078431606292725)
(X_501  0.10686275362968445)
(X_502  0.09509804844856262)
(X_503  0.09117648005485535)
(X_504  0.10294118523597717)
(X_505  0.12647059559822083)
(X_506  0.14215686917304993)
(X_507  0.1303921639919281)
(X_508  0.10686275362968445)
(X_509  0.10294118523597717)
(X_510  0.23039215803146362)
(X_511  0.2617647051811218)
(X_512  0.0990196168422699)
(X_513  0.16764706373214722)
(X_514  0.14411765336990356)
(X_515  0.04803921654820442)
(X_516  0.0519607849419117)
(X_517  0.04803921654820442)
(X_518  0.04803921654820442)
(X_519  0.0519607849419117)
(X_520  0.0519607849419117)
(X_521  0.05588235333561897)
(X_522  0.06372549384832382)
(X_523  0.07156863063573837)
(X_524  0.07549020648002625)
(X_525  0.1715686321258545)
(X_526  0.16764706373214722)
(X_527  0.16764706373214722)
(X_528  0.0833333432674408)
(X_529  0.0833333432674408)
(X_530  0.0833333432674408)
(X_531  0.08725491166114807)
(X_532  0.15980392694473267)
(X_533  0.17941176891326904)
(X_534  0.19117647409439087)
(X_535  0.19117647409439087)
(X_536  0.07941177487373352)
(X_537  0.07941177487373352)
(X_538  0.0990196168422699)
(X_539  0.11862745881080627)
(X_540  0.09117648005485535)
(X_541  0.06372549384832382)
(X_542  0.14411765336990356)
(X_543  0.14803922176361084)
(X_544  0.05588235333561897)
(X_545  0.04803921654820442)
(X_546  0.04803921654820442)
(X_547  0.05588235333561897)
(X_548  0.1401960849761963)
(X_549  0.1401960849761963)
(X_550  0.04803921654820442)
(X_551  0.15196079015731812)
(X_552  0.15196079015731812)
(X_553  0.15196079015731812)
(X_554  0.15196079015731812)
(X_555  0.04803921654820442)
(X_556  0.17549020051956177)
(X_557  0.07941177487373352)
(X_558  0.1872549057006836)
(X_559  0.19509804248809814)
(X_560  0.1558823585510254)
(X_561  0.05588235333561897)
(X_562  0.15980392694473267)
(X_563  0.1715686321258545)
(X_564  0.07941177487373352)
(X_565  0.07549020648002625)
(X_566  0.0676470622420311)
(X_567  0.05980392172932625)
(X_568  0.16764706373214722)
(X_569  0.14803922176361084)
(X_570  0.136274516582489)
(X_571  0.1401960849761963)
(X_572  0.04411764815449715)
(X_573  0.036274511367082596)
(X_574  0.036274511367082596)
(X_575  0.04803921654820442)
(X_576  0.04019607976078987)
(X_577  0.04019607976078987)
(X_578  0.04411764815449715)
(X_579  0.14411765336990356)
(X_580  0.04803921654820442)
(X_581  0.04803921654820442)
(X_582  0.14803922176361084)
(X_583  0.14411765336990356)
(X_584  0.16764706373214722)
(X_585  0.07549020648002625)
(X_586  0.0833333432674408)
(X_587  0.08725491166114807)
(X_588  0.22647058963775635)
(X_589  0.11862745881080627)
(X_590  0.114705890417099)
(X_591  0.12647059559822083)
(X_592  0.13823530077934265)
(X_593  0.13431373238563538)
(X_594  0.21078431606292725)
(X_595  0.1872549057006836)
(X_596  0.1558823585510254)
(X_597  0.1401960849761963)
(X_598  0.13235294818878174)
(X_599  0.04019607976078987)
(X_600  0.04019607976078987)
(X_601  0.03235294297337532)
(X_602  0.036274511367082596)
(X_603  0.0519607849419117)
(X_604  0.14411765336990356)
(X_605  0.14411765336990356)
(X_606  0.14411765336990356)
(X_607  0.14411765336990356)
(X_608  0.14411765336990356)
(X_609  0.04411764815449715)
(X_610  0.14411765336990356)
(X_611  0.14411765336990356)
(X_612  0.04803921654820442)
(X_613  0.0519607849419117)
(X_614  0.05588235333561897)
(X_615  0.15980392694473267)
(X_616  0.2029411792755127)
(X_617  0.19509804248809814)
(X_618  0.09117648005485535)
(X_619  0.09117648005485535)
(X_620  0.09117648005485535)
(X_621  0.18333333730697632)
(X_622  0.16764706373214722)
(X_623  0.1558823585510254)
(X_624  0.14803922176361084)
(X_625  0.136274516582489)
(X_626  0.136274516582489)
(X_627  0.14411765336990356)
(X_628  0.04019607976078987)
(X_629  0.03235294297337532)
(X_630  0.036274511367082596)
(X_631  0.05588235333561897)
(X_632  0.1401960849761963)
(X_633  0.136274516582489)
(X_634  0.136274516582489)
(X_635  0.03235294297337532)
(X_636  0.13235294818878174)
(X_637  0.136274516582489)
(X_638  0.136274516582489)
(X_639  0.036274511367082596)
(X_640  0.028431374579668045)
(X_641  0.028431374579668045)
(X_642  0.13235294818878174)
(X_643  0.13235294818878174)
(X_644  0.0519607849419117)
(X_645  0.05588235333561897)
(X_646  0.15196079015731812)
(X_647  0.136274516582489)
(X_648  0.12058823555707932)
(X_649  0.012745101936161518)
(X_650  0.01666666939854622)
(X_651  0.12843137979507446)
(X_652  0.12843137979507446)
(X_653  0.01666666939854622)
(X_654  0.020588237792253494)
(X_655  0.028431374579668045)
(X_656  0.02450980618596077)
(X_657  0.01666666939854622)
(X_658  0.020588237792253494)
(X_659  0.04019607976078987)
(X_660  0.13235294818878174)
(X_661  0.13235294818878174)
(X_662  0.12843137979507446)
(X_663  0.02450980618596077)
(X_664  0.02450980618596077)
(X_665  0.02450980618596077)
(X_666  0.12843137979507446)
(X_667  0.028431374579668045)
(X_668  0.01666666939854622)
(X_669  0.01666666939854622)
(X_670  0.01666666939854622)
(X_671  0.020588237792253494)
(X_672  0.12058823555707932)
(X_673  0.028431374579668045)
(X_674  0.03235294297337532)
(X_675  0.028431374579668045)
(X_676  0.020588237792253494)
(X_677  0.12058823555707932)
(X_678  0.12450980395078659)
(X_679  0.12843137979507446)
(X_680  0.020588237792253494)
(X_681  0.11666666716337204)
(X_682  0.11274509876966476)
(X_683  0.10882353037595749)
(X_684  0.11274509876966476)
(X_685  0.01666666939854622)
(X_686  0.02450980618596077)
(X_687  0.028431374579668045)
(X_688  0.12450980395078659)
(X_689  0.12058823555707932)
(X_690  0.01666666939854622)
(X_691  0.012745101936161518)
(X_692  0.11274509876966476)
(X_693  0.012745101936161518)
(X_694  0.012745101936161518)
(X_695  0.01666666939854622)
(X_696  0.12450980395078659)
(X_697  0.12450980395078659)
(X_698  0.12450980395078659)
(X_699  0.12450980395078659)
(X_700  0.11666666716337204)
(X_701  0.02450980618596077)
(X_702  0.028431374579668045)
(X_703  0.02450980618596077)
(X_704  0.01666666939854622)
(X_705  0.01666666939854622)
(X_706  0.020588237792253494)
(X_707  0.02450980618596077)
(X_708  0.01666666939854622)
(X_709  0.01666666939854622)
(X_710  0.012745101936161518)
(X_711  0.10882353037595749)
(X_712  0.10882353037595749)
(X_713  0.01666666939854622)
(X_714  0.020588237792253494)
(X_715  0.028431374579668045)
(X_716  0.12450980395078659)
(X_717  0.12058823555707932)
(X_718  0.01666666939854622)
(X_719  0.012745101936161518)
(X_720  0.012745101936161518)
(X_721  0.012745101936161518)
(X_722  0.11274509876966476)
(X_723  0.11666666716337204)
(X_724  0.11666666716337204)
(X_725  0.11666666716337204)
(X_726  0.11666666716337204)
(X_727  0.11666666716337204)
(X_728  0.10882353037595749)
(X_729  0.01666666939854622)
(X_730  0.12058823555707932)
(X_731  0.11666666716337204)
(X_732  0.11274509876966476)
(X_733  0.10882353037595749)
(X_734  0.11666666716337204)
(X_735  0.12058823555707932)
(X_736  0.11666666716337204)
(X_737  0.11274509876966476)
(X_738  0.008823529817163944)
(X_739  0.008823529817163944)
(X_740  0.008823529817163944)
(X_741  0.01666666939854622)
(X_742  0.020588237792253494)
(X_743  0.02450980618596077)
(X_744  0.020588237792253494)
(X_745  0.020588237792253494)
(X_746  0.11666666716337204)
(X_747  0.012745101936161518)
(X_748  0.11274509876966476)
(X_749  0.11274509876966476)
(X_750  0.11274509876966476)
(X_751  0.11274509876966476)
(X_752  0.10882353037595749)
(X_753  0.10882353037595749)
(X_754  0.10882353037595749)
(X_755  0.10882353037595749)
(X_756  0.10098039358854294)
(X_757  0.10882353037595749)
(X_758  0.11274509876966476)
(X_759  0.11274509876966476)
(X_760  0.008823529817163944)
(X_761  0.004901961423456669)
(X_762  0.11274509876966476)
(X_763  0.11666666716337204)
(X_764  0.01666666939854622)
(X_765  0.012745101936161518)
(X_766  0.008823529817163944)
(X_767  0.004901961423456669)
(X_768  0.008823529817163944)
(X_769  0.012745101936161518)
(X_770  0.020588237792253494)
(X_771  0.02450980618596077)
(X_772  0.020588237792253494)
(X_773  0.01666666939854622)
(X_774  0.012745101936161518)
(X_775  0.11274509876966476)
(X_776  0.10882353037595749)
(X_777  0.10882353037595749)
(X_778  0.012745101936161518)
(X_779  0.012745101936161518)
(X_780  0.004901961423456669)
(X_781  0.004901961423456669)
(X_782  0.004901961423456669)
(X_783  0.004901961423456669)
(Y_0 -33.58366775512695)
(Y_1 52.109981536865234)
(Y_2 -29.770618438720703)
(Y_3 12.920656204223633))