((X_0  0.5009803771972656)
(X_1  0.385294109582901)
(X_2  0.3735294044017792)
(X_3  0.37745097279548645)
(X_4  0.3656862676143646)
(X_5  0.34215685725212097)
(X_6  0.43431374430656433)
(X_7  0.4421568810939789)
(X_8  0.3911764919757843)
(X_9  0.387254923582077)
(X_10  0.27941176295280457)
(X_11  0.26372548937797546)
(X_12  0.3480392396450043)
(X_13  0.3284313976764679)
(X_14  0.21666668355464935)
(X_15  0.2088235467672348)
(X_16  0.18137255311012268)
(X_17  0.18137255311012268)
(X_18  0.17352941632270813)
(X_19  0.16568627953529358)
(X_20  0.15392157435417175)
(X_21  0.13823530077934265)
(X_22  0.1303921639919281)
(X_23  0.22254902124404907)
(X_24  0.09509804844856262)
(X_25  0.09117648005485535)
(X_26  0.07941177487373352)
(X_27  0.0676470622420311)
(X_28  0.16372549533843994)
(X_29  0.0519607849419117)
(X_30  0.04803921654820442)
(X_31  0.1558823585510254)
(X_32  0.04803921654820442)
(X_33  0.03235294297337532)
(X_34  0.028431374579668045)
(X_35  0.04019607976078987)
(X_36  0.05588235333561897)
(X_37  0.05588235333561897)
(X_38  0.1558823585510254)
(X_39  0.1558823585510254)
(X_40  0.15196079015731812)
(X_41  0.14411765336990356)
(X_42  0.1401960849761963)
(X_43  0.136274516582489)
(X_44  0.14411765336990356)
(X_45  0.14803922176361084)
(X_46  0.04803921654820442)
(X_47  0.04803921654820442)
(X_48  0.14803922176361084)
(X_49  0.04411764815449715)
(X_50  0.14411765336990356)
(X_51  0.1401960849761963)
(X_52  0.1715686321258545)
(X_53  0.0676470622420311)
(X_54  0.05980392172932625)
(X_55  0.05588235333561897)
(X_56  0.1715686321258545)
(X_57  0.05980392172932625)
(X_58  0.06372549384832382)
(X_59  0.17549020051956177)
(X_60  0.17941176891326904)
(X_61  0.07156863063573837)
(X_62  0.07156863063573837)
(X_63  0.0833333432674408)
(X_64  0.02450980618596077)
(X_65  0.028431374579668045)
(X_66  0.03235294297337532)
(X_67  0.1401960849761963)
(X_68  0.14411765336990356)
(X_69  0.14411765336990356)
(X_70  0.14411765336990356)
(X_71  0.14411765336990356)
(X_72  0.04803921654820442)
(X_73  0.04803921654820442)
(X_74  0.0519607849419117)
(X_75  0.05588235333561897)
(X_76  0.05980392172932625)
(X_77  0.16372549533843994)
(X_78  0.16764706373214722)
(X_79  0.16764706373214722)
(X_80  0.15980392694473267)
(X_81  0.15980392694473267)
(X_82  0.1558823585510254)
(X_83  0.1558823585510254)
(X_84  0.04411764815449715)
(X_85  0.036274511367082596)
(X_86  0.036274511367082596)
(X_87  0.05588235333561897)
(X_88  0.15980392694473267)
(X_89  0.15196079015731812)
(X_90  0.1558823585510254)
(X_91  0.16764706373214722)
(X_92  0.15980392694473267)
(X_93  0.15980392694473267)
(X_94  0.16372549533843994)
(X_95  0.16764706373214722)
(X_96  0.16764706373214722)
(X_97  0.0676470622420311)
(X_98  0.0676470622420311)
(X_99  0.06372549384832382)
(X_100  0.05980392172932625)
(X_101  0.05980392172932625)
(X_102  0.15980392694473267)
(X_103  0.1558823585510254)
(X_104  0.1558823585510254)
(X_105  0.1558823585510254)
(X_106  0.1558823585510254)
(X_107  0.15980392694473267)
(X_108  0.06372549384832382)
(X_109  0.0676470622420311)
(X_110  0.16764706373214722)
(X_111  0.1715686321258545)
(X_112  0.16764706373214722)
(X_113  0.15980392694473267)
(X_114  0.15980392694473267)
(X_115  0.1715686321258545)
(X_116  0.17549020051956177)
(X_117  0.16372549533843994)
(X_118  0.16764706373214722)
(X_119  0.17941176891326904)
(X_120  0.136274516582489)
(X_121  0.036274511367082596)
(X_122  0.04019607976078987)
(X_123  0.04019607976078987)
(X_124  0.1401960849761963)
(X_125  0.036274511367082596)
(X_126  0.036274511367082596)
(X_127  0.03235294297337532)
(X_128  0.0519607849419117)
(X_129  0.14803922176361084)
(X_130  0.14411765336990356)
(X_131  0.036274511367082596)
(X_132  0.03235294297337532)
(X_133  0.03235294297337532)
(X_134  0.03235294297337532)
(X_135  0.036274511367082596)
(X_136  0.1558823585510254)
(X_137  0.1558823585510254)
(X_138  0.15980392694473267)
(X_139  0.06372549384832382)
(X_140  0.05588235333561897)
(X_141  0.04411764815449715)
(X_142  0.04411764815449715)
(X_143  0.0519607849419117)
(X_144  0.0519607849419117)
(X_145  0.036274511367082596)
(X_146  0.036274511367082596)
(X_147  0.04803921654820442)
(X_148  0.1401960849761963)
(X_149  0.14411765336990356)
(X_150  0.14803922176361084)
(X_151  0.15196079015731812)
(X_152  0.1558823585510254)
(X_153  0.1558823585510254)
(X_154  0.05588235333561897)
(X_155  0.1558823585510254)
(X_156  0.05980392172932625)
(X_157  0.05588235333561897)
(X_158  0.04803921654820442)
(X_159  0.04411764815449715)
(X_160  0.04411764815449715)
(X_161  0.15196079015731812)
(X_162  0.1558823585510254)
(X_163  0.15980392694473267)
(X_164  0.136274516582489)
(X_165  0.136274516582489)
(X_166  0.13235294818878174)
(X_167  0.13235294818878174)
(X_168  0.0519607849419117)
(X_169  0.04019607976078987)
(X_170  0.04019607976078987)
(X_171  0.04803921654820442)
(X_172  0.04803921654820442)
(X_173  0.03235294297337532)
(X_174  0.12843137979507446)
(X_175  0.1401960849761963)
(X_176  0.13235294818878174)
(X_177  0.136274516582489)
(X_178  0.1401960849761963)
(X_179  0.14411765336990356)
(X_180  0.14803922176361084)
(X_181  0.14803922176361084)
(X_182  0.14411765336990356)
(X_183  0.14411765336990356)
(X_184  0.036274511367082596)
(X_185  0.03235294297337532)
(X_186  0.02450980618596077)
(X_187  0.020588237792253494)
(X_188  0.02450980618596077)
(X_189  0.028431374579668045)
(X_190  0.136274516582489)
(X_191  0.14411765336990356)
(X_192  0.136274516582489)
(X_193  0.13235294818878174)
(X_194  0.12450980395078659)
(X_195  0.12058823555707932)
(X_196  0.15196079015731812)
(X_197  0.136274516582489)
(X_198  0.136274516582489)
(X_199  0.14803922176361084)
(X_200  0.04411764815449715)
(X_201  0.03235294297337532)
(X_202  0.03235294297337532)
(X_203  0.04411764815449715)
(X_204  0.04019607976078987)
(X_205  0.1401960849761963)
(X_206  0.1401960849761963)
(X_207  0.04019607976078987)
(X_208  0.04019607976078987)
(X_209  0.036274511367082596)
(X_210  0.13235294818878174)
(X_211  0.12843137979507446)
(X_212  0.1558823585510254)
(X_213  0.14803922176361084)
(X_214  0.1401960849761963)
(X_215  0.13235294818878174)
(X_216  0.028431374579668045)
(X_217  0.03235294297337532)
(X_218  0.04019607976078987)
(X_219  0.14411765336990356)
(X_220  0.1558823585510254)
(X_221  0.04803921654820442)
(X_222  0.036274511367082596)
(X_223  0.028431374579668045)
(X_224  0.14411765336990356)
(X_225  0.04803921654820442)
(X_226  0.04411764815449715)
(X_227  0.04019607976078987)
(X_228  0.036274511367082596)
(X_229  0.036274511367082596)
(X_230  0.04411764815449715)
(X_231  0.0519607849419117)
(X_232  0.16372549533843994)
(X_233  0.15196079015731812)
(X_234  0.14803922176361084)
(X_235  0.15980392694473267)
(X_236  0.16372549533843994)
(X_237  0.15196079015731812)
(X_238  0.1558823585510254)
(X_239  0.16764706373214722)
(X_240  0.020588237792253494)
(X_241  0.136274516582489)
(X_242  0.15980392694473267)
(X_243  0.1715686321258545)
(X_244  0.0676470622420311)
(X_245  0.05980392172932625)
(X_246  0.0519607849419117)
(X_247  0.04803921654820442)
(X_248  0.10882353037595749)
(X_249  0.01666666939854622)
(X_250  0.028431374579668045)
(X_251  0.036274511367082596)
(X_252  0.136274516582489)
(X_253  0.14411765336990356)
(X_254  0.04803921654820442)
(X_255  0.04803921654820442)
(X_256  0.14411765336990356)
(X_257  0.13235294818878174)
(X_258  0.028431374579668045)
(X_259  0.02450980618596077)
(X_260  0.04019607976078987)
(X_261  0.13235294818878174)
(X_262  0.136274516582489)
(X_263  0.14803922176361084)
(X_264  0.14411765336990356)
(X_265  0.12058823555707932)
(X_266  0.10882353037595749)
(X_267  0.012745101936161518)
(X_268  0.05980392172932625)
(X_269  0.05980392172932625)
(X_270  0.0519607849419117)
(X_271  0.04019607976078987)
(X_272  0.020588237792253494)
(X_273  0.008823529817163944)
(X_274  0.008823529817163944)
(X_275  0.008823529817163944)
(X_276  0.05980392172932625)
(X_277  0.05980392172932625)
(X_278  0.1558823585510254)
(X_279  0.1558823585510254)
(X_280  0.29901960492134094)
(X_281  0.2911764681339264)
(X_282  0.2754901945590973)
(X_283  0.24411766231060028)
(X_284  0.19705882668495178)
(X_285  0.24215686321258545)
(X_286  0.09509804844856262)
(X_287  0.0676470622420311)
(X_288  0.04803921654820442)
(X_289  0.136274516582489)
(X_290  0.136274516582489)
(X_291  0.14803922176361084)
(X_292  0.15196079015731812)
(X_293  0.14803922176361084)
(X_294  0.05588235333561897)
(X_295  0.07549020648002625)
(X_296  0.10098039358854294)
(X_297  0.12058823555707932)
(X_298  0.0519607849419117)
(X_299  0.07941177487373352)
(X_300  0.11078432202339172)
(X_301  0.13823530077934265)
(X_302  0.2696078419685364)
(X_303  0.28921568393707275)
(X_304  0.27352941036224365)
(X_305  0.2696078419685364)
(X_306  0.1617647111415863)
(X_307  0.15392157435417175)
(X_308  0.3892156779766083)
(X_309  0.3892156779766083)
(X_310  0.3892156779766083)
(X_311  0.385294109582901)
(X_312  0.3735294044017792)
(X_313  0.3499999940395355)
(X_314  0.3225490152835846)
(X_315  0.40294119715690613)
(X_316  0.16960784792900085)
(X_317  0.12254902720451355)
(X_318  0.07549020648002625)
(X_319  0.04019607976078987)
(X_320  0.12058823555707932)
(X_321  0.11274509876966476)
(X_322  0.13235294818878174)
(X_323  0.15980392694473267)
(X_324  0.16568627953529358)
(X_325  0.30098041892051697)
(X_326  0.3480392396450043)
(X_327  0.2872548997402191)
(X_328  0.31078431010246277)
(X_329  0.3225490152835846)
(X_330  0.32647058367729187)
(X_331  0.32647058367729187)
(X_332  0.4539215862751007)
(X_333  0.4539215862751007)
(X_334  0.457843154668808)
(X_335  0.457843154668808)
(X_336  0.36764708161354065)
(X_337  0.3637255132198334)
(X_338  0.36764708161354065)
(X_339  0.3794117867946625)
(X_340  0.3950980603694916)
(X_341  0.4068627655506134)
(X_342  0.3029411733150482)
(X_343  0.29901960492134094)
(X_344  0.41862747073173523)
(X_345  0.3754902184009552)
(X_346  0.3284313976764679)
(X_347  0.20098040997982025)
(X_348  0.28921568393707275)
(X_349  0.2852941155433655)
(X_350  0.3088235557079315)
(X_351  0.240196093916893)
(X_352  0.25196078419685364)
(X_353  0.2754901945590973)
(X_354  0.3029411733150482)
(X_355  0.3186274468898773)
(X_356  0.31470587849617004)
(X_357  0.3029411733150482)
(X_358  0.2911764681339264)
(X_359  0.38333335518836975)
(X_360  0.3754902184009552)
(X_361  0.28333333134651184)
(X_362  0.2911764681339264)
(X_363  0.40294119715690613)
(X_364  0.3029411733150482)
(X_365  0.28333333134651184)
(X_366  0.2558823525905609)
(X_367  0.344117671251297)
(X_368  0.344117671251297)
(X_369  0.33627453446388245)
(X_370  0.3245098292827606)
(X_371  0.3127451241016388)
(X_372  0.2088235467672348)
(X_373  0.1931372582912445)
(X_374  0.18921568989753723)
(X_375  0.19705882668495178)
(X_376  0.29313725233078003)
(X_377  0.2852941155433655)
(X_378  0.28921568393707275)
(X_379  0.20098040997982025)
(X_380  0.2245098203420639)
(X_381  0.3284313976764679)
(X_382  0.3284313976764679)
(X_383  0.3284313976764679)
(X_384  0.3245098292827606)
(X_385  0.33235296607017517)
(X_386  0.24411766231060028)
(X_387  0.2558823525905609)
(X_388  0.36764708161354065)
(X_389  0.36764708161354065)
(X_390  0.27156862616539)
(X_391  0.27156862616539)
(X_392  0.5421568751335144)
(X_393  0.5264706015586853)
(X_394  0.6186274886131287)
(X_395  0.6264706254005432)
(X_396  0.6500000357627869)
(X_397  0.6696078777313232)
(X_398  0.6696078777313232)
(X_399  0.5656862854957581)
(X_400  0.5029411911964417)
(X_401  0.48725491762161255)
(X_402  0.479411780834198)
(X_403  0.4754902124404907)
(X_404  0.45196080207824707)
(X_405  0.41274508833885193)
(X_406  0.4852941334247589)
(X_407  0.48137256503105164)
(X_408  0.4049019515514374)
(X_409  0.3970588147640228)
(X_410  0.37745097279548645)
(X_411  0.3539215624332428)
(X_412  0.3343137204647064)
(X_413  0.4264706075191498)
(X_414  0.43431374430656433)
(X_415  0.4421568810939789)
(X_416  0.34215685725212097)
(X_417  0.33039215207099915)
(X_418  0.41470590233802795)
(X_419  0.39901962876319885)
(X_420  0.3343137204647064)
(X_421  0.33039215207099915)
(X_422  0.43039217591285706)
(X_423  0.457843154668808)
(X_424  0.5009803771972656)
(X_425  0.5284313559532166)
(X_426  0.4323529303073883)
(X_427  0.5284313559532166)
(X_428  0.520588219165802)
(X_429  0.5088235139846802)
(X_430  0.4166666567325592)
(X_431  0.4362744987010956)
(X_432  0.5480391979217529)
(X_433  0.5441176295280457)
(X_434  0.551960825920105)
(X_435  0.47156864404678345)
(X_436  0.479411780834198)
(X_437  0.48725491762161255)
(X_438  0.4990196228027344)
(X_439  0.4990196228027344)
(X_440  0.4911764860153198)
(X_441  0.48725491762161255)
(X_442  0.48725491762161255)
(X_443  0.48725491762161255)
(X_444  0.6264706254005432)
(X_445  0.6107843518257141)
(X_446  0.5833333730697632)
(X_447  0.5558823943138123)
(X_448  0.14215686917304993)
(X_449  0.22647058963775635)
(X_450  0.2343137264251709)
(X_451  0.2696078419685364)
(X_452  0.28921568393707275)
(X_453  0.2852941155433655)
(X_454  0.28921568393707275)
(X_455  0.30490198731422424)
(X_456  0.3088235557079315)
(X_457  0.19705882668495178)
(X_458  0.18137255311012268)
(X_459  0.16960784792900085)
(X_460  0.2696078419685364)
(X_461  0.2813725471496582)
(X_462  0.2970588207244873)
(X_463  0.3088235557079315)
(X_464  0.31666669249534607)
(X_465  0.31666669249534607)
(X_466  0.3245098292827606)
(X_467  0.2245098203420639)
(X_468  0.22058825194835663)
(X_469  0.2088235467672348)
(X_470  0.20098040997982025)
(X_471  0.29313725233078003)
(X_472  0.2852941155433655)
(X_473  0.30098041892051697)
(X_474  0.2245098203420639)
(X_475  0.3480392396450043)
(X_476  0.10294118523597717)
(X_477  0.1872549057006836)
(X_478  0.08725491166114807)
(X_479  0.11078432202339172)
(X_480  0.12254902720451355)
(X_481  0.114705890417099)
(X_482  0.11862745881080627)
(X_483  0.1303921639919281)
(X_484  0.12647059559822083)
(X_485  0.12254902720451355)
(X_486  0.11862745881080627)
(X_487  0.114705890417099)
(X_488  0.21470588445663452)
(X_489  0.2186274528503418)
(X_490  0.22254902124404907)
(X_491  0.22647058963775635)
(X_492  0.17941176891326904)
(X_493  0.08725491166114807)
(X_494  0.0990196168422699)
(X_495  0.11078432202339172)
(X_496  0.114705890417099)
(X_497  0.114705890417099)
(X_498  0.114705890417099)
(X_499  0.21078431606292725)
(X_500  0.14215686917304993)
(X_501  0.15000000596046448)
(X_502  0.1617647111415863)
(X_503  0.2696078419685364)
(X_504  0.09117648005485535)
(X_505  0.0676470622420311)
(X_506  0.15980392694473267)
(X_507  0.16764706373214722)
(X_508  0.1715686321258545)
(X_509  0.16764706373214722)
(X_510  0.0676470622420311)
(X_511  0.07549020648002625)
(X_512  0.0519607849419117)
(X_513  0.05588235333561897)
(X_514  0.06372549384832382)
(X_515  0.0676470622420311)
(X_516  0.0676470622420311)
(X_517  0.16372549533843994)
(X_518  0.1558823585510254)
(X_519  0.15196079015731812)
(X_520  0.16764706373214722)
(X_521  0.17549020051956177)
(X_522  0.08725491166114807)
(X_523  0.0990196168422699)
(X_524  0.11078432202339172)
(X_525  0.114705890417099)
(X_526  0.11862745881080627)
(X_527  0.11862745881080627)
(X_528  0.0990196168422699)
(X_529  0.10294118523597717)
(X_530  0.10294118523597717)
(X_531  0.10294118523597717)
(X_532  0.07941177487373352)
(X_533  0.06372549384832382)
(X_534  0.04803921654820442)
(X_535  0.04411764815449715)
(X_536  0.04803921654820442)
(X_537  0.14803922176361084)
(X_538  0.14803922176361084)
(X_539  0.04803921654820442)
(X_540  0.036274511367082596)
(X_541  0.1401960849761963)
(X_542  0.15196079015731812)
(X_543  0.1558823585510254)
(X_544  0.1558823585510254)
(X_545  0.0519607849419117)
(X_546  0.04019607976078987)
(X_547  0.136274516582489)
(X_548  0.15196079015731812)
(X_549  0.1558823585510254)
(X_550  0.16372549533843994)
(X_551  0.16764706373214722)
(X_552  0.07156863063573837)
(X_553  0.07156863063573837)
(X_554  0.07156863063573837)
(X_555  0.0676470622420311)
(X_556  0.05980392172932625)
(X_557  0.05980392172932625)
(X_558  0.05980392172932625)
(X_559  0.05588235333561897)
(X_560  0.04803921654820442)
(X_561  0.04019607976078987)
(X_562  0.02450980618596077)
(X_563  0.01666666939854622)
(X_564  0.020588237792253494)
(X_565  0.028431374579668045)
(X_566  0.03235294297337532)
(X_567  0.028431374579668045)
(X_568  0.14411765336990356)
(X_569  0.14411765336990356)
(X_570  0.04803921654820442)
(X_571  0.04803921654820442)
(X_572  0.14803922176361084)
(X_573  0.04803921654820442)
(X_574  0.04411764815449715)
(X_575  0.04411764815449715)
(X_576  0.12058823555707932)
(X_577  0.12450980395078659)
(X_578  0.12450980395078659)
(X_579  0.12450980395078659)
(X_580  0.020588237792253494)
(X_581  0.020588237792253494)
(X_582  0.01666666939854622)
(X_583  0.01666666939854622)
(X_584  0.02450980618596077)
(X_585  0.12450980395078659)
(X_586  0.12058823555707932)
(X_587  0.12058823555707932)
(X_588  0.12450980395078659)
(X_589  0.12843137979507446)
(X_590  0.11666666716337204)
(X_591  0.10882353037595749)
(X_592  0.11274509876966476)
(X_593  0.13235294818878174)
(X_594  0.03235294297337532)
(X_595  0.020588237792253494)
(X_596  0.03235294297337532)
(X_597  0.028431374579668045)
(X_598  0.028431374579668045)
(X_599  0.12450980395078659)
(X_600  0.12450980395078659)
(X_601  0.12843137979507446)
(X_602  0.12843137979507446)
(X_603  0.13235294818878174)
(X_604  0.12843137979507446)
(X_605  0.12843137979507446)
(X_606  0.028431374579668045)
(X_607  0.12843137979507446)
(X_608  0.12843137979507446)
(X_609  0.12843137979507446)
(X_610  0.03235294297337532)
(X_611  0.03235294297337532)
(X_612  0.12450980395078659)
(X_613  0.12058823555707932)
(X_614  0.01666666939854622)
(X_615  0.11274509876966476)
(X_616  0.11666666716337204)
(X_617  0.12450980395078659)
(X_618  0.020588237792253494)
(X_619  0.008823529817163944)
(X_620  0.01666666939854622)
(X_621  0.03235294297337532)
(X_622  0.028431374579668045)
(X_623  0.008823529817163944)
(X_624  0.11274509876966476)
(X_625  0.11274509876966476)
(X_626  0.11274509876966476)
(X_627  0.012745101936161518)
(X_628  0.012745101936161518)
(X_629  0.11274509876966476)
(X_630  0.11274509876966476)
(X_631  0.11274509876966476)
(X_632  0.004901961423456669)
(X_633  0.10098039358854294)
(X_634  0.10098039358854294)
(X_635  0.10098039358854294)
(X_636  0.10098039358854294)
(X_637  0.10490196198225021)
(X_638  0.10882353037595749)
(X_639  0.10882353037595749)
(X_640  0.12058823555707932)
(X_641  0.11666666716337204)
(X_642  0.01666666939854622)
(X_643  0.11274509876966476)
(X_644  0.09705882519483566)
(X_645  0.11274509876966476)
(X_646  0.10882353037595749)
(X_647  -0.0029411755967885256)
(X_648  0.0009803927969187498)
(X_649  0.020588237792253494)
(X_650  0.012745101936161518)
(X_651  -0.014705880545079708)
(X_652  0.0009803927969187498)
(X_653  0.004901961423456669)
(X_654  0.012745101936161518)
(X_655  0.01666666939854622)
(X_656  0.11666666716337204)
(X_657  0.11274509876966476)
(X_658  0.10490196198225021)
(X_659  0.10098039358854294)
(X_660  0.11666666716337204)
(X_661  0.11666666716337204)
(X_662  0.008823529817163944)
(X_663  0.004901961423456669)
(X_664  0.0009803927969187498)
(X_665  0.0009803927969187498)
(X_666  0.0009803927969187498)
(X_667  0.0009803927969187498)
(X_668  -0.010784312151372433)
(X_669  -0.006862743757665157)
(X_670  -0.006862743757665157)
(X_671  0.09705882519483566)
(X_672  0.004901961423456669)
(X_673  0.10490196198225021)
(X_674  0.10490196198225021)
(X_675  0.10490196198225021)
(X_676  0.10490196198225021)
(X_677  0.10490196198225021)
(X_678  0.10490196198225021)
(X_679  0.10490196198225021)
(X_680  0.10490196198225021)
(X_681  0.10490196198225021)
(X_682  0.10490196198225021)
(X_683  0.004901961423456669)
(X_684  0.004901961423456669)
(X_685  0.10490196198225021)
(X_686  0.10490196198225021)
(X_687  0.10490196198225021)
(X_688  0.10490196198225021)
(X_689  0.10490196198225021)
(X_690  0.10098039358854294)
(X_691  0.09705882519483566)
(X_692  0.09705882519483566)
(X_693  0.10098039358854294)
(X_694  0.10490196198225021)
(X_695  0.10490196198225021)
(X_696  0.11274509876966476)
(X_697  0.008823529817163944)
(X_698  0.004901961423456669)
(X_699  0.004901961423456669)
(X_700  0.0009803927969187498)
(X_701  0.10098039358854294)
(X_702  0.10098039358854294)
(X_703  0.10098039358854294)
(X_704  0.10098039358854294)
(X_705  0.0009803927969187498)
(X_706  0.0009803927969187498)
(X_707  0.0009803927969187498)
(X_708  0.0009803927969187498)
(X_709  0.0009803927969187498)
(X_710  0.0009803927969187498)
(X_711  0.0009803927969187498)
(X_712  0.0009803927969187498)
(X_713  0.0009803927969187498)
(X_714  0.10098039358854294)
(X_715  0.10098039358854294)
(X_716  0.0009803927969187498)
(X_717  0.0009803927969187498)
(X_718  -0.0029411755967885256)
(X_719  -0.0029411755967885256)
(X_720  -0.0029411755967885256)
(X_721  -0.0029411755967885256)
(X_722  0.0009803927969187498)
(X_723  0.0009803927969187498)
(X_724  0.008823529817163944)
(X_725  0.004901961423456669)
(X_726  0.0009803927969187498)
(X_727  0.0009803927969187498)
(X_728  -0.0029411755967885256)
(X_729  0.09705882519483566)
(X_730  -0.0029411755967885256)
(X_731  0.09705882519483566)
(X_732  0.09705882519483566)
(X_733  0.09705882519483566)
(X_734  0.09705882519483566)
(X_735  0.09705882519483566)
(X_736  -0.0029411755967885256)
(X_737  -0.0029411755967885256)
(X_738  -0.0029411755967885256)
(X_739  -0.0029411755967885256)
(X_740  -0.0029411755967885256)
(X_741  -0.0029411755967885256)
(X_742  -0.0029411755967885256)
(X_743  -0.0029411755967885256)
(X_744  -0.0029411755967885256)
(X_745  -0.006862743757665157)
(X_746  -0.006862743757665157)
(X_747  -0.010784312151372433)
(X_748  -0.010784312151372433)
(X_749  0.09313725680112839)
(X_750  0.09313725680112839)
(X_751  0.09705882519483566)
(X_752  0.10490196198225021)
(X_753  0.10098039358854294)
(X_754  0.09705882519483566)
(X_755  0.09313725680112839)
(X_756  -0.006862743757665157)
(X_757  -0.006862743757665157)
(X_758  -0.006862743757665157)
(X_759  0.09313725680112839)
(X_760  0.09313725680112839)
(X_761  0.09313725680112839)
(X_762  0.09313725680112839)
(X_763  -0.006862743757665157)
(X_764  0.09313725680112839)
(X_765  -0.006862743757665157)
(X_766  0.09313725680112839)
(X_767  0.09313725680112839)
(X_768  0.09313725680112839)
(X_769  0.09313725680112839)
(X_770  0.09313725680112839)
(X_771  0.09313725680112839)
(X_772  0.09313725680112839)
(X_773  -0.010784312151372433)
(X_774  -0.010784312151372433)
(X_775  -0.014705880545079708)
(X_776  -0.014705880545079708)
(X_777  -0.010784312151372433)
(X_778  0.08921568840742111)
(X_779  0.09313725680112839)
(X_780  0.10098039358854294)
(X_781  0.09705882519483566)
(X_782  0.09313725680112839)
(X_783  -0.010784312151372433)
(Y_0 21.654743194580078)
(Y_1 13.768819808959961)
(Y_2 9.763842582702637)
(Y_3 -46.78493881225586))