((X_0  1.0499999523162842)
(X_1  0.949999988079071)
(X_2  0.949999988079071)
(X_3  0.949999988079071)
(X_4  1.0499999523162842)
(X_5  0.949999988079071)
(X_6  0.949999988079071)
(X_7  0.949999988079071)
(X_8  1.0226325988769531)
(X_9  1.0499999523162842)
(X_10  1.0499999523162842)
(X_11  1.0421568155288696)
(X_12  1.0382353067398071)
(X_13  1.0499999523162842)
(X_14  1.0499999523162842)
(X_15  1.002967119216919)
(X_16  0.9382352828979492)
(X_17  0.949999988079071)
(X_18  0.949999988079071)
(X_19  0.9382352828979492)
(X_20  1.0421568155288696)
(X_21  1.0499999523162842)
(X_22  1.0499999523162842)
(X_23  1.0421568155288696)
(X_24  1.0499999523162842)
(X_25  1.0499999523162842)
(X_26  0.9421568512916565)
(X_27  1.0421568155288696)
(X_28  1.034313678741455)
(X_29  0.9382352828979492)
(X_30  0.9460784196853638)
(X_31  0.949999988079071)
(X_32  0.949999988079071)
(X_33  0.9460784196853638)
(X_34  0.9421568512916565)
(X_35  1.0382353067398071)
(X_36  1.0499999523162842)
(X_37  1.0304757356643677)
(X_38  0.949999988079071)
(X_39  0.9421568512916565)
(X_40  0.9382352828979492)
(X_41  0.949999988079071)
(X_42  1.0460784435272217)
(X_43  0.9303921461105347)
(X_44  1.0499999523162842)
(X_45  1.0499999523162842)
(X_46  0.985268235206604)
(X_47  0.9460784196853638)
(X_48  0.9303921461105347)
(X_49  0.9343137145042419)
(X_50  0.9264705777168274)
(X_51  0.9107843041419983)
(X_52  1.018627405166626)
(X_53  0.9107843041419983)
(X_54  0.8990195989608765)
(X_55  0.9950980544090271)
(X_56  0.6421568989753723)
(X_57  0.5460784435272217)
(X_58  0.5539215803146362)
(X_59  0.5578431487083435)
(X_60  0.5617647171020508)
(X_61  0.5578431487083435)
(X_62  0.5539215803146362)
(X_63  0.5539215803146362)
(X_64  0.6264706254005432)
(X_65  0.5343137383460999)
(X_66  0.5303921699523926)
(X_67  0.5499740839004517)
(X_68  0.5068627595901489)
(X_69  0.5107843279838562)
(X_70  0.5068627595901489)
(X_71  0.4950980544090271)
(X_72  0.45588237047195435)
(X_73  0.4598039388656616)
(X_74  0.44411763548851013)
(X_75  0.41274508833885193)
(X_76  0.49705883860588074)
(X_77  0.49313727021217346)
(X_78  0.48137256503105164)
(X_79  0.46568629145622253)
(X_80  0.4107843339443207)
(X_81  0.40294119715690613)
(X_82  0.2911764681339264)
(X_83  0.387254923582077)
(X_84  0.21078431606292725)
(X_85  0.21470588445663452)
(X_86  0.22254902124404907)
(X_87  0.22647058963775635)
(X_88  0.23039215803146362)
(X_89  0.1303921639919281)
(X_90  0.12647059559822083)
(X_91  0.12254902720451355)
(X_92  0.13823530077934265)
(X_93  0.14215686917304993)
(X_94  0.13823530077934265)
(X_95  0.1303921639919281)
(X_96  0.22647058963775635)
(X_97  0.22647058963775635)
(X_98  0.22647058963775635)
(X_99  0.2186274528503418)
(X_100  0.22647058963775635)
(X_101  0.23039215803146362)
(X_102  0.22254902124404907)
(X_103  0.19901961088180542)
(X_104  0.09117648005485535)
(X_105  0.0990196168422699)
(X_106  0.09509804844856262)
(X_107  0.0833333432674408)
(X_108  0.13431373238563538)
(X_109  0.12647059559822083)
(X_110  0.11862745881080627)
(X_111  0.2186274528503418)
(X_112  0.1303921639919281)
(X_113  0.23823529481887817)
(X_114  0.22263266146183014)
(X_115  0.15000000596046448)
(X_116  0.15000000596046448)
(X_117  0.15000000596046448)
(X_118  0.1460784375667572)
(X_119  0.14215686917304993)
(X_120  0.11078432202339172)
(X_121  0.10686275362968445)
(X_122  0.10686275362968445)
(X_123  0.11078432202339172)
(X_124  0.11078432202339172)
(X_125  0.11078432202339172)
(X_126  0.11078432202339172)
(X_127  0.114705890417099)
(X_128  0.22647058963775635)
(X_129  0.2343137264251709)
(X_130  0.23039215803146362)
(X_131  0.21470588445663452)
(X_132  0.2186274528503418)
(X_133  0.23823529481887817)
(X_134  0.24607843160629272)
(X_135  0.23823529481887817)
(X_136  0.23039215803146362)
(X_137  0.1617388129234314)
(X_138  0.12254902720451355)
(X_139  0.22254902124404907)
(X_140  0.19901961088180542)
(X_141  0.2029411792755127)
(X_142  0.20686274766921997)
(X_143  0.21078431606292725)
(X_144  0.11078432202339172)
(X_145  0.10686275362968445)
(X_146  0.10294118523597717)
(X_147  0.16375139355659485)
(X_148  0.2186274528503418)
(X_149  0.21078431606292725)
(X_150  0.14997410774230957)
(X_151  0.20694638788700104)
(X_152  0.23039215803146362)
(X_153  0.22254902124404907)
(X_154  0.22254902124404907)
(X_155  0.2343137264251709)
(X_156  0.08725491166114807)
(X_157  0.17557384073734283)
(X_158  0.1872549057006836)
(X_159  0.1715686321258545)
(X_160  0.17549020051956177)
(X_161  0.09509804844856262)
(X_162  0.10686275362968445)
(X_163  0.2029411792755127)
(X_164  0.0990196168422699)
(X_165  0.09117648005485535)
(X_166  0.08725491166114807)
(X_167  0.19117647409439087)
(X_168  0.11862745881080627)
(X_169  0.22254902124404907)
(X_170  0.19120237231254578)
(X_171  0.22647058963775635)
(X_172  0.22254902124404907)
(X_173  0.18335923552513123)
(X_174  0.11078432202339172)
(X_175  0.10686275362968445)
(X_176  0.20686274766921997)
(X_177  0.19509804248809814)
(X_178  0.09509804844856262)
(X_179  0.11078432202339172)
(X_180  0.21078431606292725)
(X_181  0.0990196168422699)
(X_182  0.0990196168422699)
(X_183  0.114705890417099)
(X_184  0.22254902124404907)
(X_185  0.23039215803146362)
(X_186  0.22254902124404907)
(X_187  0.2029411792755127)
(X_188  0.20686274766921997)
(X_189  0.12647059559822083)
(X_190  0.13823530077934265)
(X_191  0.2343137264251709)
(X_192  0.22647058963775635)
(X_193  0.2186274528503418)
(X_194  0.11078432202339172)
(X_195  0.11078432202339172)
(X_196  0.114705890417099)
(X_197  0.21470588445663452)
(X_198  0.2186274528503418)
(X_199  0.114705890417099)
(X_200  0.11078432202339172)
(X_201  0.2029411792755127)
(X_202  0.11462225019931793)
(X_203  0.09117648005485535)
(X_204  0.12254902720451355)
(X_205  0.10686275362968445)
(X_206  0.10294118523597717)
(X_207  0.2186274528503418)
(X_208  0.11862745881080627)
(X_209  0.0990196168422699)
(X_210  0.09509804844856262)
(X_211  0.1460525393486023)
(X_212  0.20686274766921997)
(X_213  0.21078431606292725)
(X_214  0.13820940256118774)
(X_215  0.12252312898635864)
(X_216  0.09117648005485535)
(X_217  0.114705890417099)
(X_218  0.22647058963775635)
(X_219  0.22254902124404907)
(X_220  0.22254902124404907)
(X_221  0.21078431606292725)
(X_222  0.0990196168422699)
(X_223  0.19509804248809814)
(X_224  0.05980392172932625)
(X_225  0.10294118523597717)
(X_226  0.23039215803146362)
(X_227  0.2186274528503418)
(X_228  0.0990196168422699)
(X_229  0.10686275362968445)
(X_230  0.12647059559822083)
(X_231  0.14215686917304993)
(X_232  0.29313725233078003)
(X_233  0.2245098203420639)
(X_234  0.2598039209842682)
(X_235  0.2598039209842682)
(X_236  0.2245098203420639)
(X_237  0.1774509847164154)
(X_238  0.15000000596046448)
(X_239  0.14215686917304993)
(X_240  0.14215686917304993)
(X_241  0.1460784375667572)
(X_242  0.2617647051811218)
(X_243  0.24215686321258545)
(X_244  0.19901961088180542)
(X_245  0.2186274528503418)
(X_246  0.2343137264251709)
(X_247  0.10294118523597717)
(X_248  0.08725491166114807)
(X_249  0.0990196168422699)
(X_250  0.114705890417099)
(X_251  0.2186274528503418)
(X_252  0.12254902720451355)
(X_253  0.1303921639919281)
(X_254  0.1303921639919281)
(X_255  0.20302481949329376)
(X_256  0.2539215683937073)
(X_257  0.3245098292827606)
(X_258  0.3950980603694916)
(X_259  0.3343137204647064)
(X_260  0.3539215624332428)
(X_261  0.3382352888584137)
(X_262  0.31078431010246277)
(X_263  0.2872548997402191)
(X_264  0.27156862616539)
(X_265  0.29507213830947876)
(X_266  0.3480392396450043)
(X_267  0.3401961028575897)
(X_268  0.26372548937797546)
(X_269  0.3911764919757843)
(X_270  0.45000001788139343)
(X_271  0.43041807413101196)
(X_272  0.3186274468898773)
(X_273  0.3794117867946625)
(X_274  0.3245098292827606)
(X_275  0.14215686917304993)
(X_276  0.114705890417099)
(X_277  0.0990196168422699)
(X_278  0.07941177487373352)
(X_279  0.07549020648002625)
(X_280  0.16764706373214722)
(X_281  0.21078431606292725)
(X_282  0.2343396246433258)
(X_283  0.2245098203420639)
(X_284  0.28333333134651184)
(X_285  0.4264706075191498)
(X_286  0.4382353127002716)
(X_287  0.43039217591285706)
(X_288  0.26764705777168274)
(X_289  0.2754901945590973)
(X_290  0.27941176295280457)
(X_291  0.2754901945590973)
(X_292  0.26372548937797546)
(X_293  0.2558823525905609)
(X_294  0.2558823525905609)
(X_295  0.2598039209842682)
(X_296  0.31666669249534607)
(X_297  0.22843138873577118)
(X_298  0.27941176295280457)
(X_299  0.3186274468898773)
(X_300  0.4225490391254425)
(X_301  0.457843154668808)
(X_302  0.4735294282436371)
(X_303  0.34215685725212097)
(X_304  0.24411766231060028)
(X_305  0.1931372582912445)
(X_306  0.1303921639919281)
(X_307  0.09117648005485535)
(X_308  0.2696078419685364)
(X_309  0.344117671251297)
(X_310  0.3343137204647064)
(X_311  0.3892156779766083)
(X_312  0.3970588147640228)
(X_313  0.3578431308269501)
(X_314  0.28333333134651184)
(X_315  0.22058825194835663)
(X_316  0.29313725233078003)
(X_317  0.3480392396450043)
(X_318  0.39901962876319885)
(X_319  0.39901962876319885)
(X_320  0.2598039209842682)
(X_321  0.23235295712947845)
(X_322  0.24803923070430756)
(X_323  0.2754901945590973)
(X_324  0.3029411733150482)
(X_325  0.26764705777168274)
(X_326  0.2558823525905609)
(X_327  0.3401961028575897)
(X_328  0.32058826088905334)
(X_329  0.36764708161354065)
(X_330  0.4421568810939789)
(X_331  0.457843154668808)
(X_332  0.3656862676143646)
(X_333  0.3186274468898773)
(X_334  0.2558823525905609)
(X_335  0.20490197837352753)
(X_336  0.45000001788139343)
(X_337  0.48137256503105164)
(X_338  0.4892157018184662)
(X_339  0.3499999940395355)
(X_340  0.3911764919757843)
(X_341  0.3480392396450043)
(X_342  0.31666669249534607)
(X_343  0.19705882668495178)
(X_344  0.3911764919757843)
(X_345  0.4225490391254425)
(X_346  0.43047577142715454)
(X_347  0.3382352888584137)
(X_348  0.29901960492134094)
(X_349  0.2558823525905609)
(X_350  0.240196093916893)
(X_351  0.344117671251297)
(X_352  0.3950980603694916)
(X_353  0.3754902184009552)
(X_354  0.387254923582077)
(X_355  0.3754902184009552)
(X_356  0.32058826088905334)
(X_357  0.3088235557079315)
(X_358  0.3284313976764679)
(X_359  0.32058826088905334)
(X_360  0.43431374430656433)
(X_361  0.43039217591285706)
(X_362  0.3225490152835846)
(X_363  0.31470587849617004)
(X_364  0.3186274468898773)
(X_365  0.38728082180023193)
(X_366  0.3911764919757843)
(X_367  0.3245098292827606)
(X_368  0.2813725471496582)
(X_369  0.2970588207244873)
(X_370  0.24411766231060028)
(X_371  0.28333333134651184)
(X_372  0.3539215624332428)
(X_373  0.3696078360080719)
(X_374  0.5009803771972656)
(X_375  0.5362744927406311)
(X_376  0.44019606709480286)
(X_377  0.385294109582901)
(X_378  0.2872548997402191)
(X_379  0.2088235467672348)
(X_380  0.18529412150382996)
(X_381  0.27352941036224365)
(X_382  0.32058826088905334)
(X_383  0.3754902184009552)
(X_384  0.3559659719467163)
(X_385  0.27156862616539)
(X_386  0.2754901945590973)
(X_387  0.24803923070430756)
(X_388  0.3284313976764679)
(X_389  0.35196080803871155)
(X_390  0.2872548997402191)
(X_391  0.3068627417087555)
(X_392  0.33627453446388245)
(X_393  0.344117671251297)
(X_394  0.23627452552318573)
(X_395  0.2932209074497223)
(X_396  0.32058826088905334)
(X_397  0.3715686500072479)
(X_398  0.4382353127002716)
(X_399  0.3735294044017792)
(X_400  0.3578431308269501)
(X_401  0.3813725411891937)
(X_402  0.42450979351997375)
(X_403  0.5676470994949341)
(X_404  0.5107583999633789)
(X_405  0.4362744987010956)
(X_406  0.3696078360080719)
(X_407  0.41470590233802795)
(X_408  0.4107843339443207)
(X_409  0.33235296607017517)
(X_410  0.31666669249534607)
(X_411  0.36764708161354065)
(X_412  0.40294119715690613)
(X_413  0.43431374430656433)
(X_414  0.43431374430656433)
(X_415  0.3950980603694916)
(X_416  0.2165830284357071)
(X_417  0.20490197837352753)
(X_418  0.2245098203420639)
(X_419  0.24411766231060028)
(X_420  0.2088235467672348)
(X_421  0.20490197837352753)
(X_422  0.18529412150382996)
(X_423  0.17352941632270813)
(X_424  0.19705882668495178)
(X_425  0.2558823525905609)
(X_426  0.4068627655506134)
(X_427  0.4264706075191498)
(X_428  0.3225490152835846)
(X_429  0.4382353127002716)
(X_430  0.3382352888584137)
(X_431  0.29901960492134094)
(X_432  0.25196078419685364)
(X_433  0.3637255132198334)
(X_434  0.3343137204647064)
(X_435  0.4049019515514374)
(X_436  0.4696078598499298)
(X_437  0.3401961028575897)
(X_438  0.2774509787559509)
(X_439  0.32058826088905334)
(X_440  0.3480651378631592)
(X_441  0.3420732617378235)
(X_442  0.3029411733150482)
(X_443  0.240196093916893)
(X_444  0.22058825194835663)
(X_445  0.2088235467672348)
(X_446  0.20098040997982025)
(X_447  0.31666669249534607)
(X_448  0.344117671251297)
(X_449  0.29714247584342957)
(X_450  0.17352941632270813)
(X_451  0.15784314274787903)
(X_452  0.20098040997982025)
(X_453  0.26764705777168274)
(X_454  0.3911764919757843)
(X_455  0.3754902184009552)
(X_456  0.4382353127002716)
(X_457  0.3911764919757843)
(X_458  0.3245098292827606)
(X_459  0.2656862735748291)
(X_460  0.2304757982492447)
(X_461  0.2087976336479187)
(X_462  0.21666668355464935)
(X_463  0.25196078419685364)
(X_464  0.3029411733150482)
(X_465  0.3225490152835846)
(X_466  0.29509803652763367)
(X_467  0.3637255132198334)
(X_468  0.3715686500072479)
(X_469  0.3754902184009552)
(X_470  0.39901962876319885)
(X_471  0.457843154668808)
(X_472  0.40294119715690613)
(X_473  0.3794117867946625)
(X_474  0.344117671251297)
(X_475  0.3127451241016388)
(X_476  0.20490197837352753)
(X_477  0.20098040997982025)
(X_478  0.29313725233078003)
(X_479  0.30098041892051697)
(X_480  0.240196093916893)
(X_481  0.27156862616539)
(X_482  0.2558823525905609)
(X_483  0.2813984751701355)
(X_484  0.3558823764324188)
(X_485  0.3284313976764679)
(X_486  0.2852941155433655)
(X_487  0.15392157435417175)
(X_488  0.14215686917304993)
(X_489  0.15784314274787903)
(X_490  0.22056233882904053)
(X_491  0.20490197837352753)
(X_492  0.28333333134651184)
(X_493  0.3538379669189453)
(X_494  0.45000001788139343)
(X_495  0.4539215862751007)
(X_496  0.4696078598499298)
(X_497  0.44607844948768616)
(X_498  0.43039217591285706)
(X_499  0.3539215624332428)
(X_500  0.49705883860588074)
(X_501  0.3892156779766083)
(X_502  0.3813725411891937)
(X_503  0.3696078360080719)
(X_504  0.33030855655670166)
(X_505  0.31470587849617004)
(X_506  0.41470590233802795)
(X_507  0.43039217591285706)
(X_508  0.45000001788139343)
(X_509  0.41865336894989014)
(X_510  0.3755161166191101)
(X_511  0.3284572958946228)
(X_512  0.1774509847164154)
(X_513  0.18913204967975616)
(X_514  0.22649648785591125)
(X_515  0.15392157435417175)
(X_516  0.15392157435417175)
(X_517  0.15784314274787903)
(X_518  0.1617647111415863)
(X_519  0.16960784792900085)
(X_520  0.15784314274787903)
(X_521  0.20098040997982025)
(X_522  0.20490197837352753)
(X_523  0.20490197837352753)
(X_524  0.2245098203420639)
(X_525  0.31666669249534607)
(X_526  0.3127451241016388)
(X_527  0.344117671251297)
(X_528  0.3107007145881653)
(X_529  0.29901960492134094)
(X_530  0.31470587849617004)
(X_531  0.33039215207099915)
(X_532  0.3794117867946625)
(X_533  0.3637255132198334)
(X_534  0.3480392396450043)
(X_535  0.344117671251297)
(X_536  0.3480392396450043)
(X_537  0.240196093916893)
(X_538  0.20490197837352753)
(X_539  0.20487606525421143)
(X_540  0.11862745881080627)
(X_541  0.22647058963775635)
(X_542  0.23823529481887817)
(X_543  0.24607843160629272)
(X_544  0.1460784375667572)
(X_545  0.14215686917304993)
(X_546  0.13823530077934265)
(X_547  0.1303921639919281)
(X_548  0.19509804248809814)
(X_549  0.22254902124404907)
(X_550  0.11078432202339172)
(X_551  0.18341697752475739)
(X_552  0.22647058963775635)
(X_553  0.22647058963775635)
(X_554  0.12647059559822083)
(X_555  0.16568627953529358)
(X_556  0.27352941036224365)
(X_557  0.2244839072227478)
(X_558  0.3127451241016388)
(X_559  0.33235296607017517)
(X_560  0.3715686500072479)
(X_561  0.25196078419685364)
(X_562  0.23235295712947845)
(X_563  0.23235295712947845)
(X_564  0.23627452552318573)
(X_565  0.22058825194835663)
(X_566  0.19705882668495178)
(X_567  0.1774509847164154)
(X_568  0.0833333432674408)
(X_569  0.1559082567691803)
(X_570  0.16767296195030212)
(X_571  0.10686275362968445)
(X_572  0.11078432202339172)
(X_573  0.10294118523597717)
(X_574  0.09509804844856262)
(X_575  0.09117648005485535)
(X_576  0.07156863063573837)
(X_577  0.114705890417099)
(X_578  0.12647059559822083)
(X_579  0.2343137264251709)
(X_580  0.2539215683937073)
(X_581  0.1303921639919281)
(X_582  0.11854381859302521)
(X_583  0.1715945303440094)
(X_584  0.16168107092380524)
(X_585  0.15000000596046448)
(X_586  0.1617647111415863)
(X_587  0.17352941632270813)
(X_588  0.2343137264251709)
(X_589  0.12254902720451355)
(X_590  0.1303921639919281)
(X_591  0.15392157435417175)
(X_592  0.16568627953529358)
(X_593  0.14215686917304993)
(X_594  0.21470588445663452)
(X_595  0.19901961088180542)
(X_596  0.18333333730697632)
(X_597  0.18333333730697632)
(X_598  0.09117648005485535)
(X_599  0.09509804844856262)
(X_600  0.09117648005485535)
(X_601  0.08725491166114807)
(X_602  0.0833333432674408)
(X_603  0.07941177487373352)
(X_604  0.1715686321258545)
(X_605  0.19509804248809814)
(X_606  0.18333333730697632)
(X_607  0.17549020051956177)
(X_608  0.19509804248809814)
(X_609  0.18333333730697632)
(X_610  0.15980392694473267)
(X_611  0.14414355158805847)
(X_612  0.10294118523597717)
(X_613  0.10294118523597717)
(X_614  0.10686275362968445)
(X_615  0.20686274766921997)
(X_616  0.17549020051956177)
(X_617  0.16372549533843994)
(X_618  0.07549020648002625)
(X_619  0.10686275362968445)
(X_620  0.11862745881080627)
(X_621  0.19509804248809814)
(X_622  0.16764706373214722)
(X_623  0.16372549533843994)
(X_624  0.17549020051956177)
(X_625  0.17941176891326904)
(X_626  0.1872549057006836)
(X_627  0.19117647409439087)
(X_628  0.09117648005485535)
(X_629  0.0833333432674408)
(X_630  0.07941177487373352)
(X_631  0.11075842380523682)
(X_632  0.19117647409439087)
(X_633  0.11854381859302521)
(X_634  0.14027971029281616)
(X_635  0.12067186832427979)
(X_636  0.16372549533843994)
(X_637  0.16372549533843994)
(X_638  0.16372549533843994)
(X_639  0.12644469738006592)
(X_640  0.0833333432674408)
(X_641  0.11860156059265137)
(X_642  0.18333333730697632)
(X_643  0.1872549057006836)
(X_644  0.1872549057006836)
(X_645  0.06372549384832382)
(X_646  0.1558823585510254)
(X_647  0.1715686321258545)
(X_648  0.17549020051956177)
(X_649  0.1558823585510254)
(X_650  0.14803922176361084)
(X_651  0.1558823585510254)
(X_652  0.14803922176361084)
(X_653  0.05588235333561897)
(X_654  0.06372549384832382)
(X_655  0.07156863063573837)
(X_656  0.07156863063573837)
(X_657  0.0676470622420311)
(X_658  0.05980392172932625)
(X_659  0.05588235333561897)
(X_660  0.12843137979507446)
(X_661  0.15980392694473267)
(X_662  0.16372549533843994)
(X_663  0.16764706373214722)
(X_664  0.09509804844856262)
(X_665  0.1715686321258545)
(X_666  0.13235294818878174)
(X_667  0.03235294297337532)
(X_668  0.04411764815449715)
(X_669  0.04803921654820442)
(X_670  0.0519607849419117)
(X_671  0.05980392172932625)
(X_672  0.1401960849761963)
(X_673  0.04019607976078987)
(X_674  0.04411764815449715)
(X_675  0.04411764815449715)
(X_676  0.04411764815449715)
(X_677  0.14803922176361084)
(X_678  0.14803922176361084)
(X_679  0.14803922176361084)
(X_680  0.15980392694473267)
(X_681  0.1558823585510254)
(X_682  0.14803922176361084)
(X_683  0.15196079015731812)
(X_684  0.1558823585510254)
(X_685  0.09115056693553925)
(X_686  0.0519607849419117)
(X_687  0.04411764815449715)
(X_688  0.1401960849761963)
(X_689  0.15196079015731812)
(X_690  0.05980392172932625)
(X_691  0.06372549384832382)
(X_692  0.1558823585510254)
(X_693  0.15196079015731812)
(X_694  0.0519607849419117)
(X_695  0.15196079015731812)
(X_696  0.14411765336990356)
(X_697  0.14803922176361084)
(X_698  0.15196079015731812)
(X_699  0.1558823585510254)
(X_700  0.136274516582489)
(X_701  0.036274511367082596)
(X_702  0.1401960849761963)
(X_703  0.1401960849761963)
(X_704  0.108849436044693)
(X_705  0.04411764815449715)
(X_706  0.04411764815449715)
(X_707  0.04411764815449715)
(X_708  0.05588235333561897)
(X_709  0.0519607849419117)
(X_710  0.14411765336990356)
(X_711  0.14803922176361084)
(X_712  0.15196079015731812)
(X_713  0.0519607849419117)
(X_714  0.04803921654820442)
(X_715  0.04019607976078987)
(X_716  0.13235294818878174)
(X_717  0.04019607976078987)
(X_718  0.04803921654820442)
(X_719  0.0519607849419117)
(X_720  0.06364186108112335)
(X_721  0.1401960849761963)
(X_722  0.1401960849761963)
(X_723  0.1401960849761963)
(X_724  0.1401960849761963)
(X_725  0.14411765336990356)
(X_726  0.14803922176361084)
(X_727  0.15196079015731812)
(X_728  0.13235294818878174)
(X_729  0.03235294297337532)
(X_730  0.136274516582489)
(X_731  0.136274516582489)
(X_732  0.136274516582489)
(X_733  0.1401960849761963)
(X_734  0.1401960849761963)
(X_735  0.1401960849761963)
(X_736  0.15196079015731812)
(X_737  0.14411765336990356)
(X_738  0.04019607976078987)
(X_739  0.04019607976078987)
(X_740  0.04411764815449715)
(X_741  0.04803921654820442)
(X_742  0.04019607976078987)
(X_743  0.036274511367082596)
(X_744  0.020588237792253494)
(X_745  0.028431374579668045)
(X_746  0.036274511367082596)
(X_747  0.036274511367082596)
(X_748  0.028431374579668045)
(X_749  0.02450980618596077)
(X_750  0.02450980618596077)
(X_751  0.028431374579668045)
(X_752  0.13235294818878174)
(X_753  0.136274516582489)
(X_754  0.1401960849761963)
(X_755  0.14411765336990356)
(X_756  0.12843137979507446)
(X_757  0.028431374579668045)
(X_758  0.12843137979507446)
(X_759  0.13235294818878174)
(X_760  0.03235294297337532)
(X_761  0.136274516582489)
(X_762  0.136274516582489)
(X_763  0.11675029993057251)
(X_764  0.12459343671798706)
(X_765  0.1401960849761963)
(X_766  0.0676211565732956)
(X_767  0.036274511367082596)
(X_768  0.04019607976078987)
(X_769  0.04019607976078987)
(X_770  0.036274511367082596)
(X_771  0.028431374579668045)
(X_772  0.020588237792253494)
(X_773  0.02450980618596077)
(X_774  0.028431374579668045)
(X_775  0.028431374579668045)
(X_776  0.12058823555707932)
(X_777  0.11666666716337204)
(X_778  0.11666666716337204)
(X_779  0.12450980395078659)
(X_780  0.028431374579668045)
(X_781  0.028431374579668045)
(X_782  0.03235294297337532)
(X_783  0.036274511367082596)
(Y_0 -21.644611358642578)
(Y_1 18.254392623901367)
(Y_2 -21.093534469604492)
(Y_3 24.949234008789062))