((X_0  0.31078431010246277)
(X_1  0.3029411733150482)
(X_2  0.3911764919757843)
(X_3  0.3794117867946625)
(X_4  0.3715686500072479)
(X_5  0.26764705777168274)
(X_6  0.26764705777168274)
(X_7  0.36764708161354065)
(X_8  0.240196093916893)
(X_9  0.3284313976764679)
(X_10  0.3401961028575897)
(X_11  0.23627452552318573)
(X_12  0.31666669249534607)
(X_13  0.3401961028575897)
(X_14  0.23627452552318573)
(X_15  0.2813725471496582)
(X_16  0.2774509787559509)
(X_17  0.2656862735748291)
(X_18  0.2656862735748291)
(X_19  0.2852941155433655)
(X_20  0.30490198731422424)
(X_21  0.2970588207244873)
(X_22  0.27352941036224365)
(X_23  0.25784313678741455)
(X_24  0.13431373238563538)
(X_25  0.2343137264251709)
(X_26  0.23823529481887817)
(X_27  0.13823530077934265)
(X_28  0.028431374579668045)
(X_29  0.028431374579668045)
(X_30  0.13235294818878174)
(X_31  0.028431374579668045)
(X_32  0.028431374579668045)
(X_33  0.12843137979507446)
(X_34  0.136274516582489)
(X_35  0.1401960849761963)
(X_36  0.16764706373214722)
(X_37  0.14803922176361084)
(X_38  0.1558823585510254)
(X_39  0.04803921654820442)
(X_40  0.12843137979507446)
(X_41  0.14411765336990356)
(X_42  0.14803922176361084)
(X_43  0.09705882519483566)
(X_44  0.1558823585510254)
(X_45  0.14411765336990356)
(X_46  0.1401960849761963)
(X_47  0.14803922176361084)
(X_48  0.15196079015731812)
(X_49  0.14411765336990356)
(X_50  0.12843137979507446)
(X_51  0.11274509876966476)
(X_52  0.04411764815449715)
(X_53  0.14803922176361084)
(X_54  0.15196079015731812)
(X_55  0.05588235333561897)
(X_56  0.04019607976078987)
(X_57  0.15196079015731812)
(X_58  0.1558823585510254)
(X_59  0.15196079015731812)
(X_60  0.1401960849761963)
(X_61  0.136274516582489)
(X_62  0.14803922176361084)
(X_63  0.15980392694473267)
(X_64  0.15196079015731812)
(X_65  0.13235294818878174)
(X_66  0.14411765336990356)
(X_67  0.14411765336990356)
(X_68  0.12450980395078659)
(X_69  0.1401960849761963)
(X_70  0.14803922176361084)
(X_71  0.10882353037595749)
(X_72  0.13235294818878174)
(X_73  0.12058823555707932)
(X_74  0.10882353037595749)
(X_75  0.10490196198225021)
(X_76  0.01666666939854622)
(X_77  0.03235294297337532)
(X_78  0.04411764815449715)
(X_79  0.04803921654820442)
(X_80  0.03235294297337532)
(X_81  0.036274511367082596)
(X_82  0.04803921654820442)
(X_83  0.05588235333561897)
(X_84  0.028431374579668045)
(X_85  0.136274516582489)
(X_86  0.13235294818878174)
(X_87  0.01666666939854622)
(X_88  0.10098039358854294)
(X_89  0.09705882519483566)
(X_90  0.11274509876966476)
(X_91  0.12843137979507446)
(X_92  0.020588237792253494)
(X_93  0.11274509876966476)
(X_94  0.14803922176361084)
(X_95  0.17549020051956177)
(X_96  0.07549020648002625)
(X_97  0.0990196168422699)
(X_98  0.114705890417099)
(X_99  0.09117648005485535)
(X_100  0.0990196168422699)
(X_101  0.09117648005485535)
(X_102  0.16764706373214722)
(X_103  0.13235294818878174)
(X_104  0.12058823555707932)
(X_105  0.12843137979507446)
(X_106  0.1401960849761963)
(X_107  0.1401960849761963)
(X_108  0.012745101936161518)
(X_109  0.11666666716337204)
(X_110  0.12058823555707932)
(X_111  0.02450980618596077)
(X_112  0.13235294818878174)
(X_113  0.136274516582489)
(X_114  0.136274516582489)
(X_115  0.136274516582489)
(X_116  0.1401960849761963)
(X_117  0.1558823585510254)
(X_118  0.08725491166114807)
(X_119  0.11078432202339172)
(X_120  0.2852941155433655)
(X_121  0.2813725471496582)
(X_122  0.3245098292827606)
(X_123  0.3637255132198334)
(X_124  0.2558823525905609)
(X_125  0.26764705777168274)
(X_126  0.38333335518836975)
(X_127  0.3637255132198334)
(X_128  0.1774509847164154)
(X_129  0.20098040997982025)
(X_130  0.20490197837352753)
(X_131  0.16568627953529358)
(X_132  0.12254902720451355)
(X_133  0.08725491166114807)
(X_134  0.15196079015731812)
(X_135  0.020588237792253494)
(X_136  0.05588235333561897)
(X_137  0.04803921654820442)
(X_138  0.036274511367082596)
(X_139  0.02450980618596077)
(X_140  0.06372549384832382)
(X_141  0.07156863063573837)
(X_142  0.08725491166114807)
(X_143  0.11078432202339172)
(X_144  0.1460784375667572)
(X_145  0.2813725471496582)
(X_146  0.3088235557079315)
(X_147  0.3245098292827606)
(X_148  0.39901962876319885)
(X_149  0.26764705777168274)
(X_150  0.2754901945590973)
(X_151  0.26764705777168274)
(X_152  0.21274511516094208)
(X_153  0.1774509847164154)
(X_154  0.16960784792900085)
(X_155  0.25)
(X_156  0.21470588445663452)
(X_157  0.30098041892051697)
(X_158  0.28333333134651184)
(X_159  0.3068627417087555)
(X_160  0.29901960492134094)
(X_161  0.27941176295280457)
(X_162  0.240196093916893)
(X_163  0.20098040997982025)
(X_164  0.21470588445663452)
(X_165  0.2029411792755127)
(X_166  0.18333333730697632)
(X_167  0.0676470622420311)
(X_168  0.344117671251297)
(X_169  0.344117671251297)
(X_170  0.2558823525905609)
(X_171  0.28333333134651184)
(X_172  0.31078431010246277)
(X_173  0.3225490152835846)
(X_174  0.31078431010246277)
(X_175  0.29509803652763367)
(X_176  0.31470587849617004)
(X_177  0.2558823525905609)
(X_178  0.23235295712947845)
(X_179  0.1931372582912445)
(X_180  0.11078432202339172)
(X_181  0.05980392172932625)
(X_182  0.05588235333561897)
(X_183  0.04411764815449715)
(X_184  0.004901961423456669)
(X_185  0.114705890417099)
(X_186  0.22058825194835663)
(X_187  0.2754901945590973)
(X_188  0.4068627655506134)
(X_189  0.4421568810939789)
(X_190  0.45000001788139343)
(X_191  0.33039215207099915)
(X_192  0.34607842564582825)
(X_193  0.34215685725212097)
(X_194  0.4421568810939789)
(X_195  0.4382353127002716)
(X_196  0.4225490391254425)
(X_197  0.31470587849617004)
(X_198  0.31078431010246277)
(X_199  0.3186274468898773)
(X_200  0.3186274468898773)
(X_201  0.2872548997402191)
(X_202  0.2245098203420639)
(X_203  0.1774509847164154)
(X_204  0.22058825194835663)
(X_205  0.15784314274787903)
(X_206  0.2343137264251709)
(X_207  0.21078431606292725)
(X_208  0.14803922176361084)
(X_209  0.13235294818878174)
(X_210  0.16372549533843994)
(X_211  0.17941176891326904)
(X_212  0.07156863063573837)
(X_213  0.15000000596046448)
(X_214  0.3127451241016388)
(X_215  0.31666669249534607)
(X_216  0.23235295712947845)
(X_217  0.28333333134651184)
(X_218  0.3186274468898773)
(X_219  0.3225490152835846)
(X_220  0.3382352888584137)
(X_221  0.3499999940395355)
(X_222  0.4735294282436371)
(X_223  0.4892157018184662)
(X_224  0.3715686500072479)
(X_225  0.3715686500072479)
(X_226  0.35196080803871155)
(X_227  0.3245098292827606)
(X_228  0.3127451241016388)
(X_229  0.3088235557079315)
(X_230  0.1931372582912445)
(X_231  0.2656862735748291)
(X_232  0.0990196168422699)
(X_233  0.14803922176361084)
(X_234  0.1715686321258545)
(X_235  0.19117647409439087)
(X_236  0.13235294818878174)
(X_237  0.13235294818878174)
(X_238  0.16764706373214722)
(X_239  0.14803922176361084)
(X_240  0.16764706373214722)
(X_241  0.09117648005485535)
(X_242  0.13431373238563538)
(X_243  0.1774509847164154)
(X_244  0.20098040997982025)
(X_245  0.20098040997982025)
(X_246  0.2813725471496582)
(X_247  0.2617647051811218)
(X_248  0.2617647051811218)
(X_249  0.18921568989753723)
(X_250  0.23235295712947845)
(X_251  0.26764705777168274)
(X_252  0.21666668355464935)
(X_253  0.21666668355464935)
(X_254  0.30490198731422424)
(X_255  0.2852941155433655)
(X_256  0.18137255311012268)
(X_257  0.18921568989753723)
(X_258  0.1774509847164154)
(X_259  0.15784314274787903)
(X_260  0.136274516582489)
(X_261  0.11274509876966476)
(X_262  0.028431374579668045)
(X_263  0.14803922176361084)
(X_264  0.13235294818878174)
(X_265  0.04019607976078987)
(X_266  0.07156863063573837)
(X_267  0.07941177487373352)
(X_268  0.1872549057006836)
(X_269  0.19509804248809814)
(X_270  0.21078431606292725)
(X_271  0.23823529481887817)
(X_272  0.2656862735748291)
(X_273  0.2774509787559509)
(X_274  0.2696078419685364)
(X_275  0.25784313678741455)
(X_276  0.15784314274787903)
(X_277  0.2656862735748291)
(X_278  0.27352941036224365)
(X_279  0.2852941155433655)
(X_280  0.30490198731422424)
(X_281  0.20490197837352753)
(X_282  0.18921568989753723)
(X_283  0.2696078419685364)
(X_284  0.2617647051811218)
(X_285  0.16960784792900085)
(X_286  0.15784314274787903)
(X_287  0.13823530077934265)
(X_288  0.19901961088180542)
(X_289  0.2029411792755127)
(X_290  0.1872549057006836)
(X_291  0.19117647409439087)
(X_292  0.20686274766921997)
(X_293  0.10294118523597717)
(X_294  0.20686274766921997)
(X_295  0.2539215683937073)
(X_296  0.2343137264251709)
(X_297  0.21470588445663452)
(X_298  0.10294118523597717)
(X_299  0.11078432202339172)
(X_300  0.14215686917304993)
(X_301  0.16568627953529358)
(X_302  0.16960784792900085)
(X_303  0.2656862735748291)
(X_304  0.23039215803146362)
(X_305  0.13431373238563538)
(X_306  0.24215686321258545)
(X_307  0.25)
(X_308  0.33627453446388245)
(X_309  0.33235296607017517)
(X_310  0.3088235557079315)
(X_311  0.2774509787559509)
(X_312  0.2656862735748291)
(X_313  0.2617647051811218)
(X_314  0.24607843160629272)
(X_315  0.22647058963775635)
(X_316  0.19509804248809814)
(X_317  0.12254902720451355)
(X_318  0.08725491166114807)
(X_319  0.07156863063573837)
(X_320  0.114705890417099)
(X_321  0.19509804248809814)
(X_322  0.18333333730697632)
(X_323  0.25)
(X_324  0.2696078419685364)
(X_325  0.23823529481887817)
(X_326  0.11078432202339172)
(X_327  0.21470588445663452)
(X_328  0.23823529481887817)
(X_329  0.2656862735748291)
(X_330  0.27352941036224365)
(X_331  0.16960784792900085)
(X_332  0.23627452552318573)
(X_333  0.25196078419685364)
(X_334  0.3794117867946625)
(X_335  0.40294119715690613)
(X_336  0.4735294282436371)
(X_337  0.3696078360080719)
(X_338  0.3499999940395355)
(X_339  0.3225490152835846)
(X_340  0.31470587849617004)
(X_341  0.3186274468898773)
(X_342  0.31078431010246277)
(X_343  0.3911764919757843)
(X_344  0.22843138873577118)
(X_345  0.3598039448261261)
(X_346  0.33235296607017517)
(X_347  0.3284313976764679)
(X_348  0.3754902184009552)
(X_349  0.3637255132198334)
(X_350  0.3558823764324188)
(X_351  0.3225490152835846)
(X_352  0.3225490152835846)
(X_353  0.3029411733150482)
(X_354  0.27941176295280457)
(X_355  0.27941176295280457)
(X_356  0.29901960492134094)
(X_357  0.31470587849617004)
(X_358  0.31470587849617004)
(X_359  0.3068627417087555)
(X_360  0.2911764681339264)
(X_361  0.3029411733150482)
(X_362  0.3186274468898773)
(X_363  0.43039217591285706)
(X_364  0.31666669249534607)
(X_365  0.31666669249534607)
(X_366  0.20490197837352753)
(X_367  0.18921568989753723)
(X_368  0.19705882668495178)
(X_369  0.21666668355464935)
(X_370  0.22058825194835663)
(X_371  0.2088235467672348)
(X_372  0.28921568393707275)
(X_373  0.30098041892051697)
(X_374  0.28921568393707275)
(X_375  0.1931372582912445)
(X_376  0.21274511516094208)
(X_377  0.2970588207244873)
(X_378  0.2970588207244873)
(X_379  0.23627452552318573)
(X_380  0.20098040997982025)
(X_381  0.19705882668495178)
(X_382  0.1931372582912445)
(X_383  0.29313725233078003)
(X_384  0.2970588207244873)
(X_385  0.30098041892051697)
(X_386  0.1931372582912445)
(X_387  0.18921568989753723)
(X_388  0.20490197837352753)
(X_389  0.1931372582912445)
(X_390  0.27352941036224365)
(X_391  0.15392157435417175)
(X_392  0.12254902720451355)
(X_393  0.22254902124404907)
(X_394  0.20686274766921997)
(X_395  0.09117648005485535)
(X_396  0.09509804844856262)
(X_397  0.11862745881080627)
(X_398  0.12254902720451355)
(X_399  0.21078431606292725)
(X_400  0.0990196168422699)
(X_401  0.07549020648002625)
(X_402  0.09509804844856262)
(X_403  0.11078432202339172)
(X_404  0.0833333432674408)
(X_405  0.17549020051956177)
(X_406  0.1872549057006836)
(X_407  0.08725491166114807)
(X_408  0.19901961088180542)
(X_409  0.20686274766921997)
(X_410  0.2186274528503418)
(X_411  0.11862745881080627)
(X_412  0.11078432202339172)
(X_413  0.0990196168422699)
(X_414  0.09509804844856262)
(X_415  0.0990196168422699)
(X_416  0.23823529481887817)
(X_417  0.22254902124404907)
(X_418  0.2029411792755127)
(X_419  0.0833333432674408)
(X_420  0.24215686321258545)
(X_421  0.2343137264251709)
(X_422  0.20686274766921997)
(X_423  0.17549020051956177)
(X_424  0.16764706373214722)
(X_425  0.17549020051956177)
(X_426  0.16764706373214722)
(X_427  0.0519607849419117)
(X_428  0.136274516582489)
(X_429  0.09705882519483566)
(X_430  0.14803922176361084)
(X_431  0.1872549057006836)
(X_432  0.14803922176361084)
(X_433  0.05980392172932625)
(X_434  0.09509804844856262)
(X_435  0.17549020051956177)
(X_436  0.16764706373214722)
(X_437  0.1872549057006836)
(X_438  0.10294118523597717)
(X_439  0.0990196168422699)
(X_440  0.0833333432674408)
(X_441  0.0676470622420311)
(X_442  0.1715686321258545)
(X_443  0.17941176891326904)
(X_444  0.17549020051956177)
(X_445  0.18333333730697632)
(X_446  0.19117647409439087)
(X_447  0.0990196168422699)
(X_448  0.0990196168422699)
(X_449  0.09509804844856262)
(X_450  0.08725491166114807)
(X_451  0.07941177487373352)
(X_452  0.07156863063573837)
(X_453  0.0676470622420311)
(X_454  0.06372549384832382)
(X_455  0.06372549384832382)
(X_456  0.03235294297337532)
(X_457  0.03235294297337532)
(X_458  0.1401960849761963)
(X_459  0.14803922176361084)
(X_460  0.15980392694473267)
(X_461  0.0676470622420311)
(X_462  0.07156863063573837)
(X_463  0.07549020648002625)
(X_464  0.18333333730697632)
(X_465  0.17941176891326904)
(X_466  0.07549020648002625)
(X_467  0.07549020648002625)
(X_468  0.07549020648002625)
(X_469  0.07549020648002625)
(X_470  0.07941177487373352)
(X_471  0.0833333432674408)
(X_472  0.07941177487373352)
(X_473  0.07941177487373352)
(X_474  0.07941177487373352)
(X_475  0.07941177487373352)
(X_476  0.16764706373214722)
(X_477  0.0676470622420311)
(X_478  0.06372549384832382)
(X_479  0.05980392172932625)
(X_480  0.1558823585510254)
(X_481  0.1558823585510254)
(X_482  0.1558823585510254)
(X_483  0.15980392694473267)
(X_484  0.136274516582489)
(X_485  0.04019607976078987)
(X_486  0.04019607976078987)
(X_487  0.14411765336990356)
(X_488  0.14803922176361084)
(X_489  0.15196079015731812)
(X_490  0.1558823585510254)
(X_491  0.1558823585510254)
(X_492  0.15980392694473267)
(X_493  0.15980392694473267)
(X_494  0.1558823585510254)
(X_495  0.05588235333561897)
(X_496  0.05588235333561897)
(X_497  0.05588235333561897)
(X_498  0.05980392172932625)
(X_499  0.05980392172932625)
(X_500  0.0519607849419117)
(X_501  0.15196079015731812)
(X_502  0.15196079015731812)
(X_503  0.0519607849419117)
(X_504  0.028431374579668045)
(X_505  0.028431374579668045)
(X_506  0.028431374579668045)
(X_507  0.028431374579668045)
(X_508  0.13235294818878174)
(X_509  0.136274516582489)
(X_510  0.14411765336990356)
(X_511  0.04411764815449715)
(X_512  0.1401960849761963)
(X_513  0.036274511367082596)
(X_514  0.036274511367082596)
(X_515  0.036274511367082596)
(X_516  0.13235294818878174)
(X_517  0.13235294818878174)
(X_518  0.13235294818878174)
(X_519  0.13235294818878174)
(X_520  0.136274516582489)
(X_521  0.13235294818878174)
(X_522  0.13235294818878174)
(X_523  0.12843137979507446)
(X_524  0.12843137979507446)
(X_525  0.13235294818878174)
(X_526  0.03235294297337532)
(X_527  0.036274511367082596)
(X_528  0.12843137979507446)
(X_529  0.12843137979507446)
(X_530  0.12843137979507446)
(X_531  0.12843137979507446)
(X_532  0.008823529817163944)
(X_533  0.008823529817163944)
(X_534  0.008823529817163944)
(X_535  0.008823529817163944)
(X_536  0.11274509876966476)
(X_537  0.12058823555707932)
(X_538  0.12450980395078659)
(X_539  0.12843137979507446)
(X_540  0.12843137979507446)
(X_541  0.028431374579668045)
(X_542  0.02450980618596077)
(X_543  0.02450980618596077)
(X_544  0.12058823555707932)
(X_545  0.11666666716337204)
(X_546  0.11666666716337204)
(X_547  0.11666666716337204)
(X_548  0.020588237792253494)
(X_549  0.020588237792253494)
(X_550  0.01666666939854622)
(X_551  0.012745101936161518)
(X_552  0.012745101936161518)
(X_553  0.01666666939854622)
(X_554  0.020588237792253494)
(X_555  0.12058823555707932)
(X_556  0.12058823555707932)
(X_557  0.12058823555707932)
(X_558  0.12058823555707932)
(X_559  0.020588237792253494)
(X_560  0.10882353037595749)
(X_561  0.10490196198225021)
(X_562  0.004901961423456669)
(X_563  0.0009803927969187498)
(X_564  0.004901961423456669)
(X_565  0.004901961423456669)
(X_566  0.10882353037595749)
(X_567  0.11274509876966476)
(X_568  0.10882353037595749)
(X_569  0.10882353037595749)
(X_570  0.10882353037595749)
(X_571  0.10882353037595749)
(X_572  0.10882353037595749)
(X_573  0.012745101936161518)
(X_574  0.11274509876966476)
(X_575  0.11274509876966476)
(X_576  0.11666666716337204)
(X_577  0.11666666716337204)
(X_578  0.11274509876966476)
(X_579  0.10882353037595749)
(X_580  0.10882353037595749)
(X_581  0.012745101936161518)
(X_582  0.01666666939854622)
(X_583  0.01666666939854622)
(X_584  0.012745101936161518)
(X_585  0.11274509876966476)
(X_586  0.012745101936161518)
(X_587  0.012745101936161518)
(X_588  0.10882353037595749)
(X_589  0.10490196198225021)
(X_590  0.10490196198225021)
(X_591  0.0009803927969187498)
(X_592  0.10098039358854294)
(X_593  0.10098039358854294)
(X_594  0.0009803927969187498)
(X_595  0.004901961423456669)
(X_596  0.09705882519483566)
(X_597  0.09705882519483566)
(X_598  -0.0029411755967885256)
(X_599  0.0009803927969187498)
(X_600  0.10490196198225021)
(X_601  0.10490196198225021)
(X_602  0.10882353037595749)
(X_603  0.10882353037595749)
(X_604  0.11274509876966476)
(X_605  0.012745101936161518)
(X_606  0.008823529817163944)
(X_607  0.004901961423456669)
(X_608  0.004901961423456669)
(X_609  0.008823529817163944)
(X_610  0.012745101936161518)
(X_611  0.11274509876966476)
(X_612  0.10098039358854294)
(X_613  0.10098039358854294)
(X_614  0.0009803927969187498)
(X_615  0.0009803927969187498)
(X_616  0.0009803927969187498)
(X_617  0.0009803927969187498)
(X_618  0.09705882519483566)
(X_619  -0.0029411755967885256)
(X_620  -0.0029411755967885256)
(X_621  -0.0029411755967885256)
(X_622  0.0009803927969187498)
(X_623  0.004901961423456669)
(X_624  -0.006862743757665157)
(X_625  -0.0029411755967885256)
(X_626  -0.0029411755967885256)
(X_627  -0.0029411755967885256)
(X_628  0.09705882519483566)
(X_629  0.10098039358854294)
(X_630  0.10098039358854294)
(X_631  0.10098039358854294)
(X_632  0.0009803927969187498)
(X_633  0.0009803927969187498)
(X_634  -0.0029411755967885256)
(X_635  -0.0029411755967885256)
(X_636  -0.0029411755967885256)
(X_637  -0.0029411755967885256)
(X_638  0.0009803927969187498)
(X_639  0.10098039358854294)
(X_640  0.09705882519483566)
(X_641  0.09705882519483566)
(X_642  -0.0029411755967885256)
(X_643  0.09705882519483566)
(X_644  0.09313725680112839)
(X_645  0.09313725680112839)
(X_646  0.09313725680112839)
(X_647  -0.006862743757665157)
(X_648  -0.0029411755967885256)
(X_649  0.10098039358854294)
(X_650  0.10490196198225021)
(X_651  0.10882353037595749)
(X_652  0.0009803927969187498)
(X_653  0.09705882519483566)
(X_654  0.09705882519483566)
(X_655  0.09705882519483566)
(X_656  0.09705882519483566)
(X_657  -0.0029411755967885256)
(X_658  -0.006862743757665157)
(X_659  0.09313725680112839)
(X_660  -0.006862743757665157)
(X_661  -0.010784312151372433)
(X_662  -0.010784312151372433)
(X_663  -0.014705880545079708)
(X_664  -0.014705880545079708)
(X_665  -0.010784312151372433)
(X_666  -0.010784312151372433)
(X_667  0.09313725680112839)
(X_668  0.10490196198225021)
(X_669  0.10490196198225021)
(X_670  0.10490196198225021)
(X_671  0.10490196198225021)
(X_672  -0.006862743757665157)
(X_673  -0.0029411755967885256)
(X_674  0.10490196198225021)
(X_675  0.10098039358854294)
(X_676  0.09313725680112839)
(X_677  -0.006862743757665157)
(X_678  -0.0029411755967885256)
(X_679  0.0009803927969187498)
(X_680  0.004901961423456669)
(X_681  -0.0029411755967885256)
(X_682  -0.010784312151372433)
(X_683  -0.006862743757665157)
(X_684  -0.0029411755967885256)
(X_685  0.0009803927969187498)
(X_686  0.0009803927969187498)
(X_687  0.09705882519483566)
(X_688  -0.0029411755967885256)
(X_689  -0.0029411755967885256)
(X_690  -0.0029411755967885256)
(X_691  -0.0029411755967885256)
(X_692  -0.0029411755967885256)
(X_693  -0.0029411755967885256)
(X_694  0.09705882519483566)
(X_695  0.09705882519483566)
(X_696  0.09705882519483566)
(X_697  0.09705882519483566)
(X_698  0.09705882519483566)
(X_699  0.09313725680112839)
(X_700  0.08921568840742111)
(X_701  0.09705882519483566)
(X_702  0.10098039358854294)
(X_703  -0.0029411755967885256)
(X_704  -0.006862743757665157)
(X_705  -0.010784312151372433)
(X_706  0.09313725680112839)
(X_707  0.10098039358854294)
(X_708  0.10098039358854294)
(X_709  0.09313725680112839)
(X_710  0.08921568840742111)
(X_711  -0.010784312151372433)
(X_712  -0.006862743757665157)
(X_713  0.09705882519483566)
(X_714  0.09705882519483566)
(X_715  0.09313725680112839)
(X_716  -0.006862743757665157)
(X_717  0.09313725680112839)
(X_718  0.09313725680112839)
(X_719  0.09313725680112839)
(X_720  0.09313725680112839)
(X_721  0.09313725680112839)
(X_722  0.09313725680112839)
(X_723  0.09313725680112839)
(X_724  0.09313725680112839)
(X_725  0.09313725680112839)
(X_726  0.09313725680112839)
(X_727  -0.006862743757665157)
(X_728  -0.014705880545079708)
(X_729  0.08921568840742111)
(X_730  0.09705882519483566)
(X_731  -0.006862743757665157)
(X_732  -0.014705880545079708)
(X_733  -0.014705880545079708)
(X_734  -0.010784312151372433)
(X_735  -0.006862743757665157)
(X_736  -0.0029411755967885256)
(X_737  -0.010784312151372433)
(X_738  -0.018627449870109558)
(X_739  -0.014705880545079708)
(X_740  -0.010784312151372433)
(X_741  -0.006862743757665157)
(X_742  -0.006862743757665157)
(X_743  -0.010784312151372433)
(X_744  0.08921568840742111)
(X_745  0.08921568840742111)
(X_746  0.08921568840742111)
(X_747  0.08921568840742111)
(X_748  -0.010784312151372433)
(X_749  -0.010784312151372433)
(X_750  0.08921568840742111)
(X_751  0.08921568840742111)
(X_752  0.08921568840742111)
(X_753  0.08921568840742111)
(X_754  0.08921568840742111)
(X_755  -0.014705880545079708)
(X_756  -0.018627449870109558)
(X_757  0.08529412001371384)
(X_758  0.08921568840742111)
(X_759  0.08921568840742111)
(X_760  0.08137255162000656)
(X_761  -0.018627449870109558)
(X_762  -0.014705880545079708)
(X_763  -0.010784312151372433)
(X_764  -0.006862743757665157)
(X_765  -0.014705880545079708)
(X_766  -0.022549020126461983)
(X_767  0.07745098322629929)
(X_768  0.08529412001371384)
(X_769  0.08921568840742111)
(X_770  0.08921568840742111)
(X_771  0.08529412001371384)
(X_772  0.08529412001371384)
(X_773  0.08529412001371384)
(X_774  0.08529412001371384)
(X_775  0.08529412001371384)
(X_776  0.08529412001371384)
(X_777  0.08529412001371384)
(X_778  0.08529412001371384)
(X_779  0.08529412001371384)
(X_780  0.08529412001371384)
(X_781  0.08529412001371384)
(X_782  0.08529412001371384)
(X_783  0.08137255162000656)
(Y_0 39.83694839477539)
(Y_1 -49.647029876708984)
(Y_2 4.65220832824707)
(Y_3 7.29841947555542))