((X_0  1.0499999523162842)
(X_1  0.949999988079071)
(X_2  0.9460784196853638)
(X_3  0.949999988079071)
(X_4  0.949999988079071)
(X_5  0.949999988079071)
(X_6  0.949999988079071)
(X_7  0.9382352828979492)
(X_8  1.0460784435272217)
(X_9  1.0460784435272217)
(X_10  1.0460784435272217)
(X_11  1.0460784435272217)
(X_12  1.0460784435272217)
(X_13  1.0460784435272217)
(X_14  1.0460784435272217)
(X_15  1.0499999523162842)
(X_16  0.949999988079071)
(X_17  0.949999988079071)
(X_18  0.949999988079071)
(X_19  0.949999988079071)
(X_20  0.9460784196853638)
(X_21  1.0382353067398071)
(X_22  0.9303921461105347)
(X_23  0.9225490093231201)
(X_24  1.0303921699523926)
(X_25  0.9225490093231201)
(X_26  0.9147058725357056)
(X_27  1.0029411315917969)
(X_28  0.6852941513061523)
(X_29  0.6735294461250305)
(X_30  0.5656862854957581)
(X_31  0.5656862854957581)
(X_32  0.5735294222831726)
(X_33  0.5813725590705872)
(X_34  0.5774509906768799)
(X_35  0.5696078538894653)
(X_36  0.5264706015586853)
(X_37  0.5264706015586853)
(X_38  0.522549033164978)
(X_39  0.5147058963775635)
(X_40  0.6029412150382996)
(X_41  0.5911765098571777)
(X_42  0.5833333730697632)
(X_43  0.5754902362823486)
(X_44  0.5323529243469238)
(X_45  0.520588219165802)
(X_46  0.4049019515514374)
(X_47  0.385294109582901)
(X_48  0.3656862676143646)
(X_49  0.3499999940395355)
(X_50  0.3382352888584137)
(X_51  0.3343137204647064)
(X_52  0.3911764919757843)
(X_53  0.2872548997402191)
(X_54  0.27941176295280457)
(X_55  0.3715686500072479)
(X_56  0.18333333730697632)
(X_57  0.07549020648002625)
(X_58  0.06372549384832382)
(X_59  0.05588235333561897)
(X_60  0.0519607849419117)
(X_61  0.0519607849419117)
(X_62  0.04411764815449715)
(X_63  0.036274511367082596)
(X_64  0.14411765336990356)
(X_65  0.04411764815449715)
(X_66  0.04803921654820442)
(X_67  0.04803921654820442)
(X_68  0.14803922176361084)
(X_69  0.04411764815449715)
(X_70  0.04019607976078987)
(X_71  0.036274511367082596)
(X_72  0.0676470622420311)
(X_73  0.06372549384832382)
(X_74  0.05588235333561897)
(X_75  0.04803921654820442)
(X_76  0.14803922176361084)
(X_77  0.14803922176361084)
(X_78  0.15196079015731812)
(X_79  0.1558823585510254)
(X_80  0.1558823585510254)
(X_81  0.15196079015731812)
(X_82  0.04803921654820442)
(X_83  0.14411765336990356)
(X_84  0.16764706373214722)
(X_85  0.16764706373214722)
(X_86  0.0676470622420311)
(X_87  0.16372549533843994)
(X_88  0.16372549533843994)
(X_89  0.1558823585510254)
(X_90  0.04803921654820442)
(X_91  0.04019607976078987)
(X_92  0.15196079015731812)
(X_93  0.0519607849419117)
(X_94  0.0519607849419117)
(X_95  0.05588235333561897)
(X_96  0.15980392694473267)
(X_97  0.16372549533843994)
(X_98  0.1715686321258545)
(X_99  0.17549020051956177)
(X_100  0.12843137979507446)
(X_101  0.13235294818878174)
(X_102  0.136274516582489)
(X_103  0.04019607976078987)
(X_104  0.04411764815449715)
(X_105  0.0519607849419117)
(X_106  0.05588235333561897)
(X_107  0.05980392172932625)
(X_108  0.05980392172932625)
(X_109  0.05980392172932625)
(X_110  0.05980392172932625)
(X_111  0.15980392694473267)
(X_112  0.04019607976078987)
(X_113  0.14803922176361084)
(X_114  0.06372549384832382)
(X_115  0.1715686321258545)
(X_116  0.1715686321258545)
(X_117  0.0676470622420311)
(X_118  0.06372549384832382)
(X_119  0.05980392172932625)
(X_120  0.05588235333561897)
(X_121  0.04803921654820442)
(X_122  0.036274511367082596)
(X_123  0.028431374579668045)
(X_124  0.12450980395078659)
(X_125  0.028431374579668045)
(X_126  0.03235294297337532)
(X_127  0.04019607976078987)
(X_128  0.16764706373214722)
(X_129  0.1715686321258545)
(X_130  0.1715686321258545)
(X_131  0.16764706373214722)
(X_132  0.15980392694473267)
(X_133  0.14803922176361084)
(X_134  0.036274511367082596)
(X_135  0.12843137979507446)
(X_136  0.12843137979507446)
(X_137  0.028431374579668045)
(X_138  0.12843137979507446)
(X_139  0.13235294818878174)
(X_140  0.1401960849761963)
(X_141  0.14411765336990356)
(X_142  0.14803922176361084)
(X_143  0.1401960849761963)
(X_144  0.12843137979507446)
(X_145  0.020588237792253494)
(X_146  0.01666666939854622)
(X_147  0.12058823555707932)
(X_148  0.12843137979507446)
(X_149  0.12843137979507446)
(X_150  0.03235294297337532)
(X_151  0.036274511367082596)
(X_152  0.1401960849761963)
(X_153  0.14803922176361084)
(X_154  0.15196079015731812)
(X_155  0.1558823585510254)
(X_156  0.028431374579668045)
(X_157  0.03235294297337532)
(X_158  0.1401960849761963)
(X_159  0.14411765336990356)
(X_160  0.14411765336990356)
(X_161  0.04411764815449715)
(X_162  0.1401960849761963)
(X_163  0.136274516582489)
(X_164  0.14803922176361084)
(X_165  0.0519607849419117)
(X_166  0.05588235333561897)
(X_167  0.1558823585510254)
(X_168  0.05980392172932625)
(X_169  0.1558823585510254)
(X_170  0.04803921654820442)
(X_171  0.136274516582489)
(X_172  0.12843137979507446)
(X_173  0.1401960849761963)
(X_174  0.0676470622420311)
(X_175  0.08725491166114807)
(X_176  0.09509804844856262)
(X_177  0.114705890417099)
(X_178  0.1460784375667572)
(X_179  0.27352941036224365)
(X_180  0.29313725233078003)
(X_181  0.2970588207244873)
(X_182  0.29313725233078003)
(X_183  0.28921568393707275)
(X_184  0.2186274528503418)
(X_185  0.20686274766921997)
(X_186  0.1872549057006836)
(X_187  0.1715686321258545)
(X_188  0.1558823585510254)
(X_189  0.04803921654820442)
(X_190  0.04803921654820442)
(X_191  0.14803922176361084)
(X_192  0.12843137979507446)
(X_193  0.13235294818878174)
(X_194  0.036274511367082596)
(X_195  0.04019607976078987)
(X_196  0.03235294297337532)
(X_197  0.136274516582489)
(X_198  0.136274516582489)
(X_199  0.04411764815449715)
(X_200  0.17549020051956177)
(X_201  0.23039215803146362)
(X_202  0.30098041892051697)
(X_203  0.3480392396450043)
(X_204  0.31078431010246277)
(X_205  0.3382352888584137)
(X_206  0.3813725411891937)
(X_207  0.5127450823783875)
(X_208  0.42450979351997375)
(X_209  0.41274508833885193)
(X_210  0.385294109582901)
(X_211  0.46568629145622253)
(X_212  0.520588219165802)
(X_213  0.47745099663734436)
(X_214  0.3029411733150482)
(X_215  0.22058825194835663)
(X_216  0.1460784375667572)
(X_217  0.19117647409439087)
(X_218  0.1558823585510254)
(X_219  0.14411765336990356)
(X_220  0.14411765336990356)
(X_221  0.14411765336990356)
(X_222  0.04803921654820442)
(X_223  0.0519607849419117)
(X_224  0.14215686917304993)
(X_225  0.18137255311012268)
(X_226  0.240196093916893)
(X_227  0.40294119715690613)
(X_228  0.3499999940395355)
(X_229  0.385294109582901)
(X_230  0.4049019515514374)
(X_231  0.4166666567325592)
(X_232  0.5401960611343384)
(X_233  0.5166666507720947)
(X_234  0.36176469922065735)
(X_235  0.3068627417087555)
(X_236  0.2911764681339264)
(X_237  0.3068627417087555)
(X_238  0.3186274468898773)
(X_239  0.3186274468898773)
(X_240  0.34607842564582825)
(X_241  0.4696078598499298)
(X_242  0.520588219165802)
(X_243  0.5558823943138123)
(X_244  0.5323529243469238)
(X_245  0.4539215862751007)
(X_246  0.3637255132198334)
(X_247  0.3127451241016388)
(X_248  0.1303921639919281)
(X_249  0.1303921639919281)
(X_250  0.13431373238563538)
(X_251  0.2343137264251709)
(X_252  0.3735294044017792)
(X_253  0.3892156779766083)
(X_254  0.4049019515514374)
(X_255  0.5049019455909729)
(X_256  0.4852941334247589)
(X_257  0.4696078598499298)
(X_258  0.46176472306251526)
(X_259  0.457843154668808)
(X_260  0.26372548937797546)
(X_261  0.27156862616539)
(X_262  0.27941176295280457)
(X_263  0.29509803652763367)
(X_264  0.34607842564582825)
(X_265  0.5088235139846802)
(X_266  0.551960825920105)
(X_267  0.5598039627075195)
(X_268  0.3382352888584137)
(X_269  0.36764708161354065)
(X_270  0.3637255132198334)
(X_271  0.44607844948768616)
(X_272  0.385294109582901)
(X_273  0.3578431308269501)
(X_274  0.3656862676143646)
(X_275  0.4205882251262665)
(X_276  0.3892156779766083)
(X_277  0.3892156779766083)
(X_278  0.385294109582901)
(X_279  0.385294109582901)
(X_280  0.48137256503105164)
(X_281  0.4852941334247589)
(X_282  0.3735294044017792)
(X_283  0.34215685725212097)
(X_284  0.2911764681339264)
(X_285  0.3558823764324188)
(X_286  0.344117671251297)
(X_287  0.3480392396450043)
(X_288  0.23627452552318573)
(X_289  0.26372548937797546)
(X_290  0.29901960492134094)
(X_291  0.3382352888584137)
(X_292  0.4009803831577301)
(X_293  0.4598039388656616)
(X_294  0.4950980544090271)
(X_295  0.4950980544090271)
(X_296  0.638235330581665)
(X_297  0.4205882251262665)
(X_298  0.4107843339443207)
(X_299  0.3715686500072479)
(X_300  0.3558823764324188)
(X_301  0.33627453446388245)
(X_302  0.344117671251297)
(X_303  0.2754901945590973)
(X_304  0.33039215207099915)
(X_305  0.3225490152835846)
(X_306  0.31470587849617004)
(X_307  0.3029411733150482)
(X_308  0.41862747073173523)
(X_309  0.4264706075191498)
(X_310  0.3186274468898773)
(X_311  0.2911764681339264)
(X_312  0.25196078419685364)
(X_313  0.23627452552318573)
(X_314  0.24411766231060028)
(X_315  0.26372548937797546)
(X_316  0.31470587849617004)
(X_317  0.43039217591285706)
(X_318  0.4421568810939789)
(X_319  0.45000001788139343)
(X_320  0.4696078598499298)
(X_321  0.385294109582901)
(X_322  0.3813725411891937)
(X_323  0.36176469922065735)
(X_324  0.36176469922065735)
(X_325  0.3656862676143646)
(X_326  0.29509803652763367)
(X_327  0.20098040997982025)
(X_328  0.20490197837352753)
(X_329  0.28333333134651184)
(X_330  0.3029411733150482)
(X_331  0.3558823764324188)
(X_332  0.3480392396450043)
(X_333  0.3401961028575897)
(X_334  0.2245098203420639)
(X_335  0.21274511516094208)
(X_336  0.47156864404678345)
(X_337  0.5715686678886414)
(X_338  0.5637255311012268)
(X_339  0.5401960611343384)
(X_340  0.5088235139846802)
(X_341  0.49705883860588074)
(X_342  0.5088235139846802)
(X_343  0.42450979351997375)
(X_344  0.42450979351997375)
(X_345  0.5284313559532166)
(X_346  0.42450979351997375)
(X_347  0.4166666567325592)
(X_348  0.4166666567325592)
(X_349  0.42450979351997375)
(X_350  0.4166666567325592)
(X_351  0.49705883860588074)
(X_352  0.48137256503105164)
(X_353  0.5323529243469238)
(X_354  0.5088235139846802)
(X_355  0.41862747073173523)
(X_356  0.387254923582077)
(X_357  0.43039217591285706)
(X_358  0.4225490391254425)
(X_359  0.3598039448261261)
(X_360  0.43431374430656433)
(X_361  0.32647058367729187)
(X_362  0.31078431010246277)
(X_363  0.39901962876319885)
(X_364  0.3029411733150482)
(X_365  0.29901960492134094)
(X_366  0.2872548997402191)
(X_367  0.3715686500072479)
(X_368  0.35196080803871155)
(X_369  0.3401961028575897)
(X_370  0.240196093916893)
(X_371  0.24411766231060028)
(X_372  0.2245098203420639)
(X_373  0.23235295712947845)
(X_374  0.3284313976764679)
(X_375  0.32058826088905334)
(X_376  0.33235296607017517)
(X_377  0.2558823525905609)
(X_378  0.2558823525905609)
(X_379  0.24411766231060028)
(X_380  0.2598039209842682)
(X_381  0.2754901945590973)
(X_382  0.3029411733150482)
(X_383  0.33039215207099915)
(X_384  0.33039215207099915)
(X_385  0.32647058367729187)
(X_386  0.34215685725212097)
(X_387  0.3735294044017792)
(X_388  0.36764708161354065)
(X_389  0.3637255132198334)
(X_390  0.3558823764324188)
(X_391  0.3480392396450043)
(X_392  0.2539215683937073)
(X_393  0.24607843160629272)
(X_394  0.14215686917304993)
(X_395  0.24215686321258545)
(X_396  0.24215686321258545)
(X_397  0.23823529481887817)
(X_398  0.22647058963775635)
(X_399  0.11862745881080627)
(X_400  0.19901961088180542)
(X_401  0.2029411792755127)
(X_402  0.19901961088180542)
(X_403  0.19117647409439087)
(X_404  0.2029411792755127)
(X_405  0.22254902124404907)
(X_406  0.12647059559822083)
(X_407  0.21078431606292725)
(X_408  0.11862745881080627)
(X_409  0.10686275362968445)
(X_410  0.1303921639919281)
(X_411  0.27352941036224365)
(X_412  0.2813725471496582)
(X_413  0.25784313678741455)
(X_414  0.2656862735748291)
(X_415  0.30098041892051697)
(X_416  0.15784314274787903)
(X_417  0.15784314274787903)
(X_418  0.15784314274787903)
(X_419  0.25784313678741455)
(X_420  0.0990196168422699)
(X_421  0.08725491166114807)
(X_422  0.07941177487373352)
(X_423  0.08725491166114807)
(X_424  0.0990196168422699)
(X_425  0.09117648005485535)
(X_426  0.16764706373214722)
(X_427  0.14411765336990356)
(X_428  0.04803921654820442)
(X_429  0.05588235333561897)
(X_430  0.0519607849419117)
(X_431  0.04411764815449715)
(X_432  0.15196079015731812)
(X_433  0.16764706373214722)
(X_434  0.15980392694473267)
(X_435  0.04411764815449715)
(X_436  0.0833333432674408)
(X_437  0.21078431606292725)
(X_438  0.22254902124404907)
(X_439  0.21470588445663452)
(X_440  0.22647058963775635)
(X_441  0.15000000596046448)
(X_442  0.13431373238563538)
(X_443  0.09117648005485535)
(X_444  0.15392157435417175)
(X_445  0.15784314274787903)
(X_446  0.1617647111415863)
(X_447  0.2656862735748291)
(X_448  0.2029411792755127)
(X_449  0.2029411792755127)
(X_450  0.20686274766921997)
(X_451  0.20686274766921997)
(X_452  0.2029411792755127)
(X_453  0.19509804248809814)
(X_454  0.1872549057006836)
(X_455  0.18333333730697632)
(X_456  0.05588235333561897)
(X_457  0.1558823585510254)
(X_458  0.15196079015731812)
(X_459  0.15196079015731812)
(X_460  0.15196079015731812)
(X_461  0.15196079015731812)
(X_462  0.1558823585510254)
(X_463  0.1558823585510254)
(X_464  0.07156863063573837)
(X_465  0.0833333432674408)
(X_466  0.21078431606292725)
(X_467  0.23823529481887817)
(X_468  0.2539215683937073)
(X_469  0.15392157435417175)
(X_470  0.13431373238563538)
(X_471  0.2186274528503418)
(X_472  0.2186274528503418)
(X_473  0.21078431606292725)
(X_474  0.2029411792755127)
(X_475  0.19509804248809814)
(X_476  0.07941177487373352)
(X_477  0.0833333432674408)
(X_478  0.1872549057006836)
(X_479  0.1872549057006836)
(X_480  0.0833333432674408)
(X_481  0.07941177487373352)
(X_482  0.07156863063573837)
(X_483  0.0676470622420311)
(X_484  0.14803922176361084)
(X_485  0.14803922176361084)
(X_486  0.14411765336990356)
(X_487  0.04411764815449715)
(X_488  0.04411764815449715)
(X_489  0.04411764815449715)
(X_490  0.04803921654820442)
(X_491  0.14803922176361084)
(X_492  0.04803921654820442)
(X_493  0.05588235333561897)
(X_494  0.07156863063573837)
(X_495  0.19117647409439087)
(X_496  0.2029411792755127)
(X_497  0.19901961088180542)
(X_498  0.18333333730697632)
(X_499  0.16764706373214722)
(X_500  0.15196079015731812)
(X_501  0.04803921654820442)
(X_502  0.04019607976078987)
(X_503  0.03235294297337532)
(X_504  0.15196079015731812)
(X_505  0.15196079015731812)
(X_506  0.1558823585510254)
(X_507  0.1558823585510254)
(X_508  0.05588235333561897)
(X_509  0.0519607849419117)
(X_510  0.0519607849419117)
(X_511  0.04803921654820442)
(X_512  0.036274511367082596)
(X_513  0.03235294297337532)
(X_514  0.03235294297337532)
(X_515  0.028431374579668045)
(X_516  0.12843137979507446)
(X_517  0.03235294297337532)
(X_518  0.03235294297337532)
(X_519  0.136274516582489)
(X_520  0.028431374579668045)
(X_521  0.028431374579668045)
(X_522  0.03235294297337532)
(X_523  0.04019607976078987)
(X_524  0.04803921654820442)
(X_525  0.04411764815449715)
(X_526  0.028431374579668045)
(X_527  0.11666666716337204)
(X_528  0.020588237792253494)
(X_529  0.01666666939854622)
(X_530  0.012745101936161518)
(X_531  0.10882353037595749)
(X_532  0.12843137979507446)
(X_533  0.12843137979507446)
(X_534  0.13235294818878174)
(X_535  0.13235294818878174)
(X_536  0.03235294297337532)
(X_537  0.03235294297337532)
(X_538  0.03235294297337532)
(X_539  0.03235294297337532)
(X_540  0.02450980618596077)
(X_541  0.020588237792253494)
(X_542  0.11666666716337204)
(X_543  0.11666666716337204)
(X_544  0.11666666716337204)
(X_545  0.11666666716337204)
(X_546  0.12058823555707932)
(X_547  0.12450980395078659)
(X_548  0.12450980395078659)
(X_549  0.12058823555707932)
(X_550  0.01666666939854622)
(X_551  0.020588237792253494)
(X_552  0.12450980395078659)
(X_553  0.12450980395078659)
(X_554  0.11666666716337204)
(X_555  0.10882353037595749)
(X_556  0.12058823555707932)
(X_557  0.12058823555707932)
(X_558  0.12058823555707932)
(X_559  0.11666666716337204)
(X_560  0.12058823555707932)
(X_561  0.020588237792253494)
(X_562  0.12058823555707932)
(X_563  0.12058823555707932)
(X_564  0.020588237792253494)
(X_565  0.020588237792253494)
(X_566  0.02450980618596077)
(X_567  0.02450980618596077)
(X_568  0.01666666939854622)
(X_569  0.012745101936161518)
(X_570  0.008823529817163944)
(X_571  0.008823529817163944)
(X_572  0.008823529817163944)
(X_573  0.008823529817163944)
(X_574  0.012745101936161518)
(X_575  0.01666666939854622)
(X_576  0.02450980618596077)
(X_577  0.01666666939854622)
(X_578  0.008823529817163944)
(X_579  0.012745101936161518)
(X_580  0.01666666939854622)
(X_581  0.020588237792253494)
(X_582  0.12058823555707932)
(X_583  0.11666666716337204)
(X_584  0.004901961423456669)
(X_585  0.008823529817163944)
(X_586  0.008823529817163944)
(X_587  0.012745101936161518)
(X_588  0.12058823555707932)
(X_589  0.020588237792253494)
(X_590  0.01666666939854622)
(X_591  0.012745101936161518)
(X_592  0.012745101936161518)
(X_593  0.012745101936161518)
(X_594  0.01666666939854622)
(X_595  0.11666666716337204)
(X_596  0.012745101936161518)
(X_597  0.008823529817163944)
(X_598  0.008823529817163944)
(X_599  0.004901961423456669)
(X_600  0.004901961423456669)
(X_601  0.008823529817163944)
(X_602  0.008823529817163944)
(X_603  0.012745101936161518)
(X_604  0.01666666939854622)
(X_605  0.10882353037595749)
(X_606  0.10098039358854294)
(X_607  0.10490196198225021)
(X_608  0.11274509876966476)
(X_609  0.11666666716337204)
(X_610  0.01666666939854622)
(X_611  0.012745101936161518)
(X_612  0.0009803927969187498)
(X_613  0.0009803927969187498)
(X_614  0.10490196198225021)
(X_615  0.10882353037595749)
(X_616  0.12450980395078659)
(X_617  0.12058823555707932)
(X_618  0.11274509876966476)
(X_619  0.10882353037595749)
(X_620  0.10490196198225021)
(X_621  0.10490196198225021)
(X_622  0.008823529817163944)
(X_623  0.012745101936161518)
(X_624  0.11274509876966476)
(X_625  0.11274509876966476)
(X_626  0.10882353037595749)
(X_627  0.10882353037595749)
(X_628  0.008823529817163944)
(X_629  0.008823529817163944)
(X_630  0.11274509876966476)
(X_631  0.11274509876966476)
(X_632  0.11274509876966476)
(X_633  0.004901961423456669)
(X_634  0.10098039358854294)
(X_635  0.10098039358854294)
(X_636  0.10882353037595749)
(X_637  0.10882353037595749)
(X_638  0.10490196198225021)
(X_639  0.10098039358854294)
(X_640  0.10490196198225021)
(X_641  0.10882353037595749)
(X_642  0.11274509876966476)
(X_643  0.11666666716337204)
(X_644  0.12450980395078659)
(X_645  0.020588237792253494)
(X_646  0.012745101936161518)
(X_647  0.004901961423456669)
(X_648  0.0009803927969187498)
(X_649  0.0009803927969187498)
(X_650  0.0009803927969187498)
(X_651  0.004901961423456669)
(X_652  0.01666666939854622)
(X_653  0.012745101936161518)
(X_654  0.012745101936161518)
(X_655  0.008823529817163944)
(X_656  0.008823529817163944)
(X_657  0.012745101936161518)
(X_658  0.11274509876966476)
(X_659  0.01666666939854622)
(X_660  0.11666666716337204)
(X_661  0.11274509876966476)
(X_662  0.10490196198225021)
(X_663  0.10490196198225021)
(X_664  0.008823529817163944)
(X_665  0.008823529817163944)
(X_666  0.0009803927969187498)
(X_667  -0.006862743757665157)
(X_668  0.004901961423456669)
(X_669  0.008823529817163944)
(X_670  0.012745101936161518)
(X_671  0.012745101936161518)
(X_672  0.10098039358854294)
(X_673  -0.0029411755967885256)
(X_674  -0.0029411755967885256)
(X_675  -0.0029411755967885256)
(X_676  -0.0029411755967885256)
(X_677  0.10098039358854294)
(X_678  0.10490196198225021)
(X_679  0.10882353037595749)
(X_680  0.004901961423456669)
(X_681  0.10490196198225021)
(X_682  0.10490196198225021)
(X_683  0.10490196198225021)
(X_684  0.10490196198225021)
(X_685  0.10490196198225021)
(X_686  0.004901961423456669)
(X_687  0.004901961423456669)
(X_688  0.10490196198225021)
(X_689  0.10490196198225021)
(X_690  0.10490196198225021)
(X_691  0.10490196198225021)
(X_692  0.10490196198225021)
(X_693  0.10490196198225021)
(X_694  0.004901961423456669)
(X_695  0.004901961423456669)
(X_696  0.10490196198225021)
(X_697  0.10490196198225021)
(X_698  0.10490196198225021)
(X_699  0.10490196198225021)
(X_700  0.10098039358854294)
(X_701  -0.0029411755967885256)
(X_702  -0.0029411755967885256)
(X_703  0.09705882519483566)
(X_704  0.09705882519483566)
(X_705  0.0009803927969187498)
(X_706  0.004901961423456669)
(X_707  0.008823529817163944)
(X_708  0.004901961423456669)
(X_709  0.004901961423456669)
(X_710  0.004901961423456669)
(X_711  0.004901961423456669)
(X_712  0.004901961423456669)
(X_713  0.004901961423456669)
(X_714  0.004901961423456669)
(X_715  0.004901961423456669)
(X_716  0.10490196198225021)
(X_717  0.10490196198225021)
(X_718  0.004901961423456669)
(X_719  0.004901961423456669)
(X_720  0.004901961423456669)
(X_721  0.10490196198225021)
(X_722  0.10490196198225021)
(X_723  0.10490196198225021)
(X_724  0.10490196198225021)
(X_725  0.004901961423456669)
(X_726  0.004901961423456669)
(X_727  0.10490196198225021)
(X_728  0.10098039358854294)
(X_729  0.09705882519483566)
(X_730  0.09705882519483566)
(X_731  0.09705882519483566)
(X_732  0.09705882519483566)
(X_733  0.10098039358854294)
(X_734  0.004901961423456669)
(X_735  0.10882353037595749)
(X_736  0.004901961423456669)
(X_737  0.004901961423456669)
(X_738  0.004901961423456669)
(X_739  0.004901961423456669)
(X_740  0.10490196198225021)
(X_741  0.10490196198225021)
(X_742  0.10490196198225021)
(X_743  0.10490196198225021)
(X_744  0.004901961423456669)
(X_745  0.004901961423456669)
(X_746  0.004901961423456669)
(X_747  0.004901961423456669)
(X_748  0.10490196198225021)
(X_749  0.10490196198225021)
(X_750  0.004901961423456669)
(X_751  0.004901961423456669)
(X_752  0.10490196198225021)
(X_753  0.10490196198225021)
(X_754  0.10490196198225021)
(X_755  0.10490196198225021)
(X_756  0.10098039358854294)
(X_757  -0.0029411755967885256)
(X_758  -0.0029411755967885256)
(X_759  0.09705882519483566)
(X_760  -0.0029411755967885256)
(X_761  0.0009803927969187498)
(X_762  0.004901961423456669)
(X_763  0.008823529817163944)
(X_764  0.004901961423456669)
(X_765  0.004901961423456669)
(X_766  0.004901961423456669)
(X_767  0.004901961423456669)
(X_768  0.004901961423456669)
(X_769  0.004901961423456669)
(X_770  0.004901961423456669)
(X_771  0.004901961423456669)
(X_772  0.004901961423456669)
(X_773  0.004901961423456669)
(X_774  0.004901961423456669)
(X_775  0.004901961423456669)
(X_776  0.004901961423456669)
(X_777  0.004901961423456669)
(X_778  0.004901961423456669)
(X_779  0.004901961423456669)
(X_780  0.008823529817163944)
(X_781  0.008823529817163944)
(X_782  0.008823529817163944)
(X_783  0.008823529817163944)
(Y_0 -22.350727081298828)
(Y_1 34.285152435302734)
(Y_2 -15.404801368713379)
(Y_3 3.3848843574523926))