((X_0  0.1715686321258545)
(X_1  0.1715686321258545)
(X_2  0.07156863063573837)
(X_3  0.1715686321258545)
(X_4  0.1715686321258545)
(X_5  0.1715686321258545)
(X_6  0.07156863063573837)
(X_7  0.07156863063573837)
(X_8  0.1558823585510254)
(X_9  0.1558823585510254)
(X_10  0.16372549533843994)
(X_11  0.16764706373214722)
(X_12  0.16764706373214722)
(X_13  0.16764706373214722)
(X_14  0.16764706373214722)
(X_15  0.0676470622420311)
(X_16  0.04411764815449715)
(X_17  0.06372549384832382)
(X_18  0.07549020648002625)
(X_19  0.0676470622420311)
(X_20  0.15196079015731812)
(X_21  0.14411765336990356)
(X_22  0.05588235333561897)
(X_23  0.07549020648002625)
(X_24  0.16764706373214722)
(X_25  0.0676470622420311)
(X_26  0.0676470622420311)
(X_27  0.16764706373214722)
(X_28  0.1715686321258545)
(X_29  0.1715686321258545)
(X_30  0.07156863063573837)
(X_31  0.07156863063573837)
(X_32  0.07156863063573837)
(X_33  0.07156863063573837)
(X_34  0.07156863063573837)
(X_35  0.07156863063573837)
(X_36  0.05980392172932625)
(X_37  0.06372549384832382)
(X_38  0.06372549384832382)
(X_39  0.0676470622420311)
(X_40  0.0676470622420311)
(X_41  0.0676470622420311)
(X_42  0.16764706373214722)
(X_43  0.0676470622420311)
(X_44  0.15196079015731812)
(X_45  0.06372549384832382)
(X_46  0.07549020648002625)
(X_47  0.07156863063573837)
(X_48  0.0676470622420311)
(X_49  0.06372549384832382)
(X_50  0.07549020648002625)
(X_51  0.08725491166114807)
(X_52  0.16372549533843994)
(X_53  0.16372549533843994)
(X_54  0.06372549384832382)
(X_55  0.16372549533843994)
(X_56  0.16764706373214722)
(X_57  0.0676470622420311)
(X_58  0.0676470622420311)
(X_59  0.0676470622420311)
(X_60  0.0676470622420311)
(X_61  0.0676470622420311)
(X_62  0.0676470622420311)
(X_63  0.0676470622420311)
(X_64  0.0676470622420311)
(X_65  0.0676470622420311)
(X_66  0.0676470622420311)
(X_67  0.0676470622420311)
(X_68  0.06372549384832382)
(X_69  0.06372549384832382)
(X_70  0.06372549384832382)
(X_71  0.06372549384832382)
(X_72  0.05588235333561897)
(X_73  0.05980392172932625)
(X_74  0.05980392172932625)
(X_75  0.15980392694473267)
(X_76  0.15980392694473267)
(X_77  0.16372549533843994)
(X_78  0.16372549533843994)
(X_79  0.16764706373214722)
(X_80  0.1558823585510254)
(X_81  0.1558823585510254)
(X_82  0.05588235333561897)
(X_83  0.1558823585510254)
(X_84  0.16372549533843994)
(X_85  0.06372549384832382)
(X_86  0.06372549384832382)
(X_87  0.16372549533843994)
(X_88  0.16372549533843994)
(X_89  0.16372549533843994)
(X_90  0.06372549384832382)
(X_91  0.06372549384832382)
(X_92  0.16764706373214722)
(X_93  0.06372549384832382)
(X_94  0.05980392172932625)
(X_95  0.05980392172932625)
(X_96  0.05588235333561897)
(X_97  0.05588235333561897)
(X_98  0.1558823585510254)
(X_99  0.1558823585510254)
(X_100  0.16764706373214722)
(X_101  0.16372549533843994)
(X_102  0.1558823585510254)
(X_103  0.1558823585510254)
(X_104  0.15980392694473267)
(X_105  0.05588235333561897)
(X_106  0.0519607849419117)
(X_107  0.04411764815449715)
(X_108  0.05980392172932625)
(X_109  0.05980392172932625)
(X_110  0.05980392172932625)
(X_111  0.15980392694473267)
(X_112  0.06372549384832382)
(X_113  0.06372549384832382)
(X_114  0.16372549533843994)
(X_115  0.16372549533843994)
(X_116  0.16372549533843994)
(X_117  0.16372549533843994)
(X_118  0.06372549384832382)
(X_119  0.06372549384832382)
(X_120  0.06372549384832382)
(X_121  0.05980392172932625)
(X_122  0.0519607849419117)
(X_123  0.04803921654820442)
(X_124  0.04803921654820442)
(X_125  0.04803921654820442)
(X_126  0.04803921654820442)
(X_127  0.0519607849419117)
(X_128  0.16764706373214722)
(X_129  0.16372549533843994)
(X_130  0.1558823585510254)
(X_131  0.15980392694473267)
(X_132  0.16372549533843994)
(X_133  0.16372549533843994)
(X_134  0.05980392172932625)
(X_135  0.1558823585510254)
(X_136  0.05980392172932625)
(X_137  0.05980392172932625)
(X_138  0.05980392172932625)
(X_139  0.15980392694473267)
(X_140  0.15980392694473267)
(X_141  0.15980392694473267)
(X_142  0.15980392694473267)
(X_143  0.15980392694473267)
(X_144  0.05980392172932625)
(X_145  0.05980392172932625)
(X_146  0.05980392172932625)
(X_147  0.15980392694473267)
(X_148  0.15980392694473267)
(X_149  0.1558823585510254)
(X_150  0.14803922176361084)
(X_151  0.14411765336990356)
(X_152  0.14411765336990356)
(X_153  0.14803922176361084)
(X_154  0.15196079015731812)
(X_155  0.1558823585510254)
(X_156  0.04019607976078987)
(X_157  0.04411764815449715)
(X_158  0.14803922176361084)
(X_159  0.14803922176361084)
(X_160  0.15196079015731812)
(X_161  0.0519607849419117)
(X_162  0.05588235333561897)
(X_163  0.15980392694473267)
(X_164  0.06372549384832382)
(X_165  0.06372549384832382)
(X_166  0.06372549384832382)
(X_167  0.16372549533843994)
(X_168  0.05588235333561897)
(X_169  0.05588235333561897)
(X_170  0.05588235333561897)
(X_171  0.1558823585510254)
(X_172  0.1558823585510254)
(X_173  0.1558823585510254)
(X_174  0.05588235333561897)
(X_175  0.1558823585510254)
(X_176  0.16372549533843994)
(X_177  0.15980392694473267)
(X_178  0.15196079015731812)
(X_179  0.14803922176361084)
(X_180  0.14803922176361084)
(X_181  0.1558823585510254)
(X_182  0.16372549533843994)
(X_183  0.16764706373214722)
(X_184  0.1558823585510254)
(X_185  0.16372549533843994)
(X_186  0.1715686321258545)
(X_187  0.16372549533843994)
(X_188  0.04803921654820442)
(X_189  0.04411764815449715)
(X_190  0.04803921654820442)
(X_191  0.1558823585510254)
(X_192  0.1558823585510254)
(X_193  0.1558823585510254)
(X_194  0.05588235333561897)
(X_195  0.05588235333561897)
(X_196  0.05588235333561897)
(X_197  0.1558823585510254)
(X_198  0.1558823585510254)
(X_199  0.1558823585510254)
(X_200  0.1558823585510254)
(X_201  0.1558823585510254)
(X_202  0.1558823585510254)
(X_203  0.1558823585510254)
(X_204  0.0676470622420311)
(X_205  0.16372549533843994)
(X_206  0.1558823585510254)
(X_207  0.15196079015731812)
(X_208  0.05588235333561897)
(X_209  0.06372549384832382)
(X_210  0.07156863063573837)
(X_211  0.07941177487373352)
(X_212  0.21470588445663452)
(X_213  0.22647058963775635)
(X_214  0.1303921639919281)
(X_215  0.11078432202339172)
(X_216  0.07941177487373352)
(X_217  0.05588235333561897)
(X_218  0.15980392694473267)
(X_219  0.1715686321258545)
(X_220  0.15196079015731812)
(X_221  0.0519607849419117)
(X_222  0.0519607849419117)
(X_223  0.15196079015731812)
(X_224  0.05980392172932625)
(X_225  0.0519607849419117)
(X_226  0.04803921654820442)
(X_227  0.04411764815449715)
(X_228  0.04803921654820442)
(X_229  0.05588235333561897)
(X_230  0.0676470622420311)
(X_231  0.07156863063573837)
(X_232  0.04019607976078987)
(X_233  0.04803921654820442)
(X_234  0.0519607849419117)
(X_235  0.16372549533843994)
(X_236  0.09509804844856262)
(X_237  0.15784314274787903)
(X_238  0.22058825194835663)
(X_239  0.2558823525905609)
(X_240  0.2911764681339264)
(X_241  0.29901960492134094)
(X_242  0.4068627655506134)
(X_243  0.4068627655506134)
(X_244  0.3754902184009552)
(X_245  0.30490198731422424)
(X_246  0.21470588445663452)
(X_247  0.15196079015731812)
(X_248  0.1401960849761963)
(X_249  0.04411764815449715)
(X_250  0.04803921654820442)
(X_251  0.04803921654820442)
(X_252  0.07549020648002625)
(X_253  0.07549020648002625)
(X_254  0.07941177487373352)
(X_255  0.07941177487373352)
(X_256  0.17549020051956177)
(X_257  0.1715686321258545)
(X_258  0.16764706373214722)
(X_259  0.16372549533843994)
(X_260  0.15784314274787903)
(X_261  0.17352941632270813)
(X_262  0.1931372582912445)
(X_263  0.3127451241016388)
(X_264  0.3284313976764679)
(X_265  0.24803923070430756)
(X_266  0.3558823764324188)
(X_267  0.2598039209842682)
(X_268  0.24803923070430756)
(X_269  0.3558823764324188)
(X_270  0.3754902184009552)
(X_271  0.29509803652763367)
(X_272  0.3068627417087555)
(X_273  0.40294119715690613)
(X_274  0.3911764919757843)
(X_275  0.2754901945590973)
(X_276  0.21078431606292725)
(X_277  0.18333333730697632)
(X_278  0.04803921654820442)
(X_279  0.036274511367082596)
(X_280  0.1872549057006836)
(X_281  0.21470588445663452)
(X_282  0.1617647111415863)
(X_283  0.21274511516094208)
(X_284  0.2598039209842682)
(X_285  0.39901962876319885)
(X_286  0.4225490391254425)
(X_287  0.43431374430656433)
(X_288  0.26372548937797546)
(X_289  0.2598039209842682)
(X_290  0.26372548937797546)
(X_291  0.26372548937797546)
(X_292  0.2598039209842682)
(X_293  0.240196093916893)
(X_294  0.21666668355464935)
(X_295  0.20098040997982025)
(X_296  0.344117671251297)
(X_297  0.344117671251297)
(X_298  0.3480392396450043)
(X_299  0.3558823764324188)
(X_300  0.3754902184009552)
(X_301  0.4068627655506134)
(X_302  0.44607844948768616)
(X_303  0.3696078360080719)
(X_304  0.34607842564582825)
(X_305  0.28333333134651184)
(X_306  0.19705882668495178)
(X_307  0.13823530077934265)
(X_308  0.4539215862751007)
(X_309  0.45000001788139343)
(X_310  0.3382352888584137)
(X_311  0.3225490152835846)
(X_312  0.29901960492134094)
(X_313  0.27156862616539)
(X_314  0.24803923070430756)
(X_315  0.23627452552318573)
(X_316  0.2754901945590973)
(X_317  0.3401961028575897)
(X_318  0.30098041892051697)
(X_319  0.2774509787559509)
(X_320  0.25784313678741455)
(X_321  0.23823529481887817)
(X_322  0.1303921639919281)
(X_323  0.23039215803146362)
(X_324  0.2852941155433655)
(X_325  0.1931372582912445)
(X_326  0.19705882668495178)
(X_327  0.1931372582912445)
(X_328  0.20098040997982025)
(X_329  0.3245098292827606)
(X_330  0.3598039448261261)
(X_331  0.3911764919757843)
(X_332  0.4225490391254425)
(X_333  0.4225490391254425)
(X_334  0.33039215207099915)
(X_335  0.3539215624332428)
(X_336  0.4068627655506134)
(X_337  0.40294119715690613)
(X_338  0.3950980603694916)
(X_339  0.387254923582077)
(X_340  0.38333335518836975)
(X_341  0.387254923582077)
(X_342  0.2911764681339264)
(X_343  0.29509803652763367)
(X_344  0.3558823764324188)
(X_345  0.3127451241016388)
(X_346  0.16960784792900085)
(X_347  0.15392157435417175)
(X_348  0.14215686917304993)
(X_349  0.13431373238563538)
(X_350  0.1460784375667572)
(X_351  0.2696078419685364)
(X_352  0.25)
(X_353  0.2696078419685364)
(X_354  0.2970588207244873)
(X_355  0.2088235467672348)
(X_356  0.2088235467672348)
(X_357  0.30490198731422424)
(X_358  0.3127451241016388)
(X_359  0.32058826088905334)
(X_360  0.33235296607017517)
(X_361  0.3637255132198334)
(X_362  0.29509803652763367)
(X_363  0.31470587849617004)
(X_364  0.3186274468898773)
(X_365  0.3029411733150482)
(X_366  0.27941176295280457)
(X_367  0.3598039448261261)
(X_368  0.3480392396450043)
(X_369  0.35196080803871155)
(X_370  0.26372548937797546)
(X_371  0.27156862616539)
(X_372  0.25196078419685364)
(X_373  0.23627452552318573)
(X_374  0.24411766231060028)
(X_375  0.3637255132198334)
(X_376  0.2598039209842682)
(X_377  0.240196093916893)
(X_378  0.25196078419685364)
(X_379  0.28333333134651184)
(X_380  0.2872548997402191)
(X_381  0.3068627417087555)
(X_382  0.4264706075191498)
(X_383  0.3225490152835846)
(X_384  0.29509803652763367)
(X_385  0.25196078419685364)
(X_386  0.2088235467672348)
(X_387  0.2813725471496582)
(X_388  0.28921568393707275)
(X_389  0.3245098292827606)
(X_390  0.3637255132198334)
(X_391  0.3754902184009552)
(X_392  0.39901962876319885)
(X_393  0.38333335518836975)
(X_394  0.3598039448261261)
(X_395  0.3401961028575897)
(X_396  0.33235296607017517)
(X_397  0.33627453446388245)
(X_398  0.24803923070430756)
(X_399  0.2558823525905609)
(X_400  0.24411766231060028)
(X_401  0.2558823525905609)
(X_402  0.39901962876319885)
(X_403  0.4421568810939789)
(X_404  0.4264706075191498)
(X_405  0.3794117867946625)
(X_406  0.2754901945590973)
(X_407  0.3029411733150482)
(X_408  0.3499999940395355)
(X_409  0.3499999940395355)
(X_410  0.4539215862751007)
(X_411  0.45000001788139343)
(X_412  0.4264706075191498)
(X_413  0.387254923582077)
(X_414  0.3401961028575897)
(X_415  0.30490198731422424)
(X_416  0.240196093916893)
(X_417  0.24803923070430756)
(X_418  0.2558823525905609)
(X_419  0.25196078419685364)
(X_420  0.3813725411891937)
(X_421  0.3656862676143646)
(X_422  0.3382352888584137)
(X_423  0.3068627417087555)
(X_424  0.2872548997402191)
(X_425  0.27941176295280457)
(X_426  0.27941176295280457)
(X_427  0.38333335518836975)
(X_428  0.22058825194835663)
(X_429  0.240196093916893)
(X_430  0.2872548997402191)
(X_431  0.3225490152835846)
(X_432  0.2911764681339264)
(X_433  0.3245098292827606)
(X_434  0.21274511516094208)
(X_435  0.24411766231060028)
(X_436  0.2970588207244873)
(X_437  0.30098041892051697)
(X_438  0.31666669249534607)
(X_439  0.3480392396450043)
(X_440  0.38333335518836975)
(X_441  0.29901960492134094)
(X_442  0.29901960492134094)
(X_443  0.2872548997402191)
(X_444  0.21274511516094208)
(X_445  0.2088235467672348)
(X_446  0.20490197837352753)
(X_447  0.30490198731422424)
(X_448  0.36764708161354065)
(X_449  0.38333335518836975)
(X_450  0.4225490391254425)
(X_451  0.4696078598499298)
(X_452  0.47745099663734436)
(X_453  0.3343137204647064)
(X_454  0.387254923582077)
(X_455  0.3598039448261261)
(X_456  0.3401961028575897)
(X_457  0.3127451241016388)
(X_458  0.3088235557079315)
(X_459  0.3284313976764679)
(X_460  0.33235296607017517)
(X_461  0.29313725233078003)
(X_462  0.15392157435417175)
(X_463  0.13823530077934265)
(X_464  0.12647059559822083)
(X_465  0.11862745881080627)
(X_466  0.20686274766921997)
(X_467  0.20686274766921997)
(X_468  0.2186274528503418)
(X_469  0.24607843160629272)
(X_470  0.2774509787559509)
(X_471  0.30098041892051697)
(X_472  0.3637255132198334)
(X_473  0.3637255132198334)
(X_474  0.36764708161354065)
(X_475  0.3715686500072479)
(X_476  0.16960784792900085)
(X_477  0.1774509847164154)
(X_478  0.3088235557079315)
(X_479  0.3480392396450043)
(X_480  0.25196078419685364)
(X_481  0.21666668355464935)
(X_482  0.1774509847164154)
(X_483  0.15784314274787903)
(X_484  0.2696078419685364)
(X_485  0.24215686321258545)
(X_486  0.23039215803146362)
(X_487  0.1460784375667572)
(X_488  0.15000000596046448)
(X_489  0.1303921639919281)
(X_490  0.10686275362968445)
(X_491  0.10294118523597717)
(X_492  0.10686275362968445)
(X_493  0.09509804844856262)
(X_494  0.18333333730697632)
(X_495  0.18333333730697632)
(X_496  0.19509804248809814)
(X_497  0.2186274528503418)
(X_498  0.24607843160629272)
(X_499  0.16568627953529358)
(X_500  0.20490197837352753)
(X_501  0.20098040997982025)
(X_502  0.19705882668495178)
(X_503  0.1931372582912445)
(X_504  0.2029411792755127)
(X_505  0.19901961088180542)
(X_506  0.21470588445663452)
(X_507  0.14215686917304993)
(X_508  0.15000000596046448)
(X_509  0.12647059559822083)
(X_510  0.10294118523597717)
(X_511  0.19509804248809814)
(X_512  0.12647059559822083)
(X_513  0.0990196168422699)
(X_514  0.07941177487373352)
(X_515  0.08725491166114807)
(X_516  0.09509804844856262)
(X_517  0.09509804844856262)
(X_518  0.09117648005485535)
(X_519  0.09509804844856262)
(X_520  0.09509804844856262)
(X_521  0.08725491166114807)
(X_522  0.07549020648002625)
(X_523  0.07156863063573837)
(X_524  0.07941177487373352)
(X_525  0.0990196168422699)
(X_526  0.22254902124404907)
(X_527  0.2343137264251709)
(X_528  0.15784314274787903)
(X_529  0.15000000596046448)
(X_530  0.13823530077934265)
(X_531  0.12647059559822083)
(X_532  0.1872549057006836)
(X_533  0.17549020051956177)
(X_534  0.17549020051956177)
(X_535  0.19509804248809814)
(X_536  0.2029411792755127)
(X_537  0.08725491166114807)
(X_538  0.07549020648002625)
(X_539  0.17941176891326904)
(X_540  0.0990196168422699)
(X_541  0.0833333432674408)
(X_542  0.16764706373214722)
(X_543  0.16764706373214722)
(X_544  0.17549020051956177)
(X_545  0.17941176891326904)
(X_546  0.18333333730697632)
(X_547  0.08725491166114807)
(X_548  0.17941176891326904)
(X_549  0.1715686321258545)
(X_550  0.16372549533843994)
(X_551  0.1558823585510254)
(X_552  0.15980392694473267)
(X_553  0.1715686321258545)
(X_554  0.08725491166114807)
(X_555  0.0990196168422699)
(X_556  0.21470588445663452)
(X_557  0.10686275362968445)
(X_558  0.09117648005485535)
(X_559  0.17941176891326904)
(X_560  0.16372549533843994)
(X_561  0.04411764815449715)
(X_562  0.036274511367082596)
(X_563  0.04803921654820442)
(X_564  0.05588235333561897)
(X_565  0.04803921654820442)
(X_566  0.04411764815449715)
(X_567  0.0519607849419117)
(X_568  0.0519607849419117)
(X_569  0.14803922176361084)
(X_570  0.14411765336990356)
(X_571  0.1401960849761963)
(X_572  0.04019607976078987)
(X_573  0.04803921654820442)
(X_574  0.04411764815449715)
(X_575  0.04019607976078987)
(X_576  0.04411764815449715)
(X_577  0.036274511367082596)
(X_578  0.028431374579668045)
(X_579  0.02450980618596077)
(X_580  0.12450980395078659)
(X_581  0.13235294818878174)
(X_582  0.14411765336990356)
(X_583  0.14803922176361084)
(X_584  0.15980392694473267)
(X_585  0.0519607849419117)
(X_586  0.04411764815449715)
(X_587  0.03235294297337532)
(X_588  0.136274516582489)
(X_589  0.01666666939854622)
(X_590  0.008823529817163944)
(X_591  0.12058823555707932)
(X_592  0.028431374579668045)
(X_593  0.020588237792253494)
(X_594  0.020588237792253494)
(X_595  0.12843137979507446)
(X_596  0.11666666716337204)
(X_597  0.12450980395078659)
(X_598  0.028431374579668045)
(X_599  0.01666666939854622)
(X_600  0.01666666939854622)
(X_601  0.02450980618596077)
(X_602  0.020588237792253494)
(X_603  0.004901961423456669)
(X_604  0.12843137979507446)
(X_605  0.12450980395078659)
(X_606  0.12058823555707932)
(X_607  0.11666666716337204)
(X_608  0.11666666716337204)
(X_609  0.12058823555707932)
(X_610  0.12450980395078659)
(X_611  0.12843137979507446)
(X_612  0.028431374579668045)
(X_613  0.02450980618596077)
(X_614  0.12058823555707932)
(X_615  0.11666666716337204)
(X_616  0.12843137979507446)
(X_617  0.11274509876966476)
(X_618  0.008823529817163944)
(X_619  0.020588237792253494)
(X_620  0.028431374579668045)
(X_621  0.12058823555707932)
(X_622  0.11274509876966476)
(X_623  0.12058823555707932)
(X_624  0.10490196198225021)
(X_625  0.12450980395078659)
(X_626  0.12450980395078659)
(X_627  0.10882353037595749)
(X_628  0.008823529817163944)
(X_629  0.02450980618596077)
(X_630  0.12450980395078659)
(X_631  0.11274509876966476)
(X_632  0.02450980618596077)
(X_633  0.02450980618596077)
(X_634  0.02450980618596077)
(X_635  0.020588237792253494)
(X_636  0.12058823555707932)
(X_637  0.12450980395078659)
(X_638  0.12450980395078659)
(X_639  0.12450980395078659)
(X_640  0.020588237792253494)
(X_641  0.12058823555707932)
(X_642  0.12058823555707932)
(X_643  0.12058823555707932)
(X_644  0.12450980395078659)
(X_645  0.008823529817163944)
(X_646  0.10882353037595749)
(X_647  0.12450980395078659)
(X_648  0.13235294818878174)
(X_649  0.020588237792253494)
(X_650  0.012745101936161518)
(X_651  0.01666666939854622)
(X_652  -0.0029411755967885256)
(X_653  0.01666666939854622)
(X_654  0.01666666939854622)
(X_655  -0.0029411755967885256)
(X_656  -0.0029411755967885256)
(X_657  0.020588237792253494)
(X_658  0.03235294297337532)
(X_659  0.02450980618596077)
(X_660  0.10490196198225021)
(X_661  0.10490196198225021)
(X_662  0.10490196198225021)
(X_663  0.10490196198225021)
(X_664  0.004901961423456669)
(X_665  0.008823529817163944)
(X_666  0.008823529817163944)
(X_667  0.008823529817163944)
(X_668  0.004901961423456669)
(X_669  0.004901961423456669)
(X_670  0.008823529817163944)
(X_671  0.008823529817163944)
(X_672  0.10882353037595749)
(X_673  0.0009803927969187498)
(X_674  0.004901961423456669)
(X_675  0.012745101936161518)
(X_676  0.008823529817163944)
(X_677  0.09705882519483566)
(X_678  0.10490196198225021)
(X_679  0.12450980395078659)
(X_680  -0.014705880545079708)
(X_681  0.11274509876966476)
(X_682  0.10098039358854294)
(X_683  0.08921568840742111)
(X_684  0.11274509876966476)
(X_685  0.10490196198225021)
(X_686  -0.0029411755967885256)
(X_687  0.028431374579668045)
(X_688  0.10098039358854294)
(X_689  0.10882353037595749)
(X_690  0.008823529817163944)
(X_691  0.008823529817163944)
(X_692  0.10490196198225021)
(X_693  0.10490196198225021)
(X_694  0.012745101936161518)
(X_695  0.020588237792253494)
(X_696  0.10882353037595749)
(X_697  0.10882353037595749)
(X_698  0.10882353037595749)
(X_699  0.10882353037595749)
(X_700  0.12450980395078659)
(X_701  0.012745101936161518)
(X_702  0.012745101936161518)
(X_703  0.01666666939854622)
(X_704  0.008823529817163944)
(X_705  -0.006862743757665157)
(X_706  -0.0029411755967885256)
(X_707  0.012745101936161518)
(X_708  0.012745101936161518)
(X_709  0.036274511367082596)
(X_710  0.12058823555707932)
(X_711  0.10882353037595749)
(X_712  0.12450980395078659)
(X_713  0.11274509876966476)
(X_714  0.004901961423456669)
(X_715  0.03235294297337532)
(X_716  0.11274509876966476)
(X_717  0.11666666716337204)
(X_718  0.01666666939854622)
(X_719  0.012745101936161518)
(X_720  0.10490196198225021)
(X_721  0.10098039358854294)
(X_722  0.10490196198225021)
(X_723  0.10882353037595749)
(X_724  0.10490196198225021)
(X_725  0.10490196198225021)
(X_726  0.10882353037595749)
(X_727  0.10882353037595749)
(X_728  0.10098039358854294)
(X_729  -0.006862743757665157)
(X_730  -0.006862743757665157)
(X_731  0.10098039358854294)
(X_732  0.09705882519483566)
(X_733  0.08529412001371384)
(X_734  0.09313725680112839)
(X_735  0.11274509876966476)
(X_736  0.06960784643888474)
(X_737  0.09705882519483566)
(X_738  0.08529412001371384)
(X_739  0.07745098322629929)
(X_740  0.09705882519483566)
(X_741  0.09313725680112839)
(X_742  0.08529412001371384)
(X_743  0.11666666716337204)
(X_744  -0.006862743757665157)
(X_745  0.09705882519483566)
(X_746  0.10490196198225021)
(X_747  0.004901961423456669)
(X_748  0.0009803927969187498)
(X_749  0.0009803927969187498)
(X_750  0.008823529817163944)
(X_751  0.01666666939854622)
(X_752  0.10098039358854294)
(X_753  0.10490196198225021)
(X_754  0.11274509876966476)
(X_755  0.11666666716337204)
(X_756  0.25)
(X_757  0.1460784375667572)
(X_758  0.15784314274787903)
(X_759  0.18137255311012268)
(X_760  0.18921568989753723)
(X_761  0.1931372582912445)
(X_762  0.2088235467672348)
(X_763  0.33627453446388245)
(X_764  0.3754902184009552)
(X_765  0.4107843339443207)
(X_766  0.3068627417087555)
(X_767  0.31470587849617004)
(X_768  0.3499999940395355)
(X_769  0.3578431308269501)
(X_770  0.36176469922065735)
(X_771  0.4009803831577301)
(X_772  0.42843136191368103)
(X_773  0.44411763548851013)
(X_774  0.4637255072593689)
(X_775  0.479411780834198)
(X_776  0.5911765098571777)
(X_777  0.6029412150382996)
(X_778  0.5186274647712708)
(X_779  0.5303921699523926)
(X_780  0.593137264251709)
(X_781  0.6009804010391235)
(X_782  0.6088235378265381)
(X_783  0.6205882430076599)
(Y_0 -36.13834762573242)
(Y_1 53.165225982666016)
(Y_2 -28.216447830200195)
(Y_3 12.41942024230957))