((X_0  0.04411764815449715)
(X_1  0.04019607976078987)
(X_2  0.036274511367082596)
(X_3  0.03235294297337532)
(X_4  0.028431374579668045)
(X_5  0.028431374579668045)
(X_6  0.12843137979507446)
(X_7  0.12843137979507446)
(X_8  0.136274516582489)
(X_9  0.136274516582489)
(X_10  0.13235294818878174)
(X_11  0.12843137979507446)
(X_12  0.12843137979507446)
(X_13  0.12450980395078659)
(X_14  0.02450980618596077)
(X_15  0.02450980618596077)
(X_16  0.028431374579668045)
(X_17  0.03235294297337532)
(X_18  0.03235294297337532)
(X_19  0.036274511367082596)
(X_20  0.04019607976078987)
(X_21  0.04411764815449715)
(X_22  0.14411765336990356)
(X_23  0.14803922176361084)
(X_24  0.05588235333561897)
(X_25  0.05588235333561897)
(X_26  0.05980392172932625)
(X_27  0.05980392172932625)
(X_28  0.15196079015731812)
(X_29  0.14803922176361084)
(X_30  0.04411764815449715)
(X_31  0.1401960849761963)
(X_32  0.136274516582489)
(X_33  0.036274511367082596)
(X_34  0.04019607976078987)
(X_35  0.04019607976078987)
(X_36  0.036274511367082596)
(X_37  0.1401960849761963)
(X_38  0.1401960849761963)
(X_39  0.1401960849761963)
(X_40  0.1401960849761963)
(X_41  0.136274516582489)
(X_42  0.13235294818878174)
(X_43  0.12843137979507446)
(X_44  0.13235294818878174)
(X_45  0.03235294297337532)
(X_46  0.03235294297337532)
(X_47  0.03235294297337532)
(X_48  0.03235294297337532)
(X_49  0.03235294297337532)
(X_50  0.13235294818878174)
(X_51  0.13235294818878174)
(X_52  0.04019607976078987)
(X_53  0.04019607976078987)
(X_54  0.04019607976078987)
(X_55  0.04411764815449715)
(X_56  0.03235294297337532)
(X_57  0.13235294818878174)
(X_58  0.028431374579668045)
(X_59  0.12450980395078659)
(X_60  0.12450980395078659)
(X_61  0.02450980618596077)
(X_62  0.02450980618596077)
(X_63  0.02450980618596077)
(X_64  0.028431374579668045)
(X_65  0.13235294818878174)
(X_66  0.13235294818878174)
(X_67  0.13235294818878174)
(X_68  0.12843137979507446)
(X_69  0.12058823555707932)
(X_70  0.11274509876966476)
(X_71  0.10882353037595749)
(X_72  0.11666666716337204)
(X_73  0.01666666939854622)
(X_74  0.01666666939854622)
(X_75  0.020588237792253494)
(X_76  0.020588237792253494)
(X_77  0.020588237792253494)
(X_78  0.12058823555707932)
(X_79  0.12450980395078659)
(X_80  0.12450980395078659)
(X_81  0.12058823555707932)
(X_82  0.12058823555707932)
(X_83  0.12058823555707932)
(X_84  0.03235294297337532)
(X_85  0.028431374579668045)
(X_86  0.02450980618596077)
(X_87  0.12450980395078659)
(X_88  0.12058823555707932)
(X_89  0.12058823555707932)
(X_90  0.12450980395078659)
(X_91  0.12450980395078659)
(X_92  0.12843137979507446)
(X_93  0.12843137979507446)
(X_94  0.13235294818878174)
(X_95  0.13235294818878174)
(X_96  0.12450980395078659)
(X_97  0.11666666716337204)
(X_98  0.004901961423456669)
(X_99  -0.0029411755967885256)
(X_100  0.008823529817163944)
(X_101  0.10882353037595749)
(X_102  0.012745101936161518)
(X_103  0.01666666939854622)
(X_104  0.12450980395078659)
(X_105  0.12843137979507446)
(X_106  0.13235294818878174)
(X_107  0.13235294818878174)
(X_108  0.028431374579668045)
(X_109  0.028431374579668045)
(X_110  0.028431374579668045)
(X_111  0.028431374579668045)
(X_112  0.14411765336990356)
(X_113  0.1401960849761963)
(X_114  0.136274516582489)
(X_115  0.12843137979507446)
(X_116  0.02450980618596077)
(X_117  0.02450980618596077)
(X_118  0.12450980395078659)
(X_119  0.02450980618596077)
(X_120  0.020588237792253494)
(X_121  0.02450980618596077)
(X_122  0.028431374579668045)
(X_123  0.03235294297337532)
(X_124  0.13235294818878174)
(X_125  0.12843137979507446)
(X_126  0.02450980618596077)
(X_127  0.020588237792253494)
(X_128  0.020588237792253494)
(X_129  0.020588237792253494)
(X_130  0.12450980395078659)
(X_131  0.12450980395078659)
(X_132  0.12843137979507446)
(X_133  0.12843137979507446)
(X_134  0.13235294818878174)
(X_135  0.03235294297337532)
(X_136  0.13235294818878174)
(X_137  0.13235294818878174)
(X_138  0.136274516582489)
(X_139  0.04019607976078987)
(X_140  0.136274516582489)
(X_141  0.13235294818878174)
(X_142  0.12450980395078659)
(X_143  0.11666666716337204)
(X_144  0.10882353037595749)
(X_145  0.10490196198225021)
(X_146  0.004901961423456669)
(X_147  0.004901961423456669)
(X_148  0.10882353037595749)
(X_149  0.10882353037595749)
(X_150  0.012745101936161518)
(X_151  0.11666666716337204)
(X_152  0.12058823555707932)
(X_153  0.12450980395078659)
(X_154  0.028431374579668045)
(X_155  0.03235294297337532)
(X_156  0.020588237792253494)
(X_157  0.12058823555707932)
(X_158  0.11666666716337204)
(X_159  0.11274509876966476)
(X_160  0.11274509876966476)
(X_161  0.10882353037595749)
(X_162  0.10490196198225021)
(X_163  0.10490196198225021)
(X_164  0.11666666716337204)
(X_165  0.11666666716337204)
(X_166  0.11666666716337204)
(X_167  0.12058823555707932)
(X_168  0.11078432202339172)
(X_169  0.10686275362968445)
(X_170  0.09509804844856262)
(X_171  0.08725491166114807)
(X_172  0.07549020648002625)
(X_173  0.0676470622420311)
(X_174  0.16372549533843994)
(X_175  0.16372549533843994)
(X_176  0.05588235333561897)
(X_177  0.14803922176361084)
(X_178  0.136274516582489)
(X_179  0.12450980395078659)
(X_180  0.12058823555707932)
(X_181  0.11666666716337204)
(X_182  0.020588237792253494)
(X_183  0.12058823555707932)
(X_184  0.020588237792253494)
(X_185  0.020588237792253494)
(X_186  0.02450980618596077)
(X_187  0.028431374579668045)
(X_188  0.028431374579668045)
(X_189  0.03235294297337532)
(X_190  0.13235294818878174)
(X_191  0.13235294818878174)
(X_192  0.14411765336990356)
(X_193  0.14411765336990356)
(X_194  0.1401960849761963)
(X_195  0.1401960849761963)
(X_196  0.3558823764324188)
(X_197  0.3480392396450043)
(X_198  0.33627453446388245)
(X_199  0.3245098292827606)
(X_200  0.3127451241016388)
(X_201  0.20490197837352753)
(X_202  0.19705882668495178)
(X_203  0.1931372582912445)
(X_204  0.14215686917304993)
(X_205  0.12647059559822083)
(X_206  0.0990196168422699)
(X_207  0.0676470622420311)
(X_208  0.04803921654820442)
(X_209  0.03235294297337532)
(X_210  0.028431374579668045)
(X_211  0.12450980395078659)
(X_212  0.14411765336990356)
(X_213  0.15196079015731812)
(X_214  0.15980392694473267)
(X_215  0.07156863063573837)
(X_216  0.08725491166114807)
(X_217  0.0990196168422699)
(X_218  0.11078432202339172)
(X_219  0.114705890417099)
(X_220  0.114705890417099)
(X_221  0.21078431606292725)
(X_222  0.10686275362968445)
(X_223  0.0990196168422699)
(X_224  0.32058826088905334)
(X_225  0.32058826088905334)
(X_226  0.2245098203420639)
(X_227  0.22843138873577118)
(X_228  0.2245098203420639)
(X_229  0.2245098203420639)
(X_230  0.22058825194835663)
(X_231  0.31666669249534607)
(X_232  0.32058826088905334)
(X_233  0.32058826088905334)
(X_234  0.3245098292827606)
(X_235  0.3127451241016388)
(X_236  0.2774509787559509)
(X_237  0.23823529481887817)
(X_238  0.23823529481887817)
(X_239  0.2617647051811218)
(X_240  0.1931372582912445)
(X_241  0.2088235467672348)
(X_242  0.22843138873577118)
(X_243  0.23235295712947845)
(X_244  0.23235295712947845)
(X_245  0.23235295712947845)
(X_246  0.240196093916893)
(X_247  0.24803923070430756)
(X_248  0.344117671251297)
(X_249  0.24411766231060028)
(X_250  0.24803923070430756)
(X_251  0.3480392396450043)
(X_252  0.28921568393707275)
(X_253  0.28921568393707275)
(X_254  0.2852941155433655)
(X_255  0.2813725471496582)
(X_256  0.2774509787559509)
(X_257  0.27352941036224365)
(X_258  0.2696078419685364)
(X_259  0.16960784792900085)
(X_260  0.2539215683937073)
(X_261  0.24215686321258545)
(X_262  0.2343137264251709)
(X_263  0.24215686321258545)
(X_264  0.23823529481887817)
(X_265  0.23039215803146362)
(X_266  0.23823529481887817)
(X_267  0.15392157435417175)
(X_268  0.15000000596046448)
(X_269  0.16568627953529358)
(X_270  0.18921568989753723)
(X_271  0.20490197837352753)
(X_272  0.2088235467672348)
(X_273  0.21666668355464935)
(X_274  0.2245098203420639)
(X_275  0.23627452552318573)
(X_276  0.22058825194835663)
(X_277  0.22058825194835663)
(X_278  0.32058826088905334)
(X_279  0.3245098292827606)
(X_280  0.5735294222831726)
(X_281  0.5539215803146362)
(X_282  0.5147058963775635)
(X_283  0.47156864404678345)
(X_284  0.42843136191368103)
(X_285  0.4892157018184662)
(X_286  0.46176472306251526)
(X_287  0.3499999940395355)
(X_288  0.4421568810939789)
(X_289  0.40294119715690613)
(X_290  0.3598039448261261)
(X_291  0.33627453446388245)
(X_292  0.31666669249534607)
(X_293  0.2852941155433655)
(X_294  0.16568627953529358)
(X_295  0.1617647111415863)
(X_296  0.2852941155433655)
(X_297  0.2970588207244873)
(X_298  0.3088235557079315)
(X_299  0.21274511516094208)
(X_300  0.2088235467672348)
(X_301  0.20490197837352753)
(X_302  0.20490197837352753)
(X_303  0.2088235467672348)
(X_304  0.3127451241016388)
(X_305  0.3088235557079315)
(X_306  0.19705882668495178)
(X_307  0.18529412150382996)
(X_308  0.3186274468898773)
(X_309  0.32647058367729187)
(X_310  0.3382352888584137)
(X_311  0.3656862676143646)
(X_312  0.3970588147640228)
(X_313  0.4323529303073883)
(X_314  0.4637255072593689)
(X_315  0.479411780834198)
(X_316  0.5029411911964417)
(X_317  0.479411780834198)
(X_318  0.4637255072593689)
(X_319  0.4637255072593689)
(X_320  0.45588237047195435)
(X_321  0.5401960611343384)
(X_322  0.5362744927406311)
(X_323  0.5441176295280457)
(X_324  0.3892156779766083)
(X_325  0.49313727021217346)
(X_326  0.5009803771972656)
(X_327  0.5009803771972656)
(X_328  0.4009803831577301)
(X_329  0.39313724637031555)
(X_330  0.3892156779766083)
(X_331  0.3892156779766083)
(X_332  0.4421568810939789)
(X_333  0.4382353127002716)
(X_334  0.43039217591285706)
(X_335  0.3225490152835846)
(X_336  0.2245098203420639)
(X_337  0.31666669249534607)
(X_338  0.2088235467672348)
(X_339  0.2970588207244873)
(X_340  0.2970588207244873)
(X_341  0.2970588207244873)
(X_342  0.20490197837352753)
(X_343  0.2088235467672348)
(X_344  0.33627453446388245)
(X_345  0.344117671251297)
(X_346  0.36764708161354065)
(X_347  0.28333333134651184)
(X_348  0.3794117867946625)
(X_349  0.3637255132198334)
(X_350  0.3754902184009552)
(X_351  0.3029411733150482)
(X_352  0.33039215207099915)
(X_353  0.3382352888584137)
(X_354  0.3499999940395355)
(X_355  0.3696078360080719)
(X_356  0.385294109582901)
(X_357  0.39313724637031555)
(X_358  0.3970588147640228)
(X_359  0.49705883860588074)
(X_360  0.5284313559532166)
(X_361  0.5362744927406311)
(X_362  0.551960825920105)
(X_363  0.5676470994949341)
(X_364  0.0990196168422699)
(X_365  0.09509804844856262)
(X_366  0.09117648005485535)
(X_367  0.09117648005485535)
(X_368  0.19509804248809814)
(X_369  0.2029411792755127)
(X_370  0.20686274766921997)
(X_371  0.21470588445663452)
(X_372  0.12254902720451355)
(X_373  0.13431373238563538)
(X_374  0.15392157435417175)
(X_375  0.2539215683937073)
(X_376  0.22254902124404907)
(X_377  0.18333333730697632)
(X_378  0.18333333730697632)
(X_379  0.2029411792755127)
(X_380  0.22254902124404907)
(X_381  0.22647058963775635)
(X_382  0.13431373238563538)
(X_383  0.25)
(X_384  0.2656862735748291)
(X_385  0.17352941632270813)
(X_386  0.16960784792900085)
(X_387  0.16568627953529358)
(X_388  0.2656862735748291)
(X_389  0.2774509787559509)
(X_390  0.2970588207244873)
(X_391  0.21274511516094208)
(X_392  0.07549020648002625)
(X_393  0.07549020648002625)
(X_394  0.17941176891326904)
(X_395  0.17941176891326904)
(X_396  0.18333333730697632)
(X_397  0.1872549057006836)
(X_398  0.19117647409439087)
(X_399  0.19509804248809814)
(X_400  0.15980392694473267)
(X_401  0.16372549533843994)
(X_402  0.17941176891326904)
(X_403  0.0990196168422699)
(X_404  0.09509804844856262)
(X_405  0.07941177487373352)
(X_406  0.1872549057006836)
(X_407  0.2029411792755127)
(X_408  0.10686275362968445)
(X_409  0.10294118523597717)
(X_410  0.0990196168422699)
(X_411  0.10686275362968445)
(X_412  0.114705890417099)
(X_413  0.21078431606292725)
(X_414  0.19901961088180542)
(X_415  0.1872549057006836)
(X_416  0.10686275362968445)
(X_417  0.21078431606292725)
(X_418  0.2186274528503418)
(X_419  0.22254902124404907)
(X_420  0.028431374579668045)
(X_421  0.028431374579668045)
(X_422  0.13235294818878174)
(X_423  0.136274516582489)
(X_424  0.136274516582489)
(X_425  0.136274516582489)
(X_426  0.13235294818878174)
(X_427  0.13235294818878174)
(X_428  0.04803921654820442)
(X_429  0.12843137979507446)
(X_430  0.12843137979507446)
(X_431  0.04803921654820442)
(X_432  0.15980392694473267)
(X_433  0.15980392694473267)
(X_434  0.15980392694473267)
(X_435  0.0676470622420311)
(X_436  0.04411764815449715)
(X_437  0.04019607976078987)
(X_438  0.04019607976078987)
(X_439  0.0519607849419117)
(X_440  0.0676470622420311)
(X_441  0.07549020648002625)
(X_442  0.06372549384832382)
(X_443  0.0519607849419117)
(X_444  0.14803922176361084)
(X_445  0.14803922176361084)
(X_446  0.15196079015731812)
(X_447  0.15980392694473267)
(X_448  0.01666666939854622)
(X_449  0.11274509876966476)
(X_450  0.11274509876966476)
(X_451  0.11274509876966476)
(X_452  0.01666666939854622)
(X_453  0.020588237792253494)
(X_454  0.12450980395078659)
(X_455  0.02450980618596077)
(X_456  0.020588237792253494)
(X_457  0.020588237792253494)
(X_458  0.02450980618596077)
(X_459  0.12450980395078659)
(X_460  0.12843137979507446)
(X_461  0.12843137979507446)
(X_462  0.13235294818878174)
(X_463  0.13235294818878174)
(X_464  0.12843137979507446)
(X_465  0.12843137979507446)
(X_466  0.02450980618596077)
(X_467  0.020588237792253494)
(X_468  0.020588237792253494)
(X_469  0.02450980618596077)
(X_470  0.028431374579668045)
(X_471  0.028431374579668045)
(X_472  0.04019607976078987)
(X_473  0.04019607976078987)
(X_474  0.04019607976078987)
(X_475  0.1401960849761963)
(X_476  0.012745101936161518)
(X_477  0.008823529817163944)
(X_478  0.008823529817163944)
(X_479  0.008823529817163944)
(X_480  0.012745101936161518)
(X_481  0.012745101936161518)
(X_482  0.01666666939854622)
(X_483  0.020588237792253494)
(X_484  0.008823529817163944)
(X_485  0.008823529817163944)
(X_486  0.012745101936161518)
(X_487  0.11274509876966476)
(X_488  0.11274509876966476)
(X_489  0.11274509876966476)
(X_490  0.11274509876966476)
(X_491  0.11666666716337204)
(X_492  0.12450980395078659)
(X_493  0.12058823555707932)
(X_494  0.020588237792253494)
(X_495  0.01666666939854622)
(X_496  0.01666666939854622)
(X_497  0.12058823555707932)
(X_498  0.12058823555707932)
(X_499  0.12450980395078659)
(X_500  0.02450980618596077)
(X_501  0.12450980395078659)
(X_502  0.02450980618596077)
(X_503  0.02450980618596077)
(X_504  0.004901961423456669)
(X_505  0.10490196198225021)
(X_506  0.10098039358854294)
(X_507  0.10098039358854294)
(X_508  0.10490196198225021)
(X_509  0.004901961423456669)
(X_510  0.008823529817163944)
(X_511  0.012745101936161518)
(X_512  0.004901961423456669)
(X_513  0.004901961423456669)
(X_514  0.004901961423456669)
(X_515  0.10490196198225021)
(X_516  0.10490196198225021)
(X_517  0.10098039358854294)
(X_518  0.0009803927969187498)
(X_519  0.10098039358854294)
(X_520  0.11666666716337204)
(X_521  0.11274509876966476)
(X_522  0.11274509876966476)
(X_523  0.008823529817163944)
(X_524  0.008823529817163944)
(X_525  0.012745101936161518)
(X_526  0.012745101936161518)
(X_527  0.01666666939854622)
(X_528  0.008823529817163944)
(X_529  0.10882353037595749)
(X_530  0.008823529817163944)
(X_531  0.008823529817163944)
(X_532  0.0009803927969187498)
(X_533  0.10098039358854294)
(X_534  -0.0029411755967885256)
(X_535  -0.0029411755967885256)
(X_536  -0.0029411755967885256)
(X_537  -0.0029411755967885256)
(X_538  0.0009803927969187498)
(X_539  0.004901961423456669)
(X_540  0.008823529817163944)
(X_541  0.008823529817163944)
(X_542  0.10882353037595749)
(X_543  0.10490196198225021)
(X_544  0.10098039358854294)
(X_545  0.0009803927969187498)
(X_546  -0.0029411755967885256)
(X_547  0.09705882519483566)
(X_548  0.10882353037595749)
(X_549  0.10490196198225021)
(X_550  0.0009803927969187498)
(X_551  0.0009803927969187498)
(X_552  0.0009803927969187498)
(X_553  0.0009803927969187498)
(X_554  0.004901961423456669)
(X_555  0.008823529817163944)
(X_556  0.09705882519483566)
(X_557  0.09705882519483566)
(X_558  0.09705882519483566)
(X_559  0.09705882519483566)
(X_560  -0.0029411755967885256)
(X_561  -0.0029411755967885256)
(X_562  -0.006862743757665157)
(X_563  -0.010784312151372433)
(X_564  -0.010784312151372433)
(X_565  -0.006862743757665157)
(X_566  -0.006862743757665157)
(X_567  -0.0029411755967885256)
(X_568  0.10490196198225021)
(X_569  0.004901961423456669)
(X_570  0.0009803927969187498)
(X_571  -0.0029411755967885256)
(X_572  0.09705882519483566)
(X_573  -0.006862743757665157)
(X_574  -0.006862743757665157)
(X_575  0.09313725680112839)
(X_576  0.10098039358854294)
(X_577  0.09705882519483566)
(X_578  -0.0029411755967885256)
(X_579  -0.006862743757665157)
(X_580  -0.006862743757665157)
(X_581  -0.0029411755967885256)
(X_582  -0.0029411755967885256)
(X_583  0.0009803927969187498)
(X_584  -0.006862743757665157)
(X_585  0.09313725680112839)
(X_586  -0.006862743757665157)
(X_587  0.09313725680112839)
(X_588  0.09705882519483566)
(X_589  0.09705882519483566)
(X_590  -0.006862743757665157)
(X_591  -0.010784312151372433)
(X_592  -0.010784312151372433)
(X_593  -0.010784312151372433)
(X_594  -0.010784312151372433)
(X_595  -0.006862743757665157)
(X_596  -0.010784312151372433)
(X_597  -0.010784312151372433)
(X_598  -0.014705880545079708)
(X_599  0.08529412001371384)
(X_600  0.08529412001371384)
(X_601  0.08529412001371384)
(X_602  0.08137255162000656)
(X_603  0.08137255162000656)
(X_604  0.09705882519483566)
(X_605  -0.006862743757665157)
(X_606  -0.006862743757665157)
(X_607  0.08921568840742111)
(X_608  0.08921568840742111)
(X_609  -0.006862743757665157)
(X_610  -0.006862743757665157)
(X_611  -0.0029411755967885256)
(X_612  -0.006862743757665157)
(X_613  0.09313725680112839)
(X_614  0.09313725680112839)
(X_615  0.09313725680112839)
(X_616  0.0009803927969187498)
(X_617  0.09705882519483566)
(X_618  0.09313725680112839)
(X_619  0.08921568840742111)
(X_620  0.08921568840742111)
(X_621  -0.010784312151372433)
(X_622  -0.010784312151372433)
(X_623  -0.010784312151372433)
(X_624  0.08137255162000656)
(X_625  0.08137255162000656)
(X_626  0.08137255162000656)
(X_627  0.08529412001371384)
(X_628  0.08529412001371384)
(X_629  0.08529412001371384)
(X_630  0.08529412001371384)
(X_631  0.08529412001371384)
(X_632  0.09705882519483566)
(X_633  0.09313725680112839)
(X_634  0.09313725680112839)
(X_635  0.08921568840742111)
(X_636  0.08921568840742111)
(X_637  0.09313725680112839)
(X_638  0.09313725680112839)
(X_639  0.09705882519483566)
(X_640  0.09313725680112839)
(X_641  0.09313725680112839)
(X_642  0.09313725680112839)
(X_643  -0.006862743757665157)
(X_644  0.10098039358854294)
(X_645  0.10098039358854294)
(X_646  -0.0029411755967885256)
(X_647  -0.010784312151372433)
(X_648  -0.010784312151372433)
(X_649  -0.010784312151372433)
(X_650  0.08921568840742111)
(X_651  -0.010784312151372433)
(X_652  -0.014705880545079708)
(X_653  -0.010784312151372433)
(X_654  -0.010784312151372433)
(X_655  -0.006862743757665157)
(X_656  0.09313725680112839)
(X_657  0.09705882519483566)
(X_658  0.09705882519483566)
(X_659  0.10098039358854294)
(X_660  0.09705882519483566)
(X_661  0.09313725680112839)
(X_662  -0.006862743757665157)
(X_663  -0.010784312151372433)
(X_664  -0.010784312151372433)
(X_665  -0.006862743757665157)
(X_666  -0.006862743757665157)
(X_667  -0.0029411755967885256)
(X_668  -0.010784312151372433)
(X_669  -0.010784312151372433)
(X_670  -0.010784312151372433)
(X_671  0.08921568840742111)
(X_672  -0.006862743757665157)
(X_673  0.08921568840742111)
(X_674  0.08137255162000656)
(X_675  0.08137255162000656)
(X_676  0.08137255162000656)
(X_677  0.08137255162000656)
(X_678  0.08137255162000656)
(X_679  0.08137255162000656)
(X_680  0.08137255162000656)
(X_681  0.08921568840742111)
(X_682  0.09313725680112839)
(X_683  -0.006862743757665157)
(X_684  -0.010784312151372433)
(X_685  0.08921568840742111)
(X_686  0.09705882519483566)
(X_687  0.10098039358854294)
(X_688  0.08921568840742111)
(X_689  0.08137255162000656)
(X_690  0.07745098322629929)
(X_691  0.08137255162000656)
(X_692  0.08921568840742111)
(X_693  0.09313725680112839)
(X_694  0.08921568840742111)
(X_695  0.08137255162000656)
(X_696  0.08921568840742111)
(X_697  -0.010784312151372433)
(X_698  -0.010784312151372433)
(X_699  -0.010784312151372433)
(X_700  0.09705882519483566)
(X_701  0.09313725680112839)
(X_702  0.08921568840742111)
(X_703  0.09313725680112839)
(X_704  0.09705882519483566)
(X_705  0.0009803927969187498)
(X_706  0.0009803927969187498)
(X_707  0.0009803927969187498)
(X_708  -0.026470588520169258)
(X_709  -0.018627449870109558)
(X_710  -0.014705880545079708)
(X_711  -0.018627449870109558)
(X_712  -0.026470588520169258)
(X_713  -0.026470588520169258)
(X_714  -0.022549020126461983)
(X_715  0.08137255162000656)
(X_716  -0.010784312151372433)
(X_717  -0.014705880545079708)
(X_718  -0.022549020126461983)
(X_719  -0.018627449870109558)
(X_720  -0.010784312151372433)
(X_721  -0.010784312151372433)
(X_722  -0.010784312151372433)
(X_723  -0.018627449870109558)
(X_724  -0.010784312151372433)
(X_725  -0.010784312151372433)
(X_726  -0.010784312151372433)
(X_727  -0.010784312151372433)
(X_728  0.08137255162000656)
(X_729  0.07352941483259201)
(X_730  0.06568627804517746)
(X_731  0.061764705926179886)
(X_732  0.06568627804517746)
(X_733  0.06960784643888474)
(X_734  0.06568627804517746)
(X_735  0.061764705926179886)
(X_736  -0.006862743757665157)
(X_737  -0.0029411755967885256)
(X_738  0.0009803927969187498)
(X_739  -0.006862743757665157)
(X_740  -0.014705880545079708)
(X_741  -0.022549020126461983)
(X_742  -0.018627449870109558)
(X_743  -0.014705880545079708)
(X_744  -0.006862743757665157)
(X_745  -0.014705880545079708)
(X_746  -0.022549020126461983)
(X_747  -0.018627449870109558)
(X_748  -0.014705880545079708)
(X_749  0.08921568840742111)
(X_750  0.08529412001371384)
(X_751  0.08137255162000656)
(X_752  0.08921568840742111)
(X_753  0.08921568840742111)
(X_754  0.08921568840742111)
(X_755  0.08921568840742111)
(X_756  0.15000000596046448)
(X_757  0.13431373238563538)
(X_758  0.114705890417099)
(X_759  0.20686274766921997)
(X_760  0.2029411792755127)
(X_761  0.19901961088180542)
(X_762  0.18333333730697632)
(X_763  0.07156863063573837)
(X_764  0.136274516582489)
(X_765  0.136274516582489)
(X_766  0.136274516582489)
(X_767  0.12843137979507446)
(X_768  0.11666666716337204)
(X_769  0.10882353037595749)
(X_770  0.10882353037595749)
(X_771  0.11274509876966476)
(X_772  0.09705882519483566)
(X_773  -0.010784312151372433)
(X_774  -0.022549020126461983)
(X_775  -0.022549020126461983)
(X_776  -0.018627449870109558)
(X_777  0.08529412001371384)
(X_778  0.08529412001371384)
(X_779  0.08137255162000656)
(X_780  0.08529412001371384)
(X_781  -0.014705880545079708)
(X_782  -0.014705880545079708)
(X_783  0.08529412001371384)
(Y_0 35.714847564697266)
(Y_1 -2.8680596351623535)
(Y_2 13.515796661376953)
(Y_3 -46.86490249633789))