((X_0  0.05588235333561897)
(X_1  0.15980392694473267)
(X_2  0.16764706373214722)
(X_3  0.07156863063573837)
(X_4  0.07156863063573837)
(X_5  0.16764706373214722)
(X_6  0.06372549384832382)
(X_7  0.15980392694473267)
(X_8  0.16764706373214722)
(X_9  0.1558823585510254)
(X_10  0.1715686321258545)
(X_11  0.16372549533843994)
(X_12  0.020588237792253494)
(X_13  0.020588237792253494)
(X_14  0.0519607849419117)
(X_15  0.04411764815449715)
(X_16  0.14411765336990356)
(X_17  0.16372549533843994)
(X_18  0.14411765336990356)
(X_19  0.1401960849761963)
(X_20  0.16372549533843994)
(X_21  0.05980392172932625)
(X_22  0.1558823585510254)
(X_23  0.19509804248809814)
(X_24  0.07941177487373352)
(X_25  0.1715686321258545)
(X_26  0.15980392694473267)
(X_27  0.04803921654820442)
(X_28  0.04411764815449715)
(X_29  0.14803922176361084)
(X_30  0.1558823585510254)
(X_31  0.15980392694473267)
(X_32  0.15980392694473267)
(X_33  0.15980392694473267)
(X_34  0.1558823585510254)
(X_35  0.15196079015731812)
(X_36  0.12843137979507446)
(X_37  0.11666666716337204)
(X_38  0.15196079015731812)
(X_39  0.17549020051956177)
(X_40  0.06372549384832382)
(X_41  0.07941177487373352)
(X_42  0.0990196168422699)
(X_43  0.17549020051956177)
(X_44  0.16764706373214722)
(X_45  0.18333333730697632)
(X_46  0.16372549533843994)
(X_47  0.16372549533843994)
(X_48  0.19117647409439087)
(X_49  0.17941176891326904)
(X_50  0.14803922176361084)
(X_51  0.15980392694473267)
(X_52  0.0519607849419117)
(X_53  0.1558823585510254)
(X_54  0.1558823585510254)
(X_55  0.05588235333561897)
(X_56  0.036274511367082596)
(X_57  0.136274516582489)
(X_58  0.1401960849761963)
(X_59  0.14411765336990356)
(X_60  0.1401960849761963)
(X_61  0.1401960849761963)
(X_62  0.136274516582489)
(X_63  0.13235294818878174)
(X_64  0.1715686321258545)
(X_65  0.1401960849761963)
(X_66  0.14411765336990356)
(X_67  0.14803922176361084)
(X_68  0.12058823555707932)
(X_69  0.11666666716337204)
(X_70  0.11274509876966476)
(X_71  0.07352941483259201)
(X_72  0.136274516582489)
(X_73  0.14803922176361084)
(X_74  0.12450980395078659)
(X_75  0.02450980618596077)
(X_76  0.06372549384832382)
(X_77  0.06372549384832382)
(X_78  0.13235294818878174)
(X_79  0.036274511367082596)
(X_80  0.01666666939854622)
(X_81  0.020588237792253494)
(X_82  0.020588237792253494)
(X_83  0.02450980618596077)
(X_84  0.012745101936161518)
(X_85  0.11666666716337204)
(X_86  0.11666666716337204)
(X_87  0.01666666939854622)
(X_88  0.01666666939854622)
(X_89  0.11274509876966476)
(X_90  0.11274509876966476)
(X_91  0.11274509876966476)
(X_92  0.04803921654820442)
(X_93  0.12058823555707932)
(X_94  0.12843137979507446)
(X_95  0.13235294818878174)
(X_96  0.11274509876966476)
(X_97  0.13235294818878174)
(X_98  0.06372549384832382)
(X_99  0.0519607849419117)
(X_100  -0.006862743757665157)
(X_101  0.020588237792253494)
(X_102  0.0009803927969187498)
(X_103  -0.010784312151372433)
(X_104  0.01666666939854622)
(X_105  0.028431374579668045)
(X_106  0.12058823555707932)
(X_107  0.1401960849761963)
(X_108  0.04411764815449715)
(X_109  0.14411765336990356)
(X_110  0.14411765336990356)
(X_111  0.04019607976078987)
(X_112  0.12450980395078659)
(X_113  0.12450980395078659)
(X_114  0.13235294818878174)
(X_115  0.04019607976078987)
(X_116  0.04803921654820442)
(X_117  0.05588235333561897)
(X_118  0.06372549384832382)
(X_119  0.0676470622420311)
(X_120  0.14411765336990356)
(X_121  0.1401960849761963)
(X_122  0.15980392694473267)
(X_123  0.04803921654820442)
(X_124  -0.006862743757665157)
(X_125  0.08529412001371384)
(X_126  0.11666666716337204)
(X_127  0.11274509876966476)
(X_128  -0.010784312151372433)
(X_129  0.05980392172932625)
(X_130  0.07156863063573837)
(X_131  0.04019607976078987)
(X_132  0.028431374579668045)
(X_133  0.004901961423456669)
(X_134  0.08529412001371384)
(X_135  0.0009803927969187498)
(X_136  0.12058823555707932)
(X_137  0.11666666716337204)
(X_138  0.11274509876966476)
(X_139  0.012745101936161518)
(X_140  0.34215685725212097)
(X_141  0.44607844948768616)
(X_142  0.3578431308269501)
(X_143  0.3735294044017792)
(X_144  0.3892156779766083)
(X_145  0.5088235139846802)
(X_146  0.5245097875595093)
(X_147  0.4323529303073883)
(X_148  0.4009803831577301)
(X_149  0.3970588147640228)
(X_150  0.4049019515514374)
(X_151  0.34607842564582825)
(X_152  0.21666668355464935)
(X_153  0.13823530077934265)
(X_154  0.21470588445663452)
(X_155  0.1872549057006836)
(X_156  0.25784313678741455)
(X_157  0.36764708161354065)
(X_158  0.41862747073173523)
(X_159  0.2911764681339264)
(X_160  0.25196078419685364)
(X_161  0.18921568989753723)
(X_162  0.13431373238563538)
(X_163  0.12254902720451355)
(X_164  0.16764706373214722)
(X_165  0.15980392694473267)
(X_166  0.1401960849761963)
(X_167  0.02450980618596077)
(X_168  0.5049019455909729)
(X_169  0.5088235139846802)
(X_170  0.5127450823783875)
(X_171  0.4205882251262665)
(X_172  0.4323529303073883)
(X_173  0.44411763548851013)
(X_174  0.4598039388656616)
(X_175  0.46764707565307617)
(X_176  0.42843136191368103)
(X_177  0.4049019515514374)
(X_178  0.3970588147640228)
(X_179  0.34215685725212097)
(X_180  0.23235295712947845)
(X_181  0.16960784792900085)
(X_182  0.15784314274787903)
(X_183  0.13431373238563538)
(X_184  0.29509803652763367)
(X_185  0.4205882251262665)
(X_186  0.4911764860153198)
(X_187  0.5911765098571777)
(X_188  0.5872549414634705)
(X_189  0.5558823943138123)
(X_190  0.5049019455909729)
(X_191  0.39313724637031555)
(X_192  0.3186274468898773)
(X_193  0.31078431010246277)
(X_194  0.3950980603694916)
(X_195  0.3754902184009552)
(X_196  0.43431374430656433)
(X_197  0.43039217591285706)
(X_198  0.32647058367729187)
(X_199  0.3186274468898773)
(X_200  0.3186274468898773)
(X_201  0.3186274468898773)
(X_202  0.3225490152835846)
(X_203  0.32647058367729187)
(X_204  0.29901960492134094)
(X_205  0.24411766231060028)
(X_206  0.30490198731422424)
(X_207  0.24215686321258545)
(X_208  0.15980392694473267)
(X_209  0.1401960849761963)
(X_210  0.15980392694473267)
(X_211  0.15196079015731812)
(X_212  0.1617647111415863)
(X_213  0.27941176295280457)
(X_214  0.457843154668808)
(X_215  0.4892157018184662)
(X_216  0.5441176295280457)
(X_217  0.4754902124404907)
(X_218  0.46764707565307617)
(X_219  0.47156864404678345)
(X_220  0.4990196228027344)
(X_221  0.5029411911964417)
(X_222  0.6107843518257141)
(X_223  0.6147059202194214)
(X_224  0.2343137264251709)
(X_225  0.28921568393707275)
(X_226  0.3127451241016388)
(X_227  0.28921568393707275)
(X_228  0.2656862735748291)
(X_229  0.2656862735748291)
(X_230  0.2617647051811218)
(X_231  0.23823529481887817)
(X_232  0.24607843160629272)
(X_233  0.20686274766921997)
(X_234  0.17549020051956177)
(X_235  0.18333333730697632)
(X_236  0.21470588445663452)
(X_237  0.22647058963775635)
(X_238  0.20686274766921997)
(X_239  0.17941176891326904)
(X_240  0.15980392694473267)
(X_241  0.2539215683937073)
(X_242  0.2754901945590973)
(X_243  0.3578431308269501)
(X_244  0.3813725411891937)
(X_245  0.3735294044017792)
(X_246  0.4696078598499298)
(X_247  0.4696078598499298)
(X_248  0.4892157018184662)
(X_249  0.385294109582901)
(X_250  0.4852941334247589)
(X_251  0.4852941334247589)
(X_252  0.240196093916893)
(X_253  0.2558823525905609)
(X_254  0.24803923070430756)
(X_255  0.21274511516094208)
(X_256  0.18137255311012268)
(X_257  0.16960784792900085)
(X_258  0.16568627953529358)
(X_259  0.25784313678741455)
(X_260  0.28921568393707275)
(X_261  0.30490198731422424)
(X_262  0.31666669249534607)
(X_263  0.3127451241016388)
(X_264  0.30098041892051697)
(X_265  0.20490197837352753)
(X_266  0.23235295712947845)
(X_267  0.2558823525905609)
(X_268  0.30098041892051697)
(X_269  0.24411766231060028)
(X_270  0.29509803652763367)
(X_271  0.4225490391254425)
(X_272  0.4225490391254425)
(X_273  0.3186274468898773)
(X_274  0.4264706075191498)
(X_275  0.43431374430656433)
(X_276  0.3343137204647064)
(X_277  0.33039215207099915)
(X_278  0.4225490391254425)
(X_279  0.41470590233802795)
(X_280  0.5264706015586853)
(X_281  0.6029412150382996)
(X_282  0.5833333730697632)
(X_283  0.5794118046760559)
(X_284  0.46764707565307617)
(X_285  0.4598039388656616)
(X_286  0.47156864404678345)
(X_287  0.48725491762161255)
(X_288  0.5480391979217529)
(X_289  0.520588219165802)
(X_290  0.4852941334247589)
(X_291  0.4696078598499298)
(X_292  0.46568629145622253)
(X_293  0.46176472306251526)
(X_294  0.4539215862751007)
(X_295  0.44607844948768616)
(X_296  0.2911764681339264)
(X_297  0.38333335518836975)
(X_298  0.26764705777168274)
(X_299  0.35196080803871155)
(X_300  0.24411766231060028)
(X_301  0.2558823525905609)
(X_302  0.27941176295280457)
(X_303  0.29901960492134094)
(X_304  0.27156862616539)
(X_305  0.26764705777168274)
(X_306  0.3598039448261261)
(X_307  0.3558823764324188)
(X_308  0.42843136191368103)
(X_309  0.3970588147640228)
(X_310  0.49313727021217346)
(X_311  0.42843136191368103)
(X_312  0.44411763548851013)
(X_313  0.4362744987010956)
(X_314  0.4480392038822174)
(X_315  0.4754902124404907)
(X_316  0.6735294461250305)
(X_317  0.550000011920929)
(X_318  0.5186274647712708)
(X_319  0.5068627595901489)
(X_320  0.5186274647712708)
(X_321  0.6421568989753723)
(X_322  0.6578431725502014)
(X_323  0.5656862854957581)
(X_324  0.6617647409439087)
(X_325  0.6421568989753723)
(X_326  0.6186274886131287)
(X_327  0.6068627834320068)
(X_328  0.6186274886131287)
(X_329  0.6460784673690796)
(X_330  0.5774509906768799)
(X_331  0.5970588326454163)
(X_332  0.522549033164978)
(X_333  0.5147058963775635)
(X_334  0.4990196228027344)
(X_335  0.5911765098571777)
(X_336  0.41862747073173523)
(X_337  0.29901960492134094)
(X_338  0.31470587849617004)
(X_339  0.3578431308269501)
(X_340  0.3696078360080719)
(X_341  0.34607842564582825)
(X_342  0.43431374430656433)
(X_343  0.45000001788139343)
(X_344  0.3029411733150482)
(X_345  0.34607842564582825)
(X_346  0.46176472306251526)
(X_347  0.4107843339443207)
(X_348  0.3401961028575897)
(X_349  0.33235296607017517)
(X_350  0.4107843339443207)
(X_351  0.3970588147640228)
(X_352  0.3343137204647064)
(X_353  0.32647058367729187)
(X_354  0.43039217591285706)
(X_355  0.44607844948768616)
(X_356  0.4696078598499298)
(X_357  0.49313727021217346)
(X_358  0.40882351994514465)
(X_359  0.41274508833885193)
(X_360  0.4637255072593689)
(X_361  0.45196080207824707)
(X_362  0.4323529303073883)
(X_363  0.40882351994514465)
(X_364  0.30490198731422424)
(X_365  0.3127451241016388)
(X_366  0.240196093916893)
(X_367  0.27156862616539)
(X_368  0.27941176295280457)
(X_369  0.26372548937797546)
(X_370  0.35196080803871155)
(X_371  0.25196078419685364)
(X_372  0.3715686500072479)
(X_373  0.387254923582077)
(X_374  0.3794117867946625)
(X_375  0.3245098292827606)
(X_376  0.25784313678741455)
(X_377  0.2343137264251709)
(X_378  0.27352941036224365)
(X_379  0.32058826088905334)
(X_380  0.3245098292827606)
(X_381  0.33235296607017517)
(X_382  0.3480392396450043)
(X_383  0.36764708161354065)
(X_384  0.387254923582077)
(X_385  0.3911764919757843)
(X_386  0.28333333134651184)
(X_387  0.2754901945590973)
(X_388  0.27941176295280457)
(X_389  0.2754901945590973)
(X_390  0.27156862616539)
(X_391  0.26372548937797546)
(X_392  0.114705890417099)
(X_393  0.24607843160629272)
(X_394  0.2696078419685364)
(X_395  0.2696078419685364)
(X_396  0.17352941632270813)
(X_397  0.18921568989753723)
(X_398  0.30098041892051697)
(X_399  0.30098041892051697)
(X_400  0.3088235557079315)
(X_401  0.28921568393707275)
(X_402  0.27352941036224365)
(X_403  0.28921568393707275)
(X_404  0.22058825194835663)
(X_405  0.23627452552318573)
(X_406  0.2245098203420639)
(X_407  0.20490197837352753)
(X_408  0.27352941036224365)
(X_409  0.2813725471496582)
(X_410  0.18921568989753723)
(X_411  0.19705882668495178)
(X_412  0.19705882668495178)
(X_413  0.29313725233078003)
(X_414  0.29313725233078003)
(X_415  0.18921568989753723)
(X_416  0.2774509787559509)
(X_417  0.2852941155433655)
(X_418  0.19705882668495178)
(X_419  0.21274511516094208)
(X_420  0.1715686321258545)
(X_421  0.21078431606292725)
(X_422  0.21470588445663452)
(X_423  0.17941176891326904)
(X_424  0.16372549533843994)
(X_425  0.19509804248809814)
(X_426  0.12254902720451355)
(X_427  0.12254902720451355)
(X_428  0.2029411792755127)
(X_429  0.21470588445663452)
(X_430  0.2343137264251709)
(X_431  0.25)
(X_432  0.2539215683937073)
(X_433  0.1460784375667572)
(X_434  0.12647059559822083)
(X_435  0.21470588445663452)
(X_436  0.13431373238563538)
(X_437  0.13431373238563538)
(X_438  0.13431373238563538)
(X_439  0.12647059559822083)
(X_440  0.12254902720451355)
(X_441  0.1303921639919281)
(X_442  0.24607843160629272)
(X_443  0.25784313678741455)
(X_444  0.23823529481887817)
(X_445  0.24607843160629272)
(X_446  0.25784313678741455)
(X_447  0.16568627953529358)
(X_448  0.06372549384832382)
(X_449  0.06372549384832382)
(X_450  0.05980392172932625)
(X_451  0.0519607849419117)
(X_452  0.04411764815449715)
(X_453  0.04803921654820442)
(X_454  0.05980392172932625)
(X_455  0.07156863063573837)
(X_456  0.06372549384832382)
(X_457  0.06372549384832382)
(X_458  0.06372549384832382)
(X_459  0.16372549533843994)
(X_460  0.06372549384832382)
(X_461  0.06372549384832382)
(X_462  0.06372549384832382)
(X_463  0.06372549384832382)
(X_464  0.1558823585510254)
(X_465  0.1558823585510254)
(X_466  0.05588235333561897)
(X_467  0.05588235333561897)
(X_468  0.05588235333561897)
(X_469  0.15980392694473267)
(X_470  0.16372549533843994)
(X_471  0.0676470622420311)
(X_472  0.05980392172932625)
(X_473  0.06372549384832382)
(X_474  0.16764706373214722)
(X_475  0.07156863063573837)
(X_476  0.1401960849761963)
(X_477  0.04019607976078987)
(X_478  0.036274511367082596)
(X_479  0.028431374579668045)
(X_480  0.12450980395078659)
(X_481  0.12843137979507446)
(X_482  0.136274516582489)
(X_483  0.14803922176361084)
(X_484  0.136274516582489)
(X_485  0.036274511367082596)
(X_486  0.036274511367082596)
(X_487  0.136274516582489)
(X_488  0.136274516582489)
(X_489  0.036274511367082596)
(X_490  0.036274511367082596)
(X_491  0.036274511367082596)
(X_492  0.136274516582489)
(X_493  0.03235294297337532)
(X_494  0.03235294297337532)
(X_495  0.03235294297337532)
(X_496  0.03235294297337532)
(X_497  0.036274511367082596)
(X_498  0.04019607976078987)
(X_499  0.04411764815449715)
(X_500  0.02450980618596077)
(X_501  0.12843137979507446)
(X_502  0.12843137979507446)
(X_503  0.03235294297337532)
(X_504  0.020588237792253494)
(X_505  0.12058823555707932)
(X_506  0.12058823555707932)
(X_507  0.012745101936161518)
(X_508  0.10882353037595749)
(X_509  0.10882353037595749)
(X_510  0.020588237792253494)
(X_511  0.028431374579668045)
(X_512  0.11274509876966476)
(X_513  0.11274509876966476)
(X_514  0.012745101936161518)
(X_515  0.11274509876966476)
(X_516  0.012745101936161518)
(X_517  0.012745101936161518)
(X_518  0.012745101936161518)
(X_519  0.012745101936161518)
(X_520  0.11666666716337204)
(X_521  0.11666666716337204)
(X_522  0.11274509876966476)
(X_523  0.11274509876966476)
(X_524  0.11666666716337204)
(X_525  0.12058823555707932)
(X_526  0.12058823555707932)
(X_527  0.02450980618596077)
(X_528  0.11666666716337204)
(X_529  0.11666666716337204)
(X_530  0.12058823555707932)
(X_531  0.020588237792253494)
(X_532  0.012745101936161518)
(X_533  0.11666666716337204)
(X_534  0.01666666939854622)
(X_535  0.012745101936161518)
(X_536  0.10490196198225021)
(X_537  0.10882353037595749)
(X_538  0.11666666716337204)
(X_539  0.12450980395078659)
(X_540  0.11274509876966476)
(X_541  0.012745101936161518)
(X_542  0.012745101936161518)
(X_543  0.012745101936161518)
(X_544  0.012745101936161518)
(X_545  0.012745101936161518)
(X_546  0.012745101936161518)
(X_547  0.012745101936161518)
(X_548  0.012745101936161518)
(X_549  0.012745101936161518)
(X_550  0.10882353037595749)
(X_551  0.10882353037595749)
(X_552  0.11274509876966476)
(X_553  0.01666666939854622)
(X_554  0.020588237792253494)
(X_555  0.020588237792253494)
(X_556  0.020588237792253494)
(X_557  0.12058823555707932)
(X_558  0.12058823555707932)
(X_559  0.01666666939854622)
(X_560  0.008823529817163944)
(X_561  0.11274509876966476)
(X_562  0.11274509876966476)
(X_563  0.012745101936161518)
(X_564  0.004901961423456669)
(X_565  0.004901961423456669)
(X_566  0.10882353037595749)
(X_567  0.11666666716337204)
(X_568  0.11274509876966476)
(X_569  0.012745101936161518)
(X_570  0.012745101936161518)
(X_571  0.11274509876966476)
(X_572  0.11274509876966476)
(X_573  0.11274509876966476)
(X_574  0.012745101936161518)
(X_575  0.012745101936161518)
(X_576  0.10882353037595749)
(X_577  0.10882353037595749)
(X_578  0.10490196198225021)
(X_579  0.10490196198225021)
(X_580  0.10882353037595749)
(X_581  0.11274509876966476)
(X_582  0.01666666939854622)
(X_583  0.01666666939854622)
(X_584  0.0009803927969187498)
(X_585  0.10098039358854294)
(X_586  0.09705882519483566)
(X_587  -0.0029411755967885256)
(X_588  -0.006862743757665157)
(X_589  0.10098039358854294)
(X_590  0.10490196198225021)
(X_591  0.0009803927969187498)
(X_592  0.09705882519483566)
(X_593  0.09313725680112839)
(X_594  0.09705882519483566)
(X_595  0.004901961423456669)
(X_596  0.004901961423456669)
(X_597  0.004901961423456669)
(X_598  0.004901961423456669)
(X_599  0.10490196198225021)
(X_600  0.10490196198225021)
(X_601  0.10490196198225021)
(X_602  0.10490196198225021)
(X_603  0.10490196198225021)
(X_604  -0.0029411755967885256)
(X_605  -0.0029411755967885256)
(X_606  -0.0029411755967885256)
(X_607  -0.0029411755967885256)
(X_608  -0.0029411755967885256)
(X_609  0.0009803927969187498)
(X_610  0.10490196198225021)
(X_611  0.10490196198225021)
(X_612  0.09313725680112839)
(X_613  0.09313725680112839)
(X_614  -0.006862743757665157)
(X_615  -0.006862743757665157)
(X_616  -0.010784312151372433)
(X_617  -0.0029411755967885256)
(X_618  0.10098039358854294)
(X_619  0.0009803927969187498)
(X_620  0.09705882519483566)
(X_621  0.09313725680112839)
(X_622  -0.006862743757665157)
(X_623  -0.0029411755967885256)
(X_624  -0.0029411755967885256)
(X_625  -0.0029411755967885256)
(X_626  -0.0029411755967885256)
(X_627  -0.0029411755967885256)
(X_628  0.09705882519483566)
(X_629  0.09705882519483566)
(X_630  0.09705882519483566)
(X_631  0.09705882519483566)
(X_632  -0.0029411755967885256)
(X_633  -0.006862743757665157)
(X_634  0.09313725680112839)
(X_635  0.09313725680112839)
(X_636  -0.006862743757665157)
(X_637  -0.0029411755967885256)
(X_638  0.0009803927969187498)
(X_639  0.10490196198225021)
(X_640  0.09705882519483566)
(X_641  0.09705882519483566)
(X_642  -0.0029411755967885256)
(X_643  -0.0029411755967885256)
(X_644  -0.006862743757665157)
(X_645  0.10098039358854294)
(X_646  0.10882353037595749)
(X_647  0.008823529817163944)
(X_648  0.10098039358854294)
(X_649  0.09705882519483566)
(X_650  0.10098039358854294)
(X_651  0.10490196198225021)
(X_652  -0.0029411755967885256)
(X_653  -0.0029411755967885256)
(X_654  0.09705882519483566)
(X_655  0.09705882519483566)
(X_656  -0.0029411755967885256)
(X_657  -0.0029411755967885256)
(X_658  -0.0029411755967885256)
(X_659  -0.0029411755967885256)
(X_660  0.0009803927969187498)
(X_661  0.0009803927969187498)
(X_662  -0.0029411755967885256)
(X_663  0.09705882519483566)
(X_664  0.10098039358854294)
(X_665  0.10098039358854294)
(X_666  0.004901961423456669)
(X_667  0.10882353037595749)
(X_668  0.08921568840742111)
(X_669  0.08921568840742111)
(X_670  0.08921568840742111)
(X_671  -0.006862743757665157)
(X_672  -0.010784312151372433)
(X_673  0.09313725680112839)
(X_674  0.09313725680112839)
(X_675  0.09705882519483566)
(X_676  0.09705882519483566)
(X_677  -0.006862743757665157)
(X_678  -0.006862743757665157)
(X_679  -0.010784312151372433)
(X_680  -0.010784312151372433)
(X_681  -0.006862743757665157)
(X_682  -0.006862743757665157)
(X_683  -0.0029411755967885256)
(X_684  -0.0029411755967885256)
(X_685  -0.006862743757665157)
(X_686  -0.006862743757665157)
(X_687  -0.010784312151372433)
(X_688  -0.0029411755967885256)
(X_689  -0.0029411755967885256)
(X_690  -0.0029411755967885256)
(X_691  -0.0029411755967885256)
(X_692  -0.0029411755967885256)
(X_693  -0.0029411755967885256)
(X_694  0.09705882519483566)
(X_695  0.09705882519483566)
(X_696  0.09705882519483566)
(X_697  0.09705882519483566)
(X_698  -0.0029411755967885256)
(X_699  -0.0029411755967885256)
(X_700  -0.010784312151372433)
(X_701  0.09313725680112839)
(X_702  0.09313725680112839)
(X_703  0.09705882519483566)
(X_704  0.09705882519483566)
(X_705  0.09313725680112839)
(X_706  0.09313725680112839)
(X_707  0.08921568840742111)
(X_708  0.08921568840742111)
(X_709  0.09313725680112839)
(X_710  0.09313725680112839)
(X_711  -0.0029411755967885256)
(X_712  0.09705882519483566)
(X_713  0.09313725680112839)
(X_714  0.09313725680112839)
(X_715  0.08921568840742111)
(X_716  -0.0029411755967885256)
(X_717  -0.0029411755967885256)
(X_718  0.09705882519483566)
(X_719  0.09705882519483566)
(X_720  -0.0029411755967885256)
(X_721  -0.0029411755967885256)
(X_722  -0.0029411755967885256)
(X_723  0.09705882519483566)
(X_724  -0.006862743757665157)
(X_725  0.09313725680112839)
(X_726  0.09313725680112839)
(X_727  -0.006862743757665157)
(X_728  -0.010784312151372433)
(X_729  0.09313725680112839)
(X_730  0.09313725680112839)
(X_731  0.09705882519483566)
(X_732  -0.0029411755967885256)
(X_733  -0.006862743757665157)
(X_734  -0.006862743757665157)
(X_735  -0.010784312151372433)
(X_736  -0.010784312151372433)
(X_737  -0.010784312151372433)
(X_738  -0.006862743757665157)
(X_739  -0.006862743757665157)
(X_740  -0.006862743757665157)
(X_741  -0.006862743757665157)
(X_742  -0.010784312151372433)
(X_743  -0.010784312151372433)
(X_744  0.09705882519483566)
(X_745  0.09705882519483566)
(X_746  -0.0029411755967885256)
(X_747  -0.0029411755967885256)
(X_748  -0.0029411755967885256)
(X_749  -0.0029411755967885256)
(X_750  -0.0029411755967885256)
(X_751  0.09705882519483566)
(X_752  -0.010784312151372433)
(X_753  0.08921568840742111)
(X_754  0.08921568840742111)
(X_755  -0.010784312151372433)
(X_756  -0.010784312151372433)
(X_757  0.09313725680112839)
(X_758  0.09313725680112839)
(X_759  -0.0029411755967885256)
(X_760  -0.0029411755967885256)
(X_761  -0.006862743757665157)
(X_762  -0.006862743757665157)
(X_763  0.08921568840742111)
(X_764  0.08529412001371384)
(X_765  0.08921568840742111)
(X_766  0.09313725680112839)
(X_767  0.09313725680112839)
(X_768  0.09313725680112839)
(X_769  0.09313725680112839)
(X_770  0.08921568840742111)
(X_771  0.08529412001371384)
(X_772  0.09313725680112839)
(X_773  0.09313725680112839)
(X_774  0.09313725680112839)
(X_775  0.09313725680112839)
(X_776  -0.006862743757665157)
(X_777  0.09313725680112839)
(X_778  0.09313725680112839)
(X_779  0.09313725680112839)
(X_780  0.08529412001371384)
(X_781  0.08529412001371384)
(X_782  0.08529412001371384)
(X_783  0.08529412001371384)
(Y_0 46.011470794677734)
(Y_1 -64.33743286132812)
(Y_2 -4.615083694458008)
(Y_3 21.044902801513672))