((X_0  0.4107843339443207)
(X_1  0.3186274468898773)
(X_2  0.3382352888584137)
(X_3  0.46176472306251526)
(X_4  0.3813725411891937)
(X_5  0.3892156779766083)
(X_6  0.385294109582901)
(X_7  0.37745097279548645)
(X_8  0.3970588147640228)
(X_9  0.49705883860588074)
(X_10  0.5049019455909729)
(X_11  0.42450979351997375)
(X_12  0.4480392038822174)
(X_13  0.5558823943138123)
(X_14  0.551960825920105)
(X_15  0.5401960611343384)
(X_16  0.4480392038822174)
(X_17  0.4598039388656616)
(X_18  0.479411780834198)
(X_19  0.4911764860153198)
(X_20  0.595098078250885)
(X_21  0.5872549414634705)
(X_22  0.5754902362823486)
(X_23  0.5676470994949341)
(X_24  0.5872549414634705)
(X_25  0.4990196228027344)
(X_26  0.5186274647712708)
(X_27  0.5343137383460999)
(X_28  0.17941176891326904)
(X_29  0.07549020648002625)
(X_30  0.0676470622420311)
(X_31  0.0676470622420311)
(X_32  0.0676470622420311)
(X_33  0.07549020648002625)
(X_34  0.17549020051956177)
(X_35  0.17549020051956177)
(X_36  0.16764706373214722)
(X_37  0.05980392172932625)
(X_38  0.05588235333561897)
(X_39  0.05980392172932625)
(X_40  0.07156863063573837)
(X_41  0.17941176891326904)
(X_42  0.17941176891326904)
(X_43  0.07156863063573837)
(X_44  0.17941176891326904)
(X_45  0.17549020051956177)
(X_46  0.16764706373214722)
(X_47  0.16372549533843994)
(X_48  0.1558823585510254)
(X_49  0.0519607849419117)
(X_50  0.0519607849419117)
(X_51  0.0519607849419117)
(X_52  0.136274516582489)
(X_53  0.04019607976078987)
(X_54  0.04803921654820442)
(X_55  0.1558823585510254)
(X_56  0.1558823585510254)
(X_57  0.0519607849419117)
(X_58  0.04803921654820442)
(X_59  0.04411764815449715)
(X_60  0.04411764815449715)
(X_61  0.04803921654820442)
(X_62  0.05588235333561897)
(X_63  0.05588235333561897)
(X_64  0.09509804844856262)
(X_65  0.0833333432674408)
(X_66  0.07156863063573837)
(X_67  0.0676470622420311)
(X_68  0.17549020051956177)
(X_69  0.18333333730697632)
(X_70  0.1872549057006836)
(X_71  0.1872549057006836)
(X_72  0.0990196168422699)
(X_73  0.09117648005485535)
(X_74  0.08725491166114807)
(X_75  0.07549020648002625)
(X_76  0.1715686321258545)
(X_77  0.06372549384832382)
(X_78  0.05980392172932625)
(X_79  0.15980392694473267)
(X_80  0.17549020051956177)
(X_81  0.07156863063573837)
(X_82  0.06372549384832382)
(X_83  0.16372549533843994)
(X_84  0.15196079015731812)
(X_85  0.16372549533843994)
(X_86  0.17549020051956177)
(X_87  0.18333333730697632)
(X_88  0.07941177487373352)
(X_89  0.07156863063573837)
(X_90  0.0676470622420311)
(X_91  0.06372549384832382)
(X_92  0.1558823585510254)
(X_93  0.0519607849419117)
(X_94  0.04803921654820442)
(X_95  0.04803921654820442)
(X_96  0.1558823585510254)
(X_97  0.15980392694473267)
(X_98  0.16764706373214722)
(X_99  0.16764706373214722)
(X_100  0.13235294818878174)
(X_101  0.14411765336990356)
(X_102  0.1558823585510254)
(X_103  0.16372549533843994)
(X_104  0.06372549384832382)
(X_105  0.05588235333561897)
(X_106  0.04411764815449715)
(X_107  0.036274511367082596)
(X_108  0.05588235333561897)
(X_109  0.05588235333561897)
(X_110  0.0519607849419117)
(X_111  0.14803922176361084)
(X_112  0.04411764815449715)
(X_113  0.15196079015731812)
(X_114  0.15980392694473267)
(X_115  0.1558823585510254)
(X_116  0.14411765336990356)
(X_117  0.03235294297337532)
(X_118  0.03235294297337532)
(X_119  0.036274511367082596)
(X_120  0.14803922176361084)
(X_121  0.15196079015731812)
(X_122  0.05980392172932625)
(X_123  0.06372549384832382)
(X_124  0.06372549384832382)
(X_125  0.05980392172932625)
(X_126  0.05980392172932625)
(X_127  0.1558823585510254)
(X_128  0.1401960849761963)
(X_129  0.14411765336990356)
(X_130  0.1558823585510254)
(X_131  0.16764706373214722)
(X_132  0.1715686321258545)
(X_133  0.1715686321258545)
(X_134  0.16764706373214722)
(X_135  0.16764706373214722)
(X_136  0.1401960849761963)
(X_137  0.04411764815449715)
(X_138  0.04803921654820442)
(X_139  0.15196079015731812)
(X_140  0.1401960849761963)
(X_141  0.14803922176361084)
(X_142  0.14803922176361084)
(X_143  0.1401960849761963)
(X_144  0.03235294297337532)
(X_145  0.036274511367082596)
(X_146  0.05588235333561897)
(X_147  0.17549020051956177)
(X_148  0.136274516582489)
(X_149  0.14411765336990356)
(X_150  0.1558823585510254)
(X_151  0.15196079015731812)
(X_152  0.1401960849761963)
(X_153  0.12843137979507446)
(X_154  0.12058823555707932)
(X_155  0.12058823555707932)
(X_156  0.12843137979507446)
(X_157  0.12450980395078659)
(X_158  0.11666666716337204)
(X_159  0.11666666716337204)
(X_160  0.11666666716337204)
(X_161  0.02450980618596077)
(X_162  0.028431374579668045)
(X_163  0.136274516582489)
(X_164  0.12843137979507446)
(X_165  0.028431374579668045)
(X_166  0.036274511367082596)
(X_167  0.136274516582489)
(X_168  0.136274516582489)
(X_169  0.15196079015731812)
(X_170  0.07156863063573837)
(X_171  0.16764706373214722)
(X_172  0.14803922176361084)
(X_173  0.12843137979507446)
(X_174  0.028431374579668045)
(X_175  0.03235294297337532)
(X_176  0.14803922176361084)
(X_177  0.1558823585510254)
(X_178  0.16372549533843994)
(X_179  0.1558823585510254)
(X_180  0.14411765336990356)
(X_181  0.136274516582489)
(X_182  0.036274511367082596)
(X_183  0.04411764815449715)
(X_184  0.14803922176361084)
(X_185  0.1558823585510254)
(X_186  0.16764706373214722)
(X_187  0.17549020051956177)
(X_188  0.17549020051956177)
(X_189  0.16372549533843994)
(X_190  0.0519607849419117)
(X_191  0.14411765336990356)
(X_192  0.1558823585510254)
(X_193  0.15196079015731812)
(X_194  0.04411764815449715)
(X_195  0.04019607976078987)
(X_196  0.1931372582912445)
(X_197  0.3245098292827606)
(X_198  0.2598039209842682)
(X_199  0.25196078419685364)
(X_200  0.19705882668495178)
(X_201  0.22254902124404907)
(X_202  0.06372549384832382)
(X_203  0.03235294297337532)
(X_204  0.04019607976078987)
(X_205  0.04411764815449715)
(X_206  0.04803921654820442)
(X_207  0.1401960849761963)
(X_208  0.13235294818878174)
(X_209  0.036274511367082596)
(X_210  0.0519607849419117)
(X_211  0.16764706373214722)
(X_212  0.2696078419685364)
(X_213  0.30490198731422424)
(X_214  0.3558823764324188)
(X_215  0.3911764919757843)
(X_216  0.29509803652763367)
(X_217  0.3637255132198334)
(X_218  0.31666669249534607)
(X_219  0.2813725471496582)
(X_220  0.23823529481887817)
(X_221  0.22647058963775635)
(X_222  0.10686275362968445)
(X_223  0.19117647409439087)
(X_224  0.4009803831577301)
(X_225  0.37745097279548645)
(X_226  0.46176472306251526)
(X_227  0.46568629145622253)
(X_228  0.37745097279548645)
(X_229  0.3539215624332428)
(X_230  0.27941176295280457)
(X_231  0.21274511516094208)
(X_232  0.13823530077934265)
(X_233  0.1303921639919281)
(X_234  0.1303921639919281)
(X_235  0.21470588445663452)
(X_236  0.07549020648002625)
(X_237  0.06372549384832382)
(X_238  0.13823530077934265)
(X_239  0.23627452552318573)
(X_240  0.34215685725212097)
(X_241  0.4421568810939789)
(X_242  0.4068627655506134)
(X_243  0.3950980603694916)
(X_244  0.43039217591285706)
(X_245  0.4264706075191498)
(X_246  0.40294119715690613)
(X_247  0.4107843339443207)
(X_248  0.31078431010246277)
(X_249  0.3029411733150482)
(X_250  0.29901960492134094)
(X_251  0.4107843339443207)
(X_252  0.31078431010246277)
(X_253  0.41470590233802795)
(X_254  0.4068627655506134)
(X_255  0.3911764919757843)
(X_256  0.3950980603694916)
(X_257  0.39901962876319885)
(X_258  0.3715686500072479)
(X_259  0.33235296607017517)
(X_260  0.2558823525905609)
(X_261  0.2598039209842682)
(X_262  0.26372548937797546)
(X_263  0.2558823525905609)
(X_264  0.33235296607017517)
(X_265  0.23235295712947845)
(X_266  0.3794117867946625)
(X_267  0.43431374430656433)
(X_268  0.4068627655506134)
(X_269  0.4107843339443207)
(X_270  0.3754902184009552)
(X_271  0.2598039209842682)
(X_272  0.2872548997402191)
(X_273  0.38333335518836975)
(X_274  0.26372548937797546)
(X_275  0.27941176295280457)
(X_276  0.40294119715690613)
(X_277  0.29509803652763367)
(X_278  0.2911764681339264)
(X_279  0.2911764681339264)
(X_280  0.29313725233078003)
(X_281  0.3480392396450043)
(X_282  0.27941176295280457)
(X_283  0.26764705777168274)
(X_284  0.27941176295280457)
(X_285  0.4225490391254425)
(X_286  0.43431374430656433)
(X_287  0.4107843339443207)
(X_288  0.31470587849617004)
(X_289  0.34607842564582825)
(X_290  0.3892156779766083)
(X_291  0.42843136191368103)
(X_292  0.48725491762161255)
(X_293  0.550000011920929)
(X_294  0.5970588326454163)
(X_295  0.7127451300621033)
(X_296  0.7558823823928833)
(X_297  0.6401960849761963)
(X_298  0.5656862854957581)
(X_299  0.48725491762161255)
(X_300  0.5441176295280457)
(X_301  0.47745099663734436)
(X_302  0.4107843339443207)
(X_303  0.29901960492134094)
(X_304  0.29509803652763367)
(X_305  0.29509803652763367)
(X_306  0.29509803652763367)
(X_307  0.3911764919757843)
(X_308  0.3284313976764679)
(X_309  0.41470590233802795)
(X_310  0.37745097279548645)
(X_311  0.3970588147640228)
(X_312  0.4323529303073883)
(X_313  0.4950980544090271)
(X_314  0.5068627595901489)
(X_315  0.47156864404678345)
(X_316  0.665686309337616)
(X_317  0.5696078538894653)
(X_318  0.5539215803146362)
(X_319  0.6225490570068359)
(X_320  0.6264706254005432)
(X_321  0.5343137383460999)
(X_322  0.4990196228027344)
(X_323  0.44019606709480286)
(X_324  0.45196080207824707)
(X_325  0.479411780834198)
(X_326  0.46764707565307617)
(X_327  0.4598039388656616)
(X_328  0.47156864404678345)
(X_329  0.44411763548851013)
(X_330  0.41274508833885193)
(X_331  0.5245097875595093)
(X_332  0.4205882251262665)
(X_333  0.4362744987010956)
(X_334  0.4480392038822174)
(X_335  0.4480392038822174)
(X_336  0.3911764919757843)
(X_337  0.44607844948768616)
(X_338  0.4852941334247589)
(X_339  0.4049019515514374)
(X_340  0.5480391979217529)
(X_341  0.6068627834320068)
(X_342  0.6029412150382996)
(X_343  0.4598039388656616)
(X_344  0.3813725411891937)
(X_345  0.49313727021217346)
(X_346  0.4852941334247589)
(X_347  0.4852941334247589)
(X_348  0.4166666567325592)
(X_349  0.4480392038822174)
(X_350  0.4166666567325592)
(X_351  0.3578431308269501)
(X_352  0.4892157018184662)
(X_353  0.5323529243469238)
(X_354  0.44019606709480286)
(X_355  0.4323529303073883)
(X_356  0.42843136191368103)
(X_357  0.48137256503105164)
(X_358  0.43431374430656433)
(X_359  0.4382353127002716)
(X_360  0.40294119715690613)
(X_361  0.32647058367729187)
(X_362  0.3539215624332428)
(X_363  0.36176469922065735)
(X_364  0.4225490391254425)
(X_365  0.4107843339443207)
(X_366  0.387254923582077)
(X_367  0.38333335518836975)
(X_368  0.41470590233802795)
(X_369  0.34607842564582825)
(X_370  0.34215685725212097)
(X_371  0.3186274468898773)
(X_372  0.2598039209842682)
(X_373  0.26372548937797546)
(X_374  0.36764708161354065)
(X_375  0.3794117867946625)
(X_376  0.4068627655506134)
(X_377  0.31470587849617004)
(X_378  0.28333333134651184)
(X_379  0.24411766231060028)
(X_380  0.24411766231060028)
(X_381  0.31078431010246277)
(X_382  0.45000001788139343)
(X_383  0.3696078360080719)
(X_384  0.385294109582901)
(X_385  0.3539215624332428)
(X_386  0.3225490152835846)
(X_387  0.34215685725212097)
(X_388  0.3480392396450043)
(X_389  0.3637255132198334)
(X_390  0.38333335518836975)
(X_391  0.39901962876319885)
(X_392  0.4264706075191498)
(X_393  0.3794117867946625)
(X_394  0.344117671251297)
(X_395  0.344117671251297)
(X_396  0.3598039448261261)
(X_397  0.3598039448261261)
(X_398  0.2558823525905609)
(X_399  0.2598039209842682)
(X_400  0.21274511516094208)
(X_401  0.21666668355464935)
(X_402  0.24411766231060028)
(X_403  0.3794117867946625)
(X_404  0.3950980603694916)
(X_405  0.3715686500072479)
(X_406  0.240196093916893)
(X_407  0.3284313976764679)
(X_408  0.344117671251297)
(X_409  0.31078431010246277)
(X_410  0.4421568810939789)
(X_411  0.44607844948768616)
(X_412  0.44607844948768616)
(X_413  0.4107843339443207)
(X_414  0.38333335518836975)
(X_415  0.4068627655506134)
(X_416  0.20490197837352753)
(X_417  0.20490197837352753)
(X_418  0.20098040997982025)
(X_419  0.2088235467672348)
(X_420  0.22843138873577118)
(X_421  0.18529412150382996)
(X_422  0.1774509847164154)
(X_423  0.2088235467672348)
(X_424  0.22058825194835663)
(X_425  0.1931372582912445)
(X_426  0.28921568393707275)
(X_427  0.3127451241016388)
(X_428  0.23627452552318573)
(X_429  0.23235295712947845)
(X_430  0.26372548937797546)
(X_431  0.3068627417087555)
(X_432  0.3911764919757843)
(X_433  0.3245098292827606)
(X_434  0.18137255311012268)
(X_435  0.1774509847164154)
(X_436  0.2696078419685364)
(X_437  0.3245098292827606)
(X_438  0.344117671251297)
(X_439  0.33235296607017517)
(X_440  0.31666669249534607)
(X_441  0.27352941036224365)
(X_442  0.1460784375667572)
(X_443  0.1774509847164154)
(X_444  0.15392157435417175)
(X_445  0.13431373238563538)
(X_446  0.11078432202339172)
(X_447  0.10686275362968445)
(X_448  0.2539215683937073)
(X_449  0.2696078419685364)
(X_450  0.2852941155433655)
(X_451  0.29313725233078003)
(X_452  0.18529412150382996)
(X_453  0.27352941036224365)
(X_454  0.2617647051811218)
(X_455  0.25784313678741455)
(X_456  0.14215686917304993)
(X_457  0.27352941036224365)
(X_458  0.2970588207244873)
(X_459  0.30098041892051697)
(X_460  0.30098041892051697)
(X_461  0.2970588207244873)
(X_462  0.27352941036224365)
(X_463  0.14215686917304993)
(X_464  0.114705890417099)
(X_465  0.13823530077934265)
(X_466  0.15784314274787903)
(X_467  0.25)
(X_468  0.23039215803146362)
(X_469  0.11078432202339172)
(X_470  0.20686274766921997)
(X_471  0.21470588445663452)
(X_472  0.19117647409439087)
(X_473  0.18333333730697632)
(X_474  0.1715686321258545)
(X_475  0.16372549533843994)
(X_476  0.114705890417099)
(X_477  0.12647059559822083)
(X_478  0.23823529481887817)
(X_479  0.24215686321258545)
(X_480  0.1303921639919281)
(X_481  0.11862745881080627)
(X_482  0.10686275362968445)
(X_483  0.10294118523597717)
(X_484  0.07941177487373352)
(X_485  0.2029411792755127)
(X_486  0.22254902124404907)
(X_487  0.12647059559822083)
(X_488  0.12647059559822083)
(X_489  0.22254902124404907)
(X_490  0.2029411792755127)
(X_491  0.17941176891326904)
(X_492  0.07549020648002625)
(X_493  0.09117648005485535)
(X_494  0.21078431606292725)
(X_495  0.20686274766921997)
(X_496  0.18333333730697632)
(X_497  0.16764706373214722)
(X_498  0.16372549533843994)
(X_499  0.1715686321258545)
(X_500  0.14803922176361084)
(X_501  0.04019607976078987)
(X_502  0.03235294297337532)
(X_503  0.12450980395078659)
(X_504  0.16764706373214722)
(X_505  0.07941177487373352)
(X_506  0.1872549057006836)
(X_507  0.1872549057006836)
(X_508  0.07549020648002625)
(X_509  0.05980392172932625)
(X_510  0.04803921654820442)
(X_511  0.04411764815449715)
(X_512  0.04019607976078987)
(X_513  0.05980392172932625)
(X_514  0.07156863063573837)
(X_515  0.0676470622420311)
(X_516  0.0676470622420311)
(X_517  0.07156863063573837)
(X_518  0.05980392172932625)
(X_519  0.04019607976078987)
(X_520  0.03235294297337532)
(X_521  0.04803921654820442)
(X_522  0.05980392172932625)
(X_523  0.05980392172932625)
(X_524  0.04019607976078987)
(X_525  0.028431374579668045)
(X_526  0.12450980395078659)
(X_527  0.12843137979507446)
(X_528  0.03235294297337532)
(X_529  0.028431374579668045)
(X_530  0.020588237792253494)
(X_531  0.11666666716337204)
(X_532  0.136274516582489)
(X_533  0.14803922176361084)
(X_534  0.15980392694473267)
(X_535  0.15980392694473267)
(X_536  0.14803922176361084)
(X_537  0.036274511367082596)
(X_538  0.028431374579668045)
(X_539  0.028431374579668045)
(X_540  0.028431374579668045)
(X_541  0.04019607976078987)
(X_542  0.14803922176361084)
(X_543  0.036274511367082596)
(X_544  0.036274511367082596)
(X_545  0.04803921654820442)
(X_546  0.1401960849761963)
(X_547  0.028431374579668045)
(X_548  0.12058823555707932)
(X_549  0.028431374579668045)
(X_550  0.04019607976078987)
(X_551  0.036274511367082596)
(X_552  0.12450980395078659)
(X_553  0.11274509876966476)
(X_554  0.11274509876966476)
(X_555  0.012745101936161518)
(X_556  0.136274516582489)
(X_557  0.03235294297337532)
(X_558  0.12843137979507446)
(X_559  0.12058823555707932)
(X_560  0.11666666716337204)
(X_561  0.12843137979507446)
(X_562  0.1401960849761963)
(X_563  0.14411765336990356)
(X_564  0.136274516582489)
(X_565  0.03235294297337532)
(X_566  0.028431374579668045)
(X_567  0.028431374579668045)
(X_568  0.012745101936161518)
(X_569  0.02450980618596077)
(X_570  0.02450980618596077)
(X_571  0.012745101936161518)
(X_572  0.012745101936161518)
(X_573  0.02450980618596077)
(X_574  0.12450980395078659)
(X_575  0.012745101936161518)
(X_576  0.020588237792253494)
(X_577  0.02450980618596077)
(X_578  0.028431374579668045)
(X_579  0.12843137979507446)
(X_580  0.12058823555707932)
(X_581  0.11666666716337204)
(X_582  0.11274509876966476)
(X_583  0.012745101936161518)
(X_584  0.12058823555707932)
(X_585  0.01666666939854622)
(X_586  0.01666666939854622)
(X_587  0.012745101936161518)
(X_588  0.10098039358854294)
(X_589  0.012745101936161518)
(X_590  0.02450980618596077)
(X_591  0.12843137979507446)
(X_592  0.12450980395078659)
(X_593  0.020588237792253494)
(X_594  0.020588237792253494)
(X_595  0.12450980395078659)
(X_596  0.012745101936161518)
(X_597  0.02450980618596077)
(X_598  0.02450980618596077)
(X_599  0.012745101936161518)
(X_600  0.012745101936161518)
(X_601  0.02450980618596077)
(X_602  0.02450980618596077)
(X_603  0.012745101936161518)
(X_604  0.11666666716337204)
(X_605  0.11666666716337204)
(X_606  0.11666666716337204)
(X_607  0.11666666716337204)
(X_608  0.11666666716337204)
(X_609  0.11274509876966476)
(X_610  0.008823529817163944)
(X_611  0.004901961423456669)
(X_612  0.012745101936161518)
(X_613  0.012745101936161518)
(X_614  0.11274509876966476)
(X_615  0.11274509876966476)
(X_616  0.10098039358854294)
(X_617  0.10882353037595749)
(X_618  0.11666666716337204)
(X_619  0.11666666716337204)
(X_620  0.11274509876966476)
(X_621  0.10882353037595749)
(X_622  0.008823529817163944)
(X_623  0.012745101936161518)
(X_624  0.012745101936161518)
(X_625  0.02450980618596077)
(X_626  0.12843137979507446)
(X_627  0.01666666939854622)
(X_628  0.01666666939854622)
(X_629  0.028431374579668045)
(X_630  0.02450980618596077)
(X_631  0.012745101936161518)
(X_632  0.012745101936161518)
(X_633  0.008823529817163944)
(X_634  0.10490196198225021)
(X_635  0.10490196198225021)
(X_636  0.10882353037595749)
(X_637  0.10882353037595749)
(X_638  0.10490196198225021)
(X_639  0.0009803927969187498)
(X_640  0.012745101936161518)
(X_641  0.01666666939854622)
(X_642  0.11666666716337204)
(X_643  0.11666666716337204)
(X_644  0.10882353037595749)
(X_645  0.012745101936161518)
(X_646  0.020588237792253494)
(X_647  0.01666666939854622)
(X_648  0.008823529817163944)
(X_649  0.0009803927969187498)
(X_650  0.10098039358854294)
(X_651  0.10490196198225021)
(X_652  0.09705882519483566)
(X_653  0.008823529817163944)
(X_654  0.012745101936161518)
(X_655  0.004901961423456669)
(X_656  0.004901961423456669)
(X_657  0.11274509876966476)
(X_658  0.10882353037595749)
(X_659  -0.0029411755967885256)
(X_660  0.11274509876966476)
(X_661  0.10882353037595749)
(X_662  0.10490196198225021)
(X_663  0.10490196198225021)
(X_664  0.10882353037595749)
(X_665  0.10882353037595749)
(X_666  0.10490196198225021)
(X_667  0.0009803927969187498)
(X_668  0.0009803927969187498)
(X_669  0.0009803927969187498)
(X_670  0.004901961423456669)
(X_671  0.008823529817163944)
(X_672  0.09705882519483566)
(X_673  -0.0029411755967885256)
(X_674  -0.0029411755967885256)
(X_675  -0.0029411755967885256)
(X_676  -0.0029411755967885256)
(X_677  0.09705882519483566)
(X_678  0.09705882519483566)
(X_679  0.09705882519483566)
(X_680  0.004901961423456669)
(X_681  0.09705882519483566)
(X_682  0.08921568840742111)
(X_683  0.08921568840742111)
(X_684  -0.0029411755967885256)
(X_685  0.0009803927969187498)
(X_686  0.0009803927969187498)
(X_687  -0.0029411755967885256)
(X_688  0.10098039358854294)
(X_689  0.10098039358854294)
(X_690  0.0009803927969187498)
(X_691  -0.0029411755967885256)
(X_692  0.09705882519483566)
(X_693  0.09313725680112839)
(X_694  -0.006862743757665157)
(X_695  -0.006862743757665157)
(X_696  0.09313725680112839)
(X_697  0.09313725680112839)
(X_698  0.09313725680112839)
(X_699  0.09313725680112839)
(X_700  0.09705882519483566)
(X_701  0.09705882519483566)
(X_702  0.09705882519483566)
(X_703  0.09705882519483566)
(X_704  -0.0029411755967885256)
(X_705  -0.0029411755967885256)
(X_706  -0.0029411755967885256)
(X_707  -0.0029411755967885256)
(X_708  0.004901961423456669)
(X_709  -0.0029411755967885256)
(X_710  -0.010784312151372433)
(X_711  -0.006862743757665157)
(X_712  -0.0029411755967885256)
(X_713  0.0009803927969187498)
(X_714  -0.0029411755967885256)
(X_715  -0.006862743757665157)
(X_716  0.10098039358854294)
(X_717  0.10098039358854294)
(X_718  0.0009803927969187498)
(X_719  -0.0029411755967885256)
(X_720  0.09705882519483566)
(X_721  0.09313725680112839)
(X_722  0.09313725680112839)
(X_723  0.09313725680112839)
(X_724  0.09313725680112839)
(X_725  -0.006862743757665157)
(X_726  -0.006862743757665157)
(X_727  0.09313725680112839)
(X_728  0.09705882519483566)
(X_729  -0.0029411755967885256)
(X_730  -0.0029411755967885256)
(X_731  0.09705882519483566)
(X_732  0.09705882519483566)
(X_733  0.09705882519483566)
(X_734  0.09705882519483566)
(X_735  0.09705882519483566)
(X_736  0.0009803927969187498)
(X_737  -0.0029411755967885256)
(X_738  -0.006862743757665157)
(X_739  -0.006862743757665157)
(X_740  0.0009803927969187498)
(X_741  0.10098039358854294)
(X_742  0.09705882519483566)
(X_743  0.09313725680112839)
(X_744  0.10098039358854294)
(X_745  0.0009803927969187498)
(X_746  0.0009803927969187498)
(X_747  -0.0029411755967885256)
(X_748  -0.0029411755967885256)
(X_749  -0.006862743757665157)
(X_750  -0.006862743757665157)
(X_751  -0.006862743757665157)
(X_752  0.09313725680112839)
(X_753  -0.006862743757665157)
(X_754  -0.006862743757665157)
(X_755  0.09313725680112839)
(X_756  0.09313725680112839)
(X_757  -0.006862743757665157)
(X_758  -0.006862743757665157)
(X_759  0.09313725680112839)
(X_760  -0.006862743757665157)
(X_761  -0.006862743757665157)
(X_762  -0.006862743757665157)
(X_763  -0.006862743757665157)
(X_764  0.10098039358854294)
(X_765  0.09705882519483566)
(X_766  -0.006862743757665157)
(X_767  -0.0029411755967885256)
(X_768  0.0009803927969187498)
(X_769  0.004901961423456669)
(X_770  -0.0029411755967885256)
(X_771  -0.010784312151372433)
(X_772  0.0009803927969187498)
(X_773  0.0009803927969187498)
(X_774  0.0009803927969187498)
(X_775  -0.0029411755967885256)
(X_776  0.09705882519483566)
(X_777  0.09313725680112839)
(X_778  -0.006862743757665157)
(X_779  0.09313725680112839)
(X_780  -0.0029411755967885256)
(X_781  -0.0029411755967885256)
(X_782  -0.0029411755967885256)
(X_783  0.09705882519483566)
(Y_0 -26.523727416992188)
(Y_1 32.18681716918945)
(Y_2 -24.026887893676758)
(Y_3 18.70479965209961))