((X_0  0.02450980618596077)
(X_1  0.04803921654820442)
(X_2  0.15980392694473267)
(X_3  0.04803921654820442)
(X_4  0.028431374579668045)
(X_5  0.02450980618596077)
(X_6  0.028431374579668045)
(X_7  0.136274516582489)
(X_8  0.04019607976078987)
(X_9  0.14803922176361084)
(X_10  0.1558823585510254)
(X_11  0.16372549533843994)
(X_12  0.16372549533843994)
(X_13  0.05980392172932625)
(X_14  0.05588235333561897)
(X_15  0.1558823585510254)
(X_16  0.16764706373214722)
(X_17  0.15196079015731812)
(X_18  0.13235294818878174)
(X_19  0.12843137979507446)
(X_20  0.14411765336990356)
(X_21  0.15980392694473267)
(X_22  0.15980392694473267)
(X_23  0.14411765336990356)
(X_24  0.06372549384832382)
(X_25  0.05980392172932625)
(X_26  0.05588235333561897)
(X_27  0.0519607849419117)
(X_28  0.03235294297337532)
(X_29  0.13235294818878174)
(X_30  0.13235294818878174)
(X_31  0.04019607976078987)
(X_32  0.1558823585510254)
(X_33  0.05980392172932625)
(X_34  0.04411764815449715)
(X_35  0.028431374579668045)
(X_36  0.14411765336990356)
(X_37  0.1401960849761963)
(X_38  0.12058823555707932)
(X_39  0.008823529817163944)
(X_40  0.012745101936161518)
(X_41  0.03235294297337532)
(X_42  0.14803922176361084)
(X_43  0.14411765336990356)
(X_44  -0.018627449870109558)
(X_45  0.12843137979507446)
(X_46  0.17549020051956177)
(X_47  0.1715686321258545)
(X_48  0.1401960849761963)
(X_49  0.12058823555707932)
(X_50  0.12450980395078659)
(X_51  0.14411765336990356)
(X_52  0.04019607976078987)
(X_53  0.04019607976078987)
(X_54  0.04019607976078987)
(X_55  0.04019607976078987)
(X_56  0.0519607849419117)
(X_57  0.12450980395078659)
(X_58  0.10882353037595749)
(X_59  0.1401960849761963)
(X_60  0.1872549057006836)
(X_61  0.19901961088180542)
(X_62  0.1715686321258545)
(X_63  0.13235294818878174)
(X_64  0.14411765336990356)
(X_65  0.1558823585510254)
(X_66  0.1558823585510254)
(X_67  0.14803922176361084)
(X_68  0.05980392172932625)
(X_69  0.07941177487373352)
(X_70  0.16372549533843994)
(X_71  0.12843137979507446)
(X_72  0.07549020648002625)
(X_73  0.1401960849761963)
(X_74  0.09705882519483566)
(X_75  0.08529412001371384)
(X_76  0.0009803927969187498)
(X_77  0.028431374579668045)
(X_78  0.14411765336990356)
(X_79  0.0519607849419117)
(X_80  0.020588237792253494)
(X_81  0.02450980618596077)
(X_82  0.028431374579668045)
(X_83  0.03235294297337532)
(X_84  0.5401960611343384)
(X_85  0.49705883860588074)
(X_86  0.47745099663734436)
(X_87  0.5088235139846802)
(X_88  0.5558823943138123)
(X_89  0.5715686678886414)
(X_90  0.5480391979217529)
(X_91  0.5245097875595093)
(X_92  0.44607844948768616)
(X_93  0.39901962876319885)
(X_94  0.30098041892051697)
(X_95  0.19901961088180542)
(X_96  0.1558823585510254)
(X_97  0.05980392172932625)
(X_98  0.05588235333561897)
(X_99  0.028431374579668045)
(X_100  -0.006862743757665157)
(X_101  0.012745101936161518)
(X_102  0.136274516582489)
(X_103  0.14411765336990356)
(X_104  0.12843137979507446)
(X_105  0.11274509876966476)
(X_106  0.12843137979507446)
(X_107  0.1558823585510254)
(X_108  0.020588237792253494)
(X_109  0.12450980395078659)
(X_110  0.02450980618596077)
(X_111  0.028431374579668045)
(X_112  0.7284314036369324)
(X_113  0.6970588564872742)
(X_114  0.6813725829124451)
(X_115  0.6009804010391235)
(X_116  0.6166666746139526)
(X_117  0.6166666746139526)
(X_118  0.6245098114013672)
(X_119  0.6401960849761963)
(X_120  0.7323529720306396)
(X_121  0.7637255191802979)
(X_122  0.7911764979362488)
(X_123  0.6950980424880981)
(X_124  0.7598039507865906)
(X_125  0.6813725829124451)
(X_126  0.5754902362823486)
(X_127  0.49705883860588074)
(X_128  0.24803923070430756)
(X_129  0.15392157435417175)
(X_130  0.05980392172932625)
(X_131  0.03235294297337532)
(X_132  0.04019607976078987)
(X_133  0.04411764815449715)
(X_134  0.136274516582489)
(X_135  0.03235294297337532)
(X_136  0.12058823555707932)
(X_137  0.12058823555707932)
(X_138  0.02450980618596077)
(X_139  0.02450980618596077)
(X_140  0.42450979351997375)
(X_141  0.41274508833885193)
(X_142  0.41274508833885193)
(X_143  0.42450979351997375)
(X_144  0.40882351994514465)
(X_145  0.49313727021217346)
(X_146  0.520588219165802)
(X_147  0.5715686678886414)
(X_148  0.522549033164978)
(X_149  0.4911764860153198)
(X_150  0.479411780834198)
(X_151  0.5068627595901489)
(X_152  0.5382353067398071)
(X_153  0.5696078538894653)
(X_154  0.7284314036369324)
(X_155  0.7872549295425415)
(X_156  0.7990196347236633)
(X_157  0.6225490570068359)
(X_158  0.4107843339443207)
(X_159  0.16960784792900085)
(X_160  0.08725491166114807)
(X_161  0.036274511367082596)
(X_162  0.012745101936161518)
(X_163  0.01666666939854622)
(X_164  0.12058823555707932)
(X_165  0.12058823555707932)
(X_166  0.01666666939854622)
(X_167  0.01666666939854622)
(X_168  0.3950980603694916)
(X_169  0.3950980603694916)
(X_170  0.41862747073173523)
(X_171  0.3343137204647064)
(X_172  0.31078431010246277)
(X_173  0.2754901945590973)
(X_174  0.4068627655506134)
(X_175  0.46568629145622253)
(X_176  0.37745097279548645)
(X_177  0.3343137204647064)
(X_178  0.34607842564582825)
(X_179  0.4049019515514374)
(X_180  0.42450979351997375)
(X_181  0.40882351994514465)
(X_182  0.4598039388656616)
(X_183  0.5539215803146362)
(X_184  0.6813725829124451)
(X_185  0.6323529481887817)
(X_186  0.6676470637321472)
(X_187  0.5892156958580017)
(X_188  0.4735294282436371)
(X_189  0.24607843160629272)
(X_190  0.14803922176361084)
(X_191  0.1558823585510254)
(X_192  0.028431374579668045)
(X_193  0.12843137979507446)
(X_194  0.12450980395078659)
(X_195  0.02450980618596077)
(X_196  0.2343137264251709)
(X_197  0.14215686917304993)
(X_198  0.1774509847164154)
(X_199  0.2088235467672348)
(X_200  0.18137255311012268)
(X_201  0.14215686917304993)
(X_202  0.1617647111415863)
(X_203  0.22058825194835663)
(X_204  0.3637255132198334)
(X_205  0.21666668355464935)
(X_206  0.240196093916893)
(X_207  0.3186274468898773)
(X_208  0.41862747073173523)
(X_209  0.3637255132198334)
(X_210  0.40294119715690613)
(X_211  0.5127450823783875)
(X_212  0.40882351994514465)
(X_213  0.4166666567325592)
(X_214  0.5068627595901489)
(X_215  0.6558823585510254)
(X_216  0.795098066329956)
(X_217  0.5421568751335144)
(X_218  0.29509803652763367)
(X_219  0.11862745881080627)
(X_220  0.04019607976078987)
(X_221  0.1401960849761963)
(X_222  0.1401960849761963)
(X_223  0.1401960849761963)
(X_224  0.19509804248809814)
(X_225  0.17549020051956177)
(X_226  0.16372549533843994)
(X_227  0.17549020051956177)
(X_228  0.19117647409439087)
(X_229  0.20686274766921997)
(X_230  0.24215686321258545)
(X_231  0.27352941036224365)
(X_232  0.18333333730697632)
(X_233  0.23823529481887817)
(X_234  0.19705882668495178)
(X_235  0.3088235557079315)
(X_236  0.2774509787559509)
(X_237  0.2656862735748291)
(X_238  0.32058826088905334)
(X_239  0.3950980603694916)
(X_240  0.23627452552318573)
(X_241  0.24803923070430756)
(X_242  0.3225490152835846)
(X_243  0.41274508833885193)
(X_244  0.48725491762161255)
(X_245  0.665686309337616)
(X_246  0.6696078777313232)
(X_247  0.6029412150382996)
(X_248  0.4264706075191498)
(X_249  0.2970588207244873)
(X_250  0.16372549533843994)
(X_251  0.11274509876966476)
(X_252  0.05588235333561897)
(X_253  0.04019607976078987)
(X_254  0.136274516582489)
(X_255  0.14411765336990356)
(X_256  0.04411764815449715)
(X_257  0.04019607976078987)
(X_258  0.04411764815449715)
(X_259  0.05980392172932625)
(X_260  0.0519607849419117)
(X_261  0.17941176891326904)
(X_262  0.11078432202339172)
(X_263  0.11078432202339172)
(X_264  0.0833333432674408)
(X_265  0.0833333432674408)
(X_266  0.15000000596046448)
(X_267  0.22843138873577118)
(X_268  0.3754902184009552)
(X_269  0.38333335518836975)
(X_270  0.26764705777168274)
(X_271  0.2088235467672348)
(X_272  0.2088235467672348)
(X_273  0.34215685725212097)
(X_274  0.5558823943138123)
(X_275  0.5558823943138123)
(X_276  0.5617647171020508)
(X_277  0.4833333492279053)
(X_278  0.49705883860588074)
(X_279  0.44607844948768616)
(X_280  0.1401960849761963)
(X_281  0.136274516582489)
(X_282  0.14803922176361084)
(X_283  0.16764706373214722)
(X_284  0.1715686321258545)
(X_285  0.1558823585510254)
(X_286  0.0519607849419117)
(X_287  0.05588235333561897)
(X_288  0.1401960849761963)
(X_289  0.14803922176361084)
(X_290  0.15980392694473267)
(X_291  0.05588235333561897)
(X_292  0.036274511367082596)
(X_293  0.13235294818878174)
(X_294  0.17941176891326904)
(X_295  0.23823529481887817)
(X_296  0.16764706373214722)
(X_297  0.2852941155433655)
(X_298  0.27941176295280457)
(X_299  0.3401961028575897)
(X_300  0.28921568393707275)
(X_301  0.25196078419685364)
(X_302  0.3068627417087555)
(X_303  0.3637255132198334)
(X_304  0.44607844948768616)
(X_305  0.4735294282436371)
(X_306  0.5284313559532166)
(X_307  0.5872549414634705)
(X_308  0.13235294818878174)
(X_309  0.12058823555707932)
(X_310  0.12450980395078659)
(X_311  0.136274516582489)
(X_312  0.1401960849761963)
(X_313  0.028431374579668045)
(X_314  0.028431374579668045)
(X_315  0.04019607976078987)
(X_316  0.12843137979507446)
(X_317  0.13235294818878174)
(X_318  0.14803922176361084)
(X_319  0.05588235333561897)
(X_320  0.036274511367082596)
(X_321  0.11666666716337204)
(X_322  0.12843137979507446)
(X_323  0.15196079015731812)
(X_324  0.04411764815449715)
(X_325  0.13431373238563538)
(X_326  0.2245098203420639)
(X_327  0.31666669249534607)
(X_328  0.2696078419685364)
(X_329  0.3088235557079315)
(X_330  0.3598039448261261)
(X_331  0.344117671251297)
(X_332  0.24803923070430756)
(X_333  0.29509803652763367)
(X_334  0.3578431308269501)
(X_335  0.3970588147640228)
(X_336  0.2186274528503418)
(X_337  0.09117648005485535)
(X_338  0.06372549384832382)
(X_339  0.0519607849419117)
(X_340  0.04019607976078987)
(X_341  0.028431374579668045)
(X_342  0.1401960849761963)
(X_343  0.15980392694473267)
(X_344  0.03235294297337532)
(X_345  0.03235294297337532)
(X_346  0.1401960849761963)
(X_347  0.1558823585510254)
(X_348  0.15196079015731812)
(X_349  0.136274516582489)
(X_350  0.14411765336990356)
(X_351  0.06372549384832382)
(X_352  0.13431373238563538)
(X_353  0.07941177487373352)
(X_354  0.07156863063573837)
(X_355  0.07549020648002625)
(X_356  0.05588235333561897)
(X_357  0.09117648005485535)
(X_358  0.16960784792900085)
(X_359  0.3127451241016388)
(X_360  0.20098040997982025)
(X_361  0.23235295712947845)
(X_362  0.36764708161354065)
(X_363  0.2911764681339264)
(X_364  0.28921568393707275)
(X_365  0.25784313678741455)
(X_366  0.22647058963775635)
(X_367  0.114705890417099)
(X_368  0.10686275362968445)
(X_369  0.10686275362968445)
(X_370  0.12647059559822083)
(X_371  0.15392157435417175)
(X_372  0.19117647409439087)
(X_373  0.18333333730697632)
(X_374  0.17941176891326904)
(X_375  0.19117647409439087)
(X_376  0.2029411792755127)
(X_377  0.21470588445663452)
(X_378  0.25)
(X_379  0.18921568989753723)
(X_380  0.22843138873577118)
(X_381  0.11078432202339172)
(X_382  0.17549020051956177)
(X_383  0.21470588445663452)
(X_384  0.22647058963775635)
(X_385  0.24607843160629272)
(X_386  0.20490197837352753)
(X_387  0.24803923070430756)
(X_388  0.3029411733150482)
(X_389  0.31078431010246277)
(X_390  0.4107843339443207)
(X_391  0.2911764681339264)
(X_392  0.114705890417099)
(X_393  0.09509804844856262)
(X_394  0.1872549057006836)
(X_395  0.19509804248809814)
(X_396  0.19509804248809814)
(X_397  0.09509804844856262)
(X_398  0.20686274766921997)
(X_399  0.23039215803146362)
(X_400  0.20686274766921997)
(X_401  0.2029411792755127)
(X_402  0.10686275362968445)
(X_403  0.12254902720451355)
(X_404  0.13431373238563538)
(X_405  0.25)
(X_406  0.29313725233078003)
(X_407  0.23627452552318573)
(X_408  0.4382353127002716)
(X_409  0.3284313976764679)
(X_410  0.2696078419685364)
(X_411  0.2774509787559509)
(X_412  0.18921568989753723)
(X_413  0.24803923070430756)
(X_414  0.3343137204647064)
(X_415  0.37745097279548645)
(X_416  0.5088235139846802)
(X_417  0.5441176295280457)
(X_418  0.5637255311012268)
(X_419  0.45588237047195435)
(X_420  0.18333333730697632)
(X_421  0.07156863063573837)
(X_422  0.07549020648002625)
(X_423  0.1872549057006836)
(X_424  0.17941176891326904)
(X_425  0.05980392172932625)
(X_426  0.04803921654820442)
(X_427  0.05588235333561897)
(X_428  0.04019607976078987)
(X_429  0.04803921654820442)
(X_430  0.17549020051956177)
(X_431  0.19901961088180542)
(X_432  0.2029411792755127)
(X_433  0.10294118523597717)
(X_434  0.12254902720451355)
(X_435  0.2539215683937073)
(X_436  0.16568627953529358)
(X_437  0.14215686917304993)
(X_438  0.15000000596046448)
(X_439  0.15000000596046448)
(X_440  0.13431373238563538)
(X_441  0.16568627953529358)
(X_442  0.2970588207244873)
(X_443  0.2813725471496582)
(X_444  0.32058826088905334)
(X_445  0.3715686500072479)
(X_446  0.4107843339443207)
(X_447  0.3029411733150482)
(X_448  0.04019607976078987)
(X_449  0.04019607976078987)
(X_450  0.04019607976078987)
(X_451  0.04411764815449715)
(X_452  0.04803921654820442)
(X_453  0.14803922176361084)
(X_454  0.0519607849419117)
(X_455  0.0519607849419117)
(X_456  0.05980392172932625)
(X_457  0.0519607849419117)
(X_458  0.14803922176361084)
(X_459  0.14803922176361084)
(X_460  0.15196079015731812)
(X_461  0.05980392172932625)
(X_462  0.07156863063573837)
(X_463  0.07549020648002625)
(X_464  0.21470588445663452)
(X_465  0.20686274766921997)
(X_466  0.09509804844856262)
(X_467  0.08725491166114807)
(X_468  0.18333333730697632)
(X_469  0.08725491166114807)
(X_470  0.09117648005485535)
(X_471  0.09509804844856262)
(X_472  0.13431373238563538)
(X_473  0.14215686917304993)
(X_474  0.25)
(X_475  0.15784314274787903)
(X_476  0.1401960849761963)
(X_477  0.04019607976078987)
(X_478  0.04019607976078987)
(X_479  0.04411764815449715)
(X_480  0.14411765336990356)
(X_481  0.14411765336990356)
(X_482  0.14411765336990356)
(X_483  0.14411765336990356)
(X_484  0.14411765336990356)
(X_485  0.1401960849761963)
(X_486  0.136274516582489)
(X_487  0.13235294818878174)
(X_488  0.136274516582489)
(X_489  0.14411765336990356)
(X_490  0.1558823585510254)
(X_491  0.15980392694473267)
(X_492  0.17941176891326904)
(X_493  0.17549020051956177)
(X_494  0.07156863063573837)
(X_495  0.0676470622420311)
(X_496  0.0676470622420311)
(X_497  0.07156863063573837)
(X_498  0.07941177487373352)
(X_499  0.08725491166114807)
(X_500  0.10686275362968445)
(X_501  0.21470588445663452)
(X_502  0.2186274528503418)
(X_503  0.22647058963775635)
(X_504  0.13235294818878174)
(X_505  0.13235294818878174)
(X_506  0.12843137979507446)
(X_507  0.12843137979507446)
(X_508  0.12843137979507446)
(X_509  0.12843137979507446)
(X_510  0.02450980618596077)
(X_511  0.02450980618596077)
(X_512  0.02450980618596077)
(X_513  0.02450980618596077)
(X_514  0.020588237792253494)
(X_515  0.01666666939854622)
(X_516  0.020588237792253494)
(X_517  0.12843137979507446)
(X_518  0.136274516582489)
(X_519  0.04019607976078987)
(X_520  0.1401960849761963)
(X_521  0.136274516582489)
(X_522  0.136274516582489)
(X_523  0.136274516582489)
(X_524  0.14411765336990356)
(X_525  0.15196079015731812)
(X_526  0.16372549533843994)
(X_527  0.0676470622420311)
(X_528  0.16764706373214722)
(X_529  0.1715686321258545)
(X_530  0.17549020051956177)
(X_531  0.0833333432674408)
(X_532  0.11666666716337204)
(X_533  0.01666666939854622)
(X_534  0.11274509876966476)
(X_535  0.012745101936161518)
(X_536  0.10882353037595749)
(X_537  0.10490196198225021)
(X_538  0.10490196198225021)
(X_539  0.004901961423456669)
(X_540  0.11274509876966476)
(X_541  0.11274509876966476)
(X_542  0.10882353037595749)
(X_543  0.10882353037595749)
(X_544  0.10882353037595749)
(X_545  0.11666666716337204)
(X_546  0.12058823555707932)
(X_547  0.12450980395078659)
(X_548  0.012745101936161518)
(X_549  0.012745101936161518)
(X_550  0.012745101936161518)
(X_551  0.01666666939854622)
(X_552  0.02450980618596077)
(X_553  0.03235294297337532)
(X_554  0.04019607976078987)
(X_555  0.14411765336990356)
(X_556  0.136274516582489)
(X_557  0.136274516582489)
(X_558  0.1401960849761963)
(X_559  0.04019607976078987)
(X_560  0.012745101936161518)
(X_561  0.012745101936161518)
(X_562  0.10882353037595749)
(X_563  0.10882353037595749)
(X_564  0.10490196198225021)
(X_565  0.10098039358854294)
(X_566  0.10098039358854294)
(X_567  0.10098039358854294)
(X_568  0.008823529817163944)
(X_569  0.008823529817163944)
(X_570  0.008823529817163944)
(X_571  0.10882353037595749)
(X_572  0.10882353037595749)
(X_573  0.008823529817163944)
(X_574  0.11274509876966476)
(X_575  0.11274509876966476)
(X_576  0.10882353037595749)
(X_577  0.10882353037595749)
(X_578  0.008823529817163944)
(X_579  0.008823529817163944)
(X_580  0.11274509876966476)
(X_581  0.01666666939854622)
(X_582  0.01666666939854622)
(X_583  0.020588237792253494)
(X_584  0.01666666939854622)
(X_585  0.11666666716337204)
(X_586  0.11666666716337204)
(X_587  0.01666666939854622)
(X_588  0.11274509876966476)
(X_589  0.11274509876966476)
(X_590  0.11274509876966476)
(X_591  0.10882353037595749)
(X_592  0.10882353037595749)
(X_593  0.10882353037595749)
(X_594  0.008823529817163944)
(X_595  0.008823529817163944)
(X_596  0.004901961423456669)
(X_597  0.008823529817163944)
(X_598  0.008823529817163944)
(X_599  0.10882353037595749)
(X_600  0.10882353037595749)
(X_601  0.10882353037595749)
(X_602  0.10882353037595749)
(X_603  0.008823529817163944)
(X_604  0.10882353037595749)
(X_605  0.008823529817163944)
(X_606  0.008823529817163944)
(X_607  0.004901961423456669)
(X_608  0.004901961423456669)
(X_609  0.004901961423456669)
(X_610  0.004901961423456669)
(X_611  0.004901961423456669)
(X_612  0.10882353037595749)
(X_613  0.10490196198225021)
(X_614  0.10490196198225021)
(X_615  0.0009803927969187498)
(X_616  0.0009803927969187498)
(X_617  0.0009803927969187498)
(X_618  0.0009803927969187498)
(X_619  0.0009803927969187498)
(X_620  0.10490196198225021)
(X_621  0.10490196198225021)
(X_622  0.004901961423456669)
(X_623  0.004901961423456669)
(X_624  0.004901961423456669)
(X_625  0.004901961423456669)
(X_626  0.004901961423456669)
(X_627  0.004901961423456669)
(X_628  0.10490196198225021)
(X_629  0.10490196198225021)
(X_630  0.004901961423456669)
(X_631  0.0009803927969187498)
(X_632  -0.0029411755967885256)
(X_633  0.10098039358854294)
(X_634  0.10098039358854294)
(X_635  0.10490196198225021)
(X_636  0.10098039358854294)
(X_637  0.0009803927969187498)
(X_638  0.0009803927969187498)
(X_639  -0.0029411755967885256)
(X_640  0.10490196198225021)
(X_641  0.0009803927969187498)
(X_642  -0.0029411755967885256)
(X_643  -0.006862743757665157)
(X_644  0.08137255162000656)
(X_645  0.08137255162000656)
(X_646  0.08529412001371384)
(X_647  -0.014705880545079708)
(X_648  0.08921568840742111)
(X_649  0.09313725680112839)
(X_650  0.09313725680112839)
(X_651  -0.006862743757665157)
(X_652  0.0009803927969187498)
(X_653  0.0009803927969187498)
(X_654  0.004901961423456669)
(X_655  0.004901961423456669)
(X_656  0.004901961423456669)
(X_657  0.0009803927969187498)
(X_658  -0.0029411755967885256)
(X_659  0.09705882519483566)
(X_660  -0.010784312151372433)
(X_661  -0.006862743757665157)
(X_662  -0.0029411755967885256)
(X_663  0.09705882519483566)
(X_664  0.10098039358854294)
(X_665  0.10098039358854294)
(X_666  0.10098039358854294)
(X_667  0.09705882519483566)
(X_668  0.10490196198225021)
(X_669  0.10098039358854294)
(X_670  0.09705882519483566)
(X_671  -0.010784312151372433)
(X_672  -0.0029411755967885256)
(X_673  0.09705882519483566)
(X_674  0.09705882519483566)
(X_675  0.09705882519483566)
(X_676  0.09705882519483566)
(X_677  -0.0029411755967885256)
(X_678  -0.0029411755967885256)
(X_679  -0.0029411755967885256)
(X_680  -0.0029411755967885256)
(X_681  -0.0029411755967885256)
(X_682  -0.0029411755967885256)
(X_683  -0.0029411755967885256)
(X_684  -0.0029411755967885256)
(X_685  -0.0029411755967885256)
(X_686  -0.0029411755967885256)
(X_687  -0.0029411755967885256)
(X_688  0.008823529817163944)
(X_689  0.008823529817163944)
(X_690  0.004901961423456669)
(X_691  0.0009803927969187498)
(X_692  -0.0029411755967885256)
(X_693  -0.0029411755967885256)
(X_694  0.09705882519483566)
(X_695  0.10098039358854294)
(X_696  0.09705882519483566)
(X_697  0.09705882519483566)
(X_698  -0.0029411755967885256)
(X_699  -0.006862743757665157)
(X_700  0.09313725680112839)
(X_701  0.09313725680112839)
(X_702  0.09313725680112839)
(X_703  -0.006862743757665157)
(X_704  -0.006862743757665157)
(X_705  -0.006862743757665157)
(X_706  -0.006862743757665157)
(X_707  0.09313725680112839)
(X_708  0.09313725680112839)
(X_709  0.09313725680112839)
(X_710  0.09313725680112839)
(X_711  -0.006862743757665157)
(X_712  -0.006862743757665157)
(X_713  -0.006862743757665157)
(X_714  0.09313725680112839)
(X_715  0.09313725680112839)
(X_716  0.004901961423456669)
(X_717  0.10490196198225021)
(X_718  0.10098039358854294)
(X_719  0.09705882519483566)
(X_720  0.09313725680112839)
(X_721  -0.006862743757665157)
(X_722  0.09705882519483566)
(X_723  0.09705882519483566)
(X_724  0.09705882519483566)
(X_725  0.09705882519483566)
(X_726  0.09705882519483566)
(X_727  -0.006862743757665157)
(X_728  -0.010784312151372433)
(X_729  0.08921568840742111)
(X_730  0.08921568840742111)
(X_731  0.08921568840742111)
(X_732  -0.010784312151372433)
(X_733  -0.010784312151372433)
(X_734  -0.010784312151372433)
(X_735  -0.010784312151372433)
(X_736  -0.010784312151372433)
(X_737  -0.010784312151372433)
(X_738  -0.010784312151372433)
(X_739  -0.010784312151372433)
(X_740  -0.010784312151372433)
(X_741  -0.010784312151372433)
(X_742  0.08921568840742111)
(X_743  0.08921568840742111)
(X_744  0.09705882519483566)
(X_745  0.09705882519483566)
(X_746  0.09313725680112839)
(X_747  0.08921568840742111)
(X_748  0.08921568840742111)
(X_749  0.08921568840742111)
(X_750  0.08921568840742111)
(X_751  0.09313725680112839)
(X_752  -0.006862743757665157)
(X_753  0.09313725680112839)
(X_754  0.09313725680112839)
(X_755  -0.006862743757665157)
(X_756  -0.018627449870109558)
(X_757  0.08137255162000656)
(X_758  0.08137255162000656)
(X_759  0.08137255162000656)
(X_760  0.08137255162000656)
(X_761  -0.018627449870109558)
(X_762  -0.018627449870109558)
(X_763  -0.018627449870109558)
(X_764  -0.014705880545079708)
(X_765  -0.014705880545079708)
(X_766  -0.014705880545079708)
(X_767  0.08529412001371384)
(X_768  0.08529412001371384)
(X_769  0.08529412001371384)
(X_770  0.08529412001371384)
(X_771  0.08529412001371384)
(X_772  0.08921568840742111)
(X_773  0.08921568840742111)
(X_774  0.08529412001371384)
(X_775  -0.014705880545079708)
(X_776  -0.018627449870109558)
(X_777  0.08529412001371384)
(X_778  0.08529412001371384)
(X_779  0.08921568840742111)
(X_780  0.09313725680112839)
(X_781  0.08921568840742111)
(X_782  0.08921568840742111)
(X_783  0.08921568840742111)
(Y_0 57.45425796508789)
(Y_1 -78.93360137939453)
(Y_2 18.174413681030273)
(Y_3 7.723649501800537))