((X_0  1.0499999523162842)
(X_1  0.9460784196853638)
(X_2  0.9421568512916565)
(X_3  0.9460784196853638)
(X_4  0.949999988079071)
(X_5  1.0499999523162842)
(X_6  1.0499999523162842)
(X_7  0.949999988079071)
(X_8  1.0460784435272217)
(X_9  1.0460784435272217)
(X_10  1.0460784435272217)
(X_11  1.0460784435272217)
(X_12  1.0460784435272217)
(X_13  1.0460784435272217)
(X_14  1.0499999523162842)
(X_15  0.949999988079071)
(X_16  0.949999988079071)
(X_17  0.949999988079071)
(X_18  0.9460784196853638)
(X_19  0.949999988079071)
(X_20  1.0499999523162842)
(X_21  1.0499999523162842)
(X_22  1.0421568155288696)
(X_23  0.9343137145042419)
(X_24  1.0421568155288696)
(X_25  1.0421568155288696)
(X_26  0.9460784196853638)
(X_27  1.0460784435272217)
(X_28  0.6774510145187378)
(X_29  0.6735294461250305)
(X_30  0.5735294222831726)
(X_31  0.5813725590705872)
(X_32  0.5970588326454163)
(X_33  0.6127451062202454)
(X_34  0.6245098114013672)
(X_35  0.7284314036369324)
(X_36  0.7127451300621033)
(X_37  0.6205882430076599)
(X_38  0.636274516582489)
(X_39  0.6558823585510254)
(X_40  0.6676470637321472)
(X_41  0.7676470875740051)
(X_42  0.7598039507865906)
(X_43  0.6519607901573181)
(X_44  0.7676470875740051)
(X_45  0.7676470875740051)
(X_46  0.6715686321258545)
(X_47  0.6833333373069763)
(X_48  0.7029411792755127)
(X_49  0.7107843160629272)
(X_50  0.7147058844566345)
(X_51  0.7107843160629272)
(X_52  0.8147059082984924)
(X_53  0.8147059082984924)
(X_54  0.8147059082984924)
(X_55  0.8107843399047852)
(X_56  0.1715686321258545)
(X_57  0.0676470622420311)
(X_58  0.06372549384832382)
(X_59  0.06372549384832382)
(X_60  0.0676470622420311)
(X_61  0.07549020648002625)
(X_62  0.0833333432674408)
(X_63  0.08725491166114807)
(X_64  0.15196079015731812)
(X_65  0.04803921654820442)
(X_66  0.0519607849419117)
(X_67  0.0676470622420311)
(X_68  0.18333333730697632)
(X_69  0.08725491166114807)
(X_70  0.07549020648002625)
(X_71  0.06372549384832382)
(X_72  0.05980392172932625)
(X_73  0.05588235333561897)
(X_74  0.05588235333561897)
(X_75  0.06372549384832382)
(X_76  0.17549020051956177)
(X_77  0.17941176891326904)
(X_78  0.17941176891326904)
(X_79  0.17549020051956177)
(X_80  0.1715686321258545)
(X_81  0.1715686321258545)
(X_82  0.1715686321258545)
(X_83  0.1715686321258545)
(X_84  0.15980392694473267)
(X_85  0.16372549533843994)
(X_86  0.16372549533843994)
(X_87  0.15980392694473267)
(X_88  0.1558823585510254)
(X_89  0.04803921654820442)
(X_90  0.04803921654820442)
(X_91  0.0519607849419117)
(X_92  0.19509804248809814)
(X_93  0.07549020648002625)
(X_94  0.0519607849419117)
(X_95  0.04803921654820442)
(X_96  0.1558823585510254)
(X_97  0.15980392694473267)
(X_98  0.1558823585510254)
(X_99  0.14411765336990356)
(X_100  0.17941176891326904)
(X_101  0.17549020051956177)
(X_102  0.16764706373214722)
(X_103  0.0676470622420311)
(X_104  0.07549020648002625)
(X_105  0.07941177487373352)
(X_106  0.07549020648002625)
(X_107  0.07156863063573837)
(X_108  0.05980392172932625)
(X_109  0.05980392172932625)
(X_110  0.06372549384832382)
(X_111  0.16372549533843994)
(X_112  0.05588235333561897)
(X_113  0.16764706373214722)
(X_114  0.07941177487373352)
(X_115  0.07941177487373352)
(X_116  0.07156863063573837)
(X_117  0.06372549384832382)
(X_118  0.0676470622420311)
(X_119  0.0676470622420311)
(X_120  0.07941177487373352)
(X_121  0.07156863063573837)
(X_122  0.06372549384832382)
(X_123  0.0676470622420311)
(X_124  0.17549020051956177)
(X_125  0.07549020648002625)
(X_126  0.06372549384832382)
(X_127  0.04803921654820442)
(X_128  0.15196079015731812)
(X_129  0.14803922176361084)
(X_130  0.1401960849761963)
(X_131  0.14803922176361084)
(X_132  0.15980392694473267)
(X_133  0.16764706373214722)
(X_134  0.07156863063573837)
(X_135  0.1715686321258545)
(X_136  0.16372549533843994)
(X_137  0.16372549533843994)
(X_138  0.16372549533843994)
(X_139  0.16372549533843994)
(X_140  0.14803922176361084)
(X_141  0.1558823585510254)
(X_142  0.15980392694473267)
(X_143  0.15196079015731812)
(X_144  0.036274511367082596)
(X_145  0.028431374579668045)
(X_146  0.036274511367082596)
(X_147  0.14803922176361084)
(X_148  0.14411765336990356)
(X_149  0.1715686321258545)
(X_150  0.10686275362968445)
(X_151  0.13431373238563538)
(X_152  0.24607843160629272)
(X_153  0.2343137264251709)
(X_154  0.21078431606292725)
(X_155  0.09509804844856262)
(X_156  0.09509804844856262)
(X_157  0.0833333432674408)
(X_158  0.16764706373214722)
(X_159  0.1558823585510254)
(X_160  0.1558823585510254)
(X_161  0.05588235333561897)
(X_162  0.04803921654820442)
(X_163  0.14411765336990356)
(X_164  0.15196079015731812)
(X_165  0.04803921654820442)
(X_166  0.04803921654820442)
(X_167  0.1401960849761963)
(X_168  0.05588235333561897)
(X_169  0.15980392694473267)
(X_170  0.05588235333561897)
(X_171  0.14411765336990356)
(X_172  0.1401960849761963)
(X_173  0.05588235333561897)
(X_174  0.09117648005485535)
(X_175  0.12254902720451355)
(X_176  0.31666669249534607)
(X_177  0.24803923070430756)
(X_178  0.2872548997402191)
(X_179  0.3029411733150482)
(X_180  0.3950980603694916)
(X_181  0.27941176295280457)
(X_182  0.27156862616539)
(X_183  0.26764705777168274)
(X_184  0.2813725471496582)
(X_185  0.25784313678741455)
(X_186  0.23039215803146362)
(X_187  0.2029411792755127)
(X_188  0.18333333730697632)
(X_189  0.0676470622420311)
(X_190  0.04803921654820442)
(X_191  0.1401960849761963)
(X_192  0.15196079015731812)
(X_193  0.15196079015731812)
(X_194  0.0519607849419117)
(X_195  0.0519607849419117)
(X_196  0.04411764815449715)
(X_197  0.15196079015731812)
(X_198  0.15980392694473267)
(X_199  0.0676470622420311)
(X_200  0.09509804844856262)
(X_201  0.25784313678741455)
(X_202  0.33627453446388245)
(X_203  0.3950980603694916)
(X_204  0.27156862616539)
(X_205  0.28333333134651184)
(X_206  0.2911764681339264)
(X_207  0.27156862616539)
(X_208  0.23627452552318573)
(X_209  0.2245098203420639)
(X_210  0.23627452552318573)
(X_211  0.2558823525905609)
(X_212  0.40294119715690613)
(X_213  0.38333335518836975)
(X_214  0.3558823764324188)
(X_215  0.33235296607017517)
(X_216  0.31666669249534607)
(X_217  0.30490198731422424)
(X_218  0.28921568393707275)
(X_219  0.2813725471496582)
(X_220  0.2852941155433655)
(X_221  0.1931372582912445)
(X_222  0.20098040997982025)
(X_223  0.3127451241016388)
(X_224  0.07941177487373352)
(X_225  0.07549020648002625)
(X_226  0.20686274766921997)
(X_227  0.30098041892051697)
(X_228  0.31078431010246277)
(X_229  0.36176469922065735)
(X_230  0.3343137204647064)
(X_231  0.28333333134651184)
(X_232  0.3754902184009552)
(X_233  0.387254923582077)
(X_234  0.31078431010246277)
(X_235  0.3343137204647064)
(X_236  0.3382352888584137)
(X_237  0.31078431010246277)
(X_238  0.3637255132198334)
(X_239  0.2245098203420639)
(X_240  0.2088235467672348)
(X_241  0.3284313976764679)
(X_242  0.3598039448261261)
(X_243  0.3950980603694916)
(X_244  0.41862747073173523)
(X_245  0.4225490391254425)
(X_246  0.41470590233802795)
(X_247  0.3068627417087555)
(X_248  0.3068627417087555)
(X_249  0.31078431010246277)
(X_250  0.31470587849617004)
(X_251  0.41862747073173523)
(X_252  0.3068627417087555)
(X_253  0.3186274468898773)
(X_254  0.32647058367729187)
(X_255  0.40294119715690613)
(X_256  0.3598039448261261)
(X_257  0.33235296607017517)
(X_258  0.3284313976764679)
(X_259  0.3401961028575897)
(X_260  0.31078431010246277)
(X_261  0.32647058367729187)
(X_262  0.45000001788139343)
(X_263  0.46568629145622253)
(X_264  0.457843154668808)
(X_265  0.4264706075191498)
(X_266  0.38333335518836975)
(X_267  0.3480392396450043)
(X_268  0.2598039209842682)
(X_269  0.26764705777168274)
(X_270  0.3754902184009552)
(X_271  0.27156862616539)
(X_272  0.2598039209842682)
(X_273  0.3598039448261261)
(X_274  0.3715686500072479)
(X_275  0.2872548997402191)
(X_276  0.27941176295280457)
(X_277  0.28333333134651184)
(X_278  0.2911764681339264)
(X_279  0.29509803652763367)
(X_280  0.39901962876319885)
(X_281  0.4264706075191498)
(X_282  0.3382352888584137)
(X_283  0.29509803652763367)
(X_284  0.23627452552318573)
(X_285  0.3284313976764679)
(X_286  0.38333335518836975)
(X_287  0.45000001788139343)
(X_288  0.3186274468898773)
(X_289  0.3343137204647064)
(X_290  0.3578431308269501)
(X_291  0.3656862676143646)
(X_292  0.3499999940395355)
(X_293  0.32647058367729187)
(X_294  0.29901960492134094)
(X_295  0.2872548997402191)
(X_296  0.33627453446388245)
(X_297  0.25196078419685364)
(X_298  0.2598039209842682)
(X_299  0.24803923070430756)
(X_300  0.3284313976764679)
(X_301  0.33235296607017517)
(X_302  0.3598039448261261)
(X_303  0.2872548997402191)
(X_304  0.22058825194835663)
(X_305  0.22843138873577118)
(X_306  0.240196093916893)
(X_307  0.24803923070430756)
(X_308  0.3911764919757843)
(X_309  0.387254923582077)
(X_310  0.3715686500072479)
(X_311  0.240196093916893)
(X_312  0.21666668355464935)
(X_313  0.22058825194835663)
(X_314  0.2558823525905609)
(X_315  0.2872548997402191)
(X_316  0.2558823525905609)
(X_317  0.26764705777168274)
(X_318  0.38333335518836975)
(X_319  0.38333335518836975)
(X_320  0.27156862616539)
(X_321  0.26372548937797546)
(X_322  0.27156862616539)
(X_323  0.27941176295280457)
(X_324  0.385294109582901)
(X_325  0.4009803831577301)
(X_326  0.4166666567325592)
(X_327  0.5245097875595093)
(X_328  0.5166666507720947)
(X_329  0.5127450823783875)
(X_330  0.520588219165802)
(X_331  0.5284313559532166)
(X_332  0.4990196228027344)
(X_333  0.4950980544090271)
(X_334  0.4911764860153198)
(X_335  0.48725491762161255)
(X_336  0.3029411733150482)
(X_337  0.4068627655506134)
(X_338  0.41470590233802795)
(X_339  0.4264706075191498)
(X_340  0.44607844948768616)
(X_341  0.4696078598499298)
(X_342  0.49313727021217346)
(X_343  0.4049019515514374)
(X_344  0.46568629145622253)
(X_345  0.4696078598499298)
(X_346  0.36176469922065735)
(X_347  0.3499999940395355)
(X_348  0.34215685725212097)
(X_349  0.3499999940395355)
(X_350  0.37745097279548645)
(X_351  0.5009803771972656)
(X_352  0.5284313559532166)
(X_353  0.5127450823783875)
(X_354  0.5009803771972656)
(X_355  0.49313727021217346)
(X_356  0.49313727021217346)
(X_357  0.48137256503105164)
(X_358  0.457843154668808)
(X_359  0.4421568810939789)
(X_360  0.41862747073173523)
(X_361  0.40294119715690613)
(X_362  0.27156862616539)
(X_363  0.240196093916893)
(X_364  0.44411763548851013)
(X_365  0.45588237047195435)
(X_366  0.45196080207824707)
(X_367  0.5166666507720947)
(X_368  0.457843154668808)
(X_369  0.4107843339443207)
(X_370  0.2911764681339264)
(X_371  0.2872548997402191)
(X_372  0.2911764681339264)
(X_373  0.27941176295280457)
(X_374  0.3598039448261261)
(X_375  0.3401961028575897)
(X_376  0.23235295712947845)
(X_377  0.24411766231060028)
(X_378  0.26764705777168274)
(X_379  0.2872548997402191)
(X_380  0.33627453446388245)
(X_381  0.30098041892051697)
(X_382  0.25784313678741455)
(X_383  0.24215686321258545)
(X_384  0.1460784375667572)
(X_385  0.15392157435417175)
(X_386  0.14215686917304993)
(X_387  0.12647059559822083)
(X_388  0.2696078419685364)
(X_389  0.2539215683937073)
(X_390  0.1303921639919281)
(X_391  0.10686275362968445)
(X_392  0.2970588207244873)
(X_393  0.31666669249534607)
(X_394  0.23235295712947845)
(X_395  0.33235296607017517)
(X_396  0.31666669249534607)
(X_397  0.30098041892051697)
(X_398  0.2970588207244873)
(X_399  0.30490198731422424)
(X_400  0.28921568393707275)
(X_401  0.27352941036224365)
(X_402  0.2539215683937073)
(X_403  0.24215686321258545)
(X_404  0.1460784375667572)
(X_405  0.15392157435417175)
(X_406  0.1617647111415863)
(X_407  0.16568627953529358)
(X_408  0.23039215803146362)
(X_409  0.10686275362968445)
(X_410  0.1872549057006836)
(X_411  0.18333333730697632)
(X_412  0.19117647409439087)
(X_413  0.10294118523597717)
(X_414  0.20686274766921997)
(X_415  0.2029411792755127)
(X_416  0.07941177487373352)
(X_417  0.07941177487373352)
(X_418  0.07549020648002625)
(X_419  0.07549020648002625)
(X_420  0.12254902720451355)
(X_421  0.10294118523597717)
(X_422  0.09117648005485535)
(X_423  0.11078432202339172)
(X_424  0.1460784375667572)
(X_425  0.1617647111415863)
(X_426  0.1460784375667572)
(X_427  0.22254902124404907)
(X_428  0.18333333730697632)
(X_429  0.1715686321258545)
(X_430  0.05980392172932625)
(X_431  0.06372549384832382)
(X_432  0.07941177487373352)
(X_433  0.1872549057006836)
(X_434  0.0833333432674408)
(X_435  0.07156863063573837)
(X_436  0.136274516582489)
(X_437  0.14803922176361084)
(X_438  0.15980392694473267)
(X_439  0.16764706373214722)
(X_440  0.16372549533843994)
(X_441  0.1558823585510254)
(X_442  0.04803921654820442)
(X_443  0.04411764815449715)
(X_444  0.07156863063573837)
(X_445  0.07156863063573837)
(X_446  0.07549020648002625)
(X_447  0.17941176891326904)
(X_448  0.1558823585510254)
(X_449  0.1558823585510254)
(X_450  0.0519607849419117)
(X_451  0.1558823585510254)
(X_452  0.06372549384832382)
(X_453  0.07156863063573837)
(X_454  0.17941176891326904)
(X_455  0.1872549057006836)
(X_456  0.16764706373214722)
(X_457  0.15980392694473267)
(X_458  0.15196079015731812)
(X_459  0.14803922176361084)
(X_460  0.04803921654820442)
(X_461  0.0519607849419117)
(X_462  0.05980392172932625)
(X_463  0.0676470622420311)
(X_464  0.04411764815449715)
(X_465  0.04411764815449715)
(X_466  0.04411764815449715)
(X_467  0.14803922176361084)
(X_468  0.14803922176361084)
(X_469  0.15196079015731812)
(X_470  0.15196079015731812)
(X_471  0.1558823585510254)
(X_472  0.15980392694473267)
(X_473  0.15980392694473267)
(X_474  0.15980392694473267)
(X_475  0.15980392694473267)
(X_476  0.04411764815449715)
(X_477  0.04411764815449715)
(X_478  0.1401960849761963)
(X_479  0.14411765336990356)
(X_480  0.04803921654820442)
(X_481  0.05588235333561897)
(X_482  0.06372549384832382)
(X_483  0.0676470622420311)
(X_484  0.1558823585510254)
(X_485  0.15196079015731812)
(X_486  0.14411765336990356)
(X_487  0.04019607976078987)
(X_488  0.04019607976078987)
(X_489  0.04411764815449715)
(X_490  0.0519607849419117)
(X_491  0.05588235333561897)
(X_492  0.04803921654820442)
(X_493  0.04803921654820442)
(X_494  0.04803921654820442)
(X_495  0.0519607849419117)
(X_496  0.15196079015731812)
(X_497  0.15196079015731812)
(X_498  0.1558823585510254)
(X_499  0.05588235333561897)
(X_500  0.16372549533843994)
(X_501  0.06372549384832382)
(X_502  0.06372549384832382)
(X_503  0.06372549384832382)
(X_504  0.03235294297337532)
(X_505  0.03235294297337532)
(X_506  0.12843137979507446)
(X_507  0.12843137979507446)
(X_508  0.03235294297337532)
(X_509  0.036274511367082596)
(X_510  0.1401960849761963)
(X_511  0.14411765336990356)
(X_512  0.04803921654820442)
(X_513  0.04411764815449715)
(X_514  0.036274511367082596)
(X_515  0.03235294297337532)
(X_516  0.03235294297337532)
(X_517  0.036274511367082596)
(X_518  0.04411764815449715)
(X_519  0.04803921654820442)
(X_520  0.04803921654820442)
(X_521  0.04803921654820442)
(X_522  0.04803921654820442)
(X_523  0.04803921654820442)
(X_524  0.0519607849419117)
(X_525  0.15196079015731812)
(X_526  0.15196079015731812)
(X_527  0.15196079015731812)
(X_528  0.05980392172932625)
(X_529  0.05980392172932625)
(X_530  0.05980392172932625)
(X_531  0.05980392172932625)
(X_532  0.13235294818878174)
(X_533  0.13235294818878174)
(X_534  0.12843137979507446)
(X_535  0.12843137979507446)
(X_536  0.028431374579668045)
(X_537  0.028431374579668045)
(X_538  0.028431374579668045)
(X_539  0.028431374579668045)
(X_540  0.04019607976078987)
(X_541  0.1401960849761963)
(X_542  0.136274516582489)
(X_543  0.13235294818878174)
(X_544  0.03235294297337532)
(X_545  0.036274511367082596)
(X_546  0.04019607976078987)
(X_547  0.04019607976078987)
(X_548  0.1401960849761963)
(X_549  0.1401960849761963)
(X_550  0.04019607976078987)
(X_551  0.04019607976078987)
(X_552  0.14411765336990356)
(X_553  0.14411765336990356)
(X_554  0.14411765336990356)
(X_555  0.04411764815449715)
(X_556  0.1401960849761963)
(X_557  0.1401960849761963)
(X_558  0.1401960849761963)
(X_559  0.1401960849761963)
(X_560  0.136274516582489)
(X_561  0.036274511367082596)
(X_562  0.036274511367082596)
(X_563  0.036274511367082596)
(X_564  0.036274511367082596)
(X_565  0.03235294297337532)
(X_566  0.03235294297337532)
(X_567  0.028431374579668045)
(X_568  0.136274516582489)
(X_569  0.136274516582489)
(X_570  0.136274516582489)
(X_571  0.03235294297337532)
(X_572  0.03235294297337532)
(X_573  0.036274511367082596)
(X_574  0.036274511367082596)
(X_575  0.036274511367082596)
(X_576  0.03235294297337532)
(X_577  0.03235294297337532)
(X_578  0.03235294297337532)
(X_579  0.13235294818878174)
(X_580  0.12843137979507446)
(X_581  0.028431374579668045)
(X_582  0.12843137979507446)
(X_583  0.12843137979507446)
(X_584  0.03235294297337532)
(X_585  0.03235294297337532)
(X_586  0.03235294297337532)
(X_587  0.03235294297337532)
(X_588  0.13235294818878174)
(X_589  0.036274511367082596)
(X_590  0.036274511367082596)
(X_591  0.04019607976078987)
(X_592  0.036274511367082596)
(X_593  0.036274511367082596)
(X_594  0.13235294818878174)
(X_595  0.12843137979507446)
(X_596  0.13235294818878174)
(X_597  0.13235294818878174)
(X_598  0.03235294297337532)
(X_599  0.03235294297337532)
(X_600  0.03235294297337532)
(X_601  0.03235294297337532)
(X_602  0.03235294297337532)
(X_603  0.03235294297337532)
(X_604  0.12450980395078659)
(X_605  0.12450980395078659)
(X_606  0.12450980395078659)
(X_607  0.12450980395078659)
(X_608  0.12058823555707932)
(X_609  0.12058823555707932)
(X_610  0.12058823555707932)
(X_611  0.12058823555707932)
(X_612  0.03235294297337532)
(X_613  0.03235294297337532)
(X_614  0.13235294818878174)
(X_615  0.13235294818878174)
(X_616  0.12058823555707932)
(X_617  0.12058823555707932)
(X_618  0.028431374579668045)
(X_619  0.03235294297337532)
(X_620  0.03235294297337532)
(X_621  0.12843137979507446)
(X_622  0.12450980395078659)
(X_623  0.02450980618596077)
(X_624  0.12058823555707932)
(X_625  0.12058823555707932)
(X_626  0.12450980395078659)
(X_627  0.12450980395078659)
(X_628  0.02450980618596077)
(X_629  0.02450980618596077)
(X_630  0.020588237792253494)
(X_631  0.12058823555707932)
(X_632  0.12450980395078659)
(X_633  0.12450980395078659)
(X_634  0.12450980395078659)
(X_635  0.020588237792253494)
(X_636  0.020588237792253494)
(X_637  0.12058823555707932)
(X_638  0.11666666716337204)
(X_639  0.11666666716337204)
(X_640  0.02450980618596077)
(X_641  0.12450980395078659)
(X_642  0.12450980395078659)
(X_643  0.12450980395078659)
(X_644  0.10490196198225021)
(X_645  0.008823529817163944)
(X_646  0.11666666716337204)
(X_647  0.12058823555707932)
(X_648  0.12450980395078659)
(X_649  0.12058823555707932)
(X_650  0.11666666716337204)
(X_651  0.11666666716337204)
(X_652  0.012745101936161518)
(X_653  0.012745101936161518)
(X_654  0.01666666939854622)
(X_655  0.020588237792253494)
(X_656  0.020588237792253494)
(X_657  0.01666666939854622)
(X_658  0.012745101936161518)
(X_659  0.012745101936161518)
(X_660  0.12843137979507446)
(X_661  0.12843137979507446)
(X_662  0.12843137979507446)
(X_663  0.12450980395078659)
(X_664  0.02450980618596077)
(X_665  0.020588237792253494)
(X_666  0.020588237792253494)
(X_667  0.01666666939854622)
(X_668  0.012745101936161518)
(X_669  0.012745101936161518)
(X_670  0.11274509876966476)
(X_671  0.012745101936161518)
(X_672  0.10882353037595749)
(X_673  0.008823529817163944)
(X_674  0.008823529817163944)
(X_675  0.008823529817163944)
(X_676  0.008823529817163944)
(X_677  0.10882353037595749)
(X_678  0.10882353037595749)
(X_679  0.10882353037595749)
(X_680  0.012745101936161518)
(X_681  0.11274509876966476)
(X_682  0.11274509876966476)
(X_683  0.10882353037595749)
(X_684  0.10882353037595749)
(X_685  0.004901961423456669)
(X_686  0.004901961423456669)
(X_687  0.004901961423456669)
(X_688  0.11666666716337204)
(X_689  0.11666666716337204)
(X_690  0.012745101936161518)
(X_691  0.008823529817163944)
(X_692  0.10882353037595749)
(X_693  0.11274509876966476)
(X_694  0.11666666716337204)
(X_695  0.11666666716337204)
(X_696  0.10490196198225021)
(X_697  0.10490196198225021)
(X_698  0.10490196198225021)
(X_699  0.10490196198225021)
(X_700  0.10882353037595749)
(X_701  0.008823529817163944)
(X_702  0.10882353037595749)
(X_703  0.10882353037595749)
(X_704  0.10882353037595749)
(X_705  0.008823529817163944)
(X_706  0.008823529817163944)
(X_707  0.008823529817163944)
(X_708  0.012745101936161518)
(X_709  0.012745101936161518)
(X_710  0.012745101936161518)
(X_711  0.008823529817163944)
(X_712  0.10882353037595749)
(X_713  0.004901961423456669)
(X_714  0.004901961423456669)
(X_715  0.004901961423456669)
(X_716  0.012745101936161518)
(X_717  0.012745101936161518)
(X_718  0.008823529817163944)
(X_719  0.008823529817163944)
(X_720  0.008823529817163944)
(X_721  0.008823529817163944)
(X_722  0.012745101936161518)
(X_723  0.11274509876966476)
(X_724  0.10490196198225021)
(X_725  0.10490196198225021)
(X_726  0.10490196198225021)
(X_727  0.10490196198225021)
(X_728  0.10882353037595749)
(X_729  0.10882353037595749)
(X_730  0.10882353037595749)
(X_731  0.10882353037595749)
(X_732  0.10882353037595749)
(X_733  0.10882353037595749)
(X_734  0.10882353037595749)
(X_735  0.10882353037595749)
(X_736  0.008823529817163944)
(X_737  0.008823529817163944)
(X_738  0.008823529817163944)
(X_739  0.008823529817163944)
(X_740  0.004901961423456669)
(X_741  0.004901961423456669)
(X_742  0.004901961423456669)
(X_743  0.004901961423456669)
(X_744  0.008823529817163944)
(X_745  0.004901961423456669)
(X_746  0.004901961423456669)
(X_747  0.0009803927969187498)
(X_748  0.10098039358854294)
(X_749  0.10490196198225021)
(X_750  0.10490196198225021)
(X_751  0.10882353037595749)
(X_752  0.10490196198225021)
(X_753  0.10490196198225021)
(X_754  0.10490196198225021)
(X_755  0.10490196198225021)
(X_756  0.10882353037595749)
(X_757  0.008823529817163944)
(X_758  0.008823529817163944)
(X_759  0.10882353037595749)
(X_760  0.008823529817163944)
(X_761  0.10882353037595749)
(X_762  0.10882353037595749)
(X_763  0.10882353037595749)
(X_764  0.008823529817163944)
(X_765  0.10490196198225021)
(X_766  0.004901961423456669)
(X_767  0.004901961423456669)
(X_768  0.004901961423456669)
(X_769  0.004901961423456669)
(X_770  0.004901961423456669)
(X_771  0.004901961423456669)
(X_772  0.004901961423456669)
(X_773  0.0009803927969187498)
(X_774  0.0009803927969187498)
(X_775  -0.0029411755967885256)
(X_776  -0.0029411755967885256)
(X_777  0.10098039358854294)
(X_778  0.0009803927969187498)
(X_779  0.004901961423456669)
(X_780  0.004901961423456669)
(X_781  0.004901961423456669)
(X_782  0.004901961423456669)
(X_783  0.004901961423456669)
(Y_0 -23.074764251708984)
(Y_1 26.287052154541016)
(Y_2 -16.828550338745117)
(Y_3 14.704168319702148))