((X_0  0.20686274766921997)
(X_1  0.19901961088180542)
(X_2  0.08725491166114807)
(X_3  0.18333333730697632)
(X_4  0.18333333730697632)
(X_5  0.18333333730697632)
(X_6  0.0833333432674408)
(X_7  0.07941177487373352)
(X_8  0.18333333730697632)
(X_9  0.18333333730697632)
(X_10  0.1872549057006836)
(X_11  0.19117647409439087)
(X_12  0.07549020648002625)
(X_13  0.1558823585510254)
(X_14  0.15196079015731812)
(X_15  0.1558823585510254)
(X_16  0.05588235333561897)
(X_17  0.07156863063573837)
(X_18  0.11078432202339172)
(X_19  0.09509804844856262)
(X_20  0.136274516582489)
(X_21  0.136274516582489)
(X_22  0.0833333432674408)
(X_23  0.09117648005485535)
(X_24  0.20686274766921997)
(X_25  0.19901961088180542)
(X_26  0.19117647409439087)
(X_27  0.18333333730697632)
(X_28  0.17941176891326904)
(X_29  0.18333333730697632)
(X_30  0.09117648005485535)
(X_31  0.19509804248809814)
(X_32  0.09117648005485535)
(X_33  0.0833333432674408)
(X_34  0.07549020648002625)
(X_35  0.16764706373214722)
(X_36  0.0833333432674408)
(X_37  0.07941177487373352)
(X_38  0.07549020648002625)
(X_39  0.07941177487373352)
(X_40  0.09509804844856262)
(X_41  0.11862745881080627)
(X_42  0.12647059559822083)
(X_43  0.12647059559822083)
(X_44  0.1303921639919281)
(X_45  0.09117648005485535)
(X_46  0.17549020051956177)
(X_47  0.0676470622420311)
(X_48  0.04411764815449715)
(X_49  0.06372549384832382)
(X_50  0.0833333432674408)
(X_51  0.05980392172932625)
(X_52  0.15196079015731812)
(X_53  0.14411765336990356)
(X_54  0.14411765336990356)
(X_55  0.15196079015731812)
(X_56  0.21078431606292725)
(X_57  0.10294118523597717)
(X_58  0.0833333432674408)
(X_59  0.06372549384832382)
(X_60  0.04803921654820442)
(X_61  0.05980392172932625)
(X_62  0.09117648005485535)
(X_63  0.11862745881080627)
(X_64  0.020588237792253494)
(X_65  0.07941177487373352)
(X_66  0.13431373238563538)
(X_67  0.16960784792900085)
(X_68  0.2245098203420639)
(X_69  0.31078431010246277)
(X_70  0.37745097279548645)
(X_71  0.4049019515514374)
(X_72  0.39313724637031555)
(X_73  0.3343137204647064)
(X_74  0.29901960492134094)
(X_75  0.3715686500072479)
(X_76  0.31666669249534607)
(X_77  0.28921568393707275)
(X_78  0.2696078419685364)
(X_79  0.22254902124404907)
(X_80  0.21470588445663452)
(X_81  0.2029411792755127)
(X_82  0.08725491166114807)
(X_83  0.18333333730697632)
(X_84  0.15980392694473267)
(X_85  0.0833333432674408)
(X_86  0.10294118523597717)
(X_87  0.2029411792755127)
(X_88  0.17941176891326904)
(X_89  0.15980392694473267)
(X_90  0.15980392694473267)
(X_91  0.16372549533843994)
(X_92  0.1303921639919281)
(X_93  0.2088235467672348)
(X_94  0.26372548937797546)
(X_95  0.24803923070430756)
(X_96  0.240196093916893)
(X_97  0.28333333134651184)
(X_98  0.3382352888584137)
(X_99  0.46176472306251526)
(X_100  0.5088235139846802)
(X_101  0.5088235139846802)
(X_102  0.551960825920105)
(X_103  0.5637255311012268)
(X_104  0.5088235139846802)
(X_105  0.37745097279548645)
(X_106  0.3735294044017792)
(X_107  0.3578431308269501)
(X_108  0.36764708161354065)
(X_109  0.24803923070430756)
(X_110  0.2245098203420639)
(X_111  0.3088235557079315)
(X_112  0.07941177487373352)
(X_113  0.07549020648002625)
(X_114  0.06372549384832382)
(X_115  0.14803922176361084)
(X_116  0.14803922176361084)
(X_117  0.18333333730697632)
(X_118  0.25)
(X_119  0.30098041892051697)
(X_120  0.32647058367729187)
(X_121  0.3382352888584137)
(X_122  0.31470587849617004)
(X_123  0.2754901945590973)
(X_124  0.26764705777168274)
(X_125  0.29509803652763367)
(X_126  0.31078431010246277)
(X_127  0.29901960492134094)
(X_128  0.43431374430656433)
(X_129  0.43431374430656433)
(X_130  0.49705883860588074)
(X_131  0.5558823943138123)
(X_132  0.5441176295280457)
(X_133  0.5362744927406311)
(X_134  0.551960825920105)
(X_135  0.5441176295280457)
(X_136  0.4754902124404907)
(X_137  0.4637255072593689)
(X_138  0.4480392038822174)
(X_139  0.5401960611343384)
(X_140  0.1872549057006836)
(X_141  0.18333333730697632)
(X_142  0.18333333730697632)
(X_143  0.2029411792755127)
(X_144  0.15784314274787903)
(X_145  0.2558823525905609)
(X_146  0.36176469922065735)
(X_147  0.5362744927406311)
(X_148  0.4696078598499298)
(X_149  0.4068627655506134)
(X_150  0.3637255132198334)
(X_151  0.40294119715690613)
(X_152  0.5088235139846802)
(X_153  0.595098078250885)
(X_154  0.6186274886131287)
(X_155  0.6029412150382996)
(X_156  0.44411763548851013)
(X_157  0.3696078360080719)
(X_158  0.4735294282436371)
(X_159  0.5362744927406311)
(X_160  0.5715686678886414)
(X_161  0.48725491762161255)
(X_162  0.4911764860153198)
(X_163  0.5598039627075195)
(X_164  0.479411780834198)
(X_165  0.47156864404678345)
(X_166  0.4598039388656616)
(X_167  0.5598039627075195)
(X_168  0.11862745881080627)
(X_169  0.18529412150382996)
(X_170  0.38333335518836975)
(X_171  0.47745099663734436)
(X_172  0.5323529243469238)
(X_173  0.5401960611343384)
(X_174  0.4205882251262665)
(X_175  0.5009803771972656)
(X_176  0.43039217591285706)
(X_177  0.3911764919757843)
(X_178  0.29901960492134094)
(X_179  0.385294109582901)
(X_180  0.479411780834198)
(X_181  0.522549033164978)
(X_182  0.6421568989753723)
(X_183  0.6578431725502014)
(X_184  0.5794118046760559)
(X_185  0.4892157018184662)
(X_186  0.47745099663734436)
(X_187  0.5401960611343384)
(X_188  0.4833333492279053)
(X_189  0.5029411911964417)
(X_190  0.5068627595901489)
(X_191  0.5833333730697632)
(X_192  0.5754902362823486)
(X_193  0.5637255311012268)
(X_194  0.45588237047195435)
(X_195  0.45588237047195435)
(X_196  0.41274508833885193)
(X_197  0.4166666567325592)
(X_198  0.5245097875595093)
(X_199  0.5323529243469238)
(X_200  0.5284313559532166)
(X_201  0.5049019455909729)
(X_202  0.4696078598499298)
(X_203  0.44607844948768616)
(X_204  0.29509803652763367)
(X_205  0.43431374430656433)
(X_206  0.5362744927406311)
(X_207  0.6343137621879578)
(X_208  0.5382353067398071)
(X_209  0.4911764860153198)
(X_210  0.5068627595901489)
(X_211  0.5696078538894653)
(X_212  0.5598039627075195)
(X_213  0.49705883860588074)
(X_214  0.3970588147640228)
(X_215  0.5166666507720947)
(X_216  0.3696078360080719)
(X_217  0.41862747073173523)
(X_218  0.4068627655506134)
(X_219  0.3911764919757843)
(X_220  0.3911764919757843)
(X_221  0.387254923582077)
(X_222  0.28333333134651184)
(X_223  0.3911764919757843)
(X_224  0.44411763548851013)
(X_225  0.4362744987010956)
(X_226  0.42450979351997375)
(X_227  0.5049019455909729)
(X_228  0.4892157018184662)
(X_229  0.37745097279548645)
(X_230  0.3813725411891937)
(X_231  0.385294109582901)
(X_232  0.385294109582901)
(X_233  0.3029411733150482)
(X_234  0.29509803652763367)
(X_235  0.385294109582901)
(X_236  0.42843136191368103)
(X_237  0.3696078360080719)
(X_238  0.31470587849617004)
(X_239  0.3225490152835846)
(X_240  0.24411766231060028)
(X_241  0.20490197837352753)
(X_242  0.2539215683937073)
(X_243  0.2343137264251709)
(X_244  0.25)
(X_245  0.2970588207244873)
(X_246  0.344117671251297)
(X_247  0.3715686500072479)
(X_248  0.387254923582077)
(X_249  0.29901960492134094)
(X_250  0.3186274468898773)
(X_251  0.3382352888584137)
(X_252  0.4735294282436371)
(X_253  0.40882351994514465)
(X_254  0.44411763548851013)
(X_255  0.4480392038822174)
(X_256  0.5088235139846802)
(X_257  0.457843154668808)
(X_258  0.41862747073173523)
(X_259  0.39901962876319885)
(X_260  0.23235295712947845)
(X_261  0.19705882668495178)
(X_262  0.21274511516094208)
(X_263  0.27941176295280457)
(X_264  0.2872548997402191)
(X_265  0.2245098203420639)
(X_266  0.17352941632270813)
(X_267  0.16960784792900085)
(X_268  0.2754901945590973)
(X_269  0.41862747073173523)
(X_270  0.4892157018184662)
(X_271  0.5598039627075195)
(X_272  0.5990196466445923)
(X_273  0.5911765098571777)
(X_274  0.5480391979217529)
(X_275  0.41274508833885193)
(X_276  0.4735294282436371)
(X_277  0.46176472306251526)
(X_278  0.34215685725212097)
(X_279  0.3225490152835846)
(X_280  0.5480391979217529)
(X_281  0.5480391979217529)
(X_282  0.5245097875595093)
(X_283  0.3696078360080719)
(X_284  0.29901960492134094)
(X_285  0.3598039448261261)
(X_286  0.3637255132198334)
(X_287  0.38333335518836975)
(X_288  0.3578431308269501)
(X_289  0.33039215207099915)
(X_290  0.2911764681339264)
(X_291  0.3480392396450043)
(X_292  0.2970588207244873)
(X_293  0.15392157435417175)
(X_294  0.1460784375667572)
(X_295  0.1617647111415863)
(X_296  0.49313727021217346)
(X_297  0.46568629145622253)
(X_298  0.41862747073173523)
(X_299  0.27156862616539)
(X_300  0.23235295712947845)
(X_301  0.30098041892051697)
(X_302  0.27352941036224365)
(X_303  0.1617647111415863)
(X_304  0.22058825194835663)
(X_305  0.3127451241016388)
(X_306  0.19705882668495178)
(X_307  0.18137255311012268)
(X_308  0.5284313559532166)
(X_309  0.5558823943138123)
(X_310  0.5872549414634705)
(X_311  0.4911764860153198)
(X_312  0.47156864404678345)
(X_313  0.5480391979217529)
(X_314  0.5441176295280457)
(X_315  0.5441176295280457)
(X_316  0.5049019455909729)
(X_317  0.4852941334247589)
(X_318  0.4068627655506134)
(X_319  0.30098041892051697)
(X_320  0.22647058963775635)
(X_321  0.11078432202339172)
(X_322  0.11862745881080627)
(X_323  0.11862745881080627)
(X_324  0.3088235557079315)
(X_325  0.30098041892051697)
(X_326  0.28921568393707275)
(X_327  0.18137255311012268)
(X_328  0.1774509847164154)
(X_329  0.2774509787559509)
(X_330  0.2774509787559509)
(X_331  0.2774509787559509)
(X_332  0.19117647409439087)
(X_333  0.2029411792755127)
(X_334  0.11862745881080627)
(X_335  0.13431373238563538)
(X_336  0.520588219165802)
(X_337  0.5009803771972656)
(X_338  0.4696078598499298)
(X_339  0.43039217591285706)
(X_340  0.3911764919757843)
(X_341  0.24803923070430756)
(X_342  0.20490197837352753)
(X_343  0.18137255311012268)
(X_344  0.3284313976764679)
(X_345  0.344117671251297)
(X_346  0.21274511516094208)
(X_347  0.14215686917304993)
(X_348  0.10686275362968445)
(X_349  0.10686275362968445)
(X_350  0.0833333432674408)
(X_351  0.136274516582489)
(X_352  0.2186274528503418)
(X_353  0.22647058963775635)
(X_354  0.13823530077934265)
(X_355  0.13823530077934265)
(X_356  0.114705890417099)
(X_357  0.17941176891326904)
(X_358  0.14411765336990356)
(X_359  0.12450980395078659)
(X_360  0.2029411792755127)
(X_361  0.21078431606292725)
(X_362  0.12254902720451355)
(X_363  0.1303921639919281)
(X_364  0.3715686500072479)
(X_365  0.3245098292827606)
(X_366  0.2617647051811218)
(X_367  0.23039215803146362)
(X_368  0.23823529481887817)
(X_369  0.2656862735748291)
(X_370  0.18529412150382996)
(X_371  0.19705882668495178)
(X_372  0.2656862735748291)
(X_373  0.17352941632270813)
(X_374  0.1460784375667572)
(X_375  0.19509804248809814)
(X_376  0.08725491166114807)
(X_377  0.11078432202339172)
(X_378  0.09509804844856262)
(X_379  0.05588235333561897)
(X_380  0.19901961088180542)
(X_381  0.0990196168422699)
(X_382  0.19117647409439087)
(X_383  0.07941177487373352)
(X_384  0.07549020648002625)
(X_385  0.08725491166114807)
(X_386  0.10294118523597717)
(X_387  0.11862745881080627)
(X_388  0.19509804248809814)
(X_389  0.1872549057006836)
(X_390  0.1715686321258545)
(X_391  0.06372549384832382)
(X_392  0.25784313678741455)
(X_393  0.2539215683937073)
(X_394  0.15392157435417175)
(X_395  0.15392157435417175)
(X_396  0.13823530077934265)
(X_397  0.21470588445663452)
(X_398  0.07941177487373352)
(X_399  0.05588235333561897)
(X_400  0.15392157435417175)
(X_401  0.14215686917304993)
(X_402  0.19509804248809814)
(X_403  0.1401960849761963)
(X_404  0.12843137979507446)
(X_405  0.1558823585510254)
(X_406  0.1715686321258545)
(X_407  0.15980392694473267)
(X_408  0.16764706373214722)
(X_409  0.1872549057006836)
(X_410  0.21078431606292725)
(X_411  0.21470588445663452)
(X_412  0.19901961088180542)
(X_413  0.17549020051956177)
(X_414  0.1558823585510254)
(X_415  0.14803922176361084)
(X_416  0.0676470622420311)
(X_417  0.15980392694473267)
(X_418  0.0519607849419117)
(X_419  0.04803921654820442)
(X_420  0.14215686917304993)
(X_421  0.13823530077934265)
(X_422  0.12647059559822083)
(X_423  0.10686275362968445)
(X_424  0.09509804844856262)
(X_425  0.09509804844856262)
(X_426  0.114705890417099)
(X_427  0.23039215803146362)
(X_428  0.19117647409439087)
(X_429  0.20686274766921997)
(X_430  0.10294118523597717)
(X_431  0.0833333432674408)
(X_432  0.0676470622420311)
(X_433  0.06372549384832382)
(X_434  0.05980392172932625)
(X_435  0.0519607849419117)
(X_436  0.15196079015731812)
(X_437  0.15980392694473267)
(X_438  0.16372549533843994)
(X_439  0.1558823585510254)
(X_440  0.14411765336990356)
(X_441  0.036274511367082596)
(X_442  0.04019607976078987)
(X_443  0.0519607849419117)
(X_444  0.02450980618596077)
(X_445  0.028431374579668045)
(X_446  0.04019607976078987)
(X_447  0.14411765336990356)
(X_448  0.19509804248809814)
(X_449  0.17549020051956177)
(X_450  0.05588235333561897)
(X_451  0.14803922176361084)
(X_452  0.1558823585510254)
(X_453  0.16372549533843994)
(X_454  0.16372549533843994)
(X_455  0.15980392694473267)
(X_456  0.15980392694473267)
(X_457  0.15980392694473267)
(X_458  0.14803922176361084)
(X_459  0.136274516582489)
(X_460  0.12843137979507446)
(X_461  0.03235294297337532)
(X_462  0.04803921654820442)
(X_463  0.06372549384832382)
(X_464  0.06372549384832382)
(X_465  0.06372549384832382)
(X_466  0.05980392172932625)
(X_467  0.04803921654820442)
(X_468  0.136274516582489)
(X_469  0.13235294818878174)
(X_470  0.1401960849761963)
(X_471  0.15196079015731812)
(X_472  0.12450980395078659)
(X_473  0.13235294818878174)
(X_474  0.14411765336990356)
(X_475  0.15196079015731812)
(X_476  0.10294118523597717)
(X_477  0.18333333730697632)
(X_478  0.16372549533843994)
(X_479  0.1558823585510254)
(X_480  0.1558823585510254)
(X_481  0.05588235333561897)
(X_482  0.04803921654820442)
(X_483  0.14411765336990356)
(X_484  0.1715686321258545)
(X_485  0.1715686321258545)
(X_486  0.16372549533843994)
(X_487  0.15196079015731812)
(X_488  0.136274516582489)
(X_489  0.12843137979507446)
(X_490  0.12843137979507446)
(X_491  0.03235294297337532)
(X_492  0.07941177487373352)
(X_493  0.07156863063573837)
(X_494  0.16372549533843994)
(X_495  0.15980392694473267)
(X_496  0.1558823585510254)
(X_497  0.14803922176361084)
(X_498  0.136274516582489)
(X_499  0.02450980618596077)
(X_500  0.1715686321258545)
(X_501  0.16372549533843994)
(X_502  0.04803921654820442)
(X_503  0.13235294818878174)
(X_504  0.12843137979507446)
(X_505  0.12450980395078659)
(X_506  0.020588237792253494)
(X_507  0.02450980618596077)
(X_508  0.036274511367082596)
(X_509  0.04411764815449715)
(X_510  0.14803922176361084)
(X_511  0.14411765336990356)
(X_512  0.008823529817163944)
(X_513  0.020588237792253494)
(X_514  0.036274511367082596)
(X_515  0.04411764815449715)
(X_516  0.04411764815449715)
(X_517  0.04411764815449715)
(X_518  0.04803921654820442)
(X_519  0.05588235333561897)
(X_520  0.008823529817163944)
(X_521  0.0009803927969187498)
(X_522  0.0009803927969187498)
(X_523  0.012745101936161518)
(X_524  0.03235294297337532)
(X_525  0.13235294818878174)
(X_526  0.11666666716337204)
(X_527  0.09705882519483566)
(X_528  0.11274509876966476)
(X_529  0.008823529817163944)
(X_530  0.0009803927969187498)
(X_531  0.0009803927969187498)
(X_532  0.15980392694473267)
(X_533  0.1558823585510254)
(X_534  0.15196079015731812)
(X_535  0.14411765336990356)
(X_536  0.04019607976078987)
(X_537  0.036274511367082596)
(X_538  0.028431374579668045)
(X_539  0.12450980395078659)
(X_540  0.0519607849419117)
(X_541  0.0519607849419117)
(X_542  0.15196079015731812)
(X_543  0.1401960849761963)
(X_544  0.12450980395078659)
(X_545  0.004901961423456669)
(X_546  -0.0029411755967885256)
(X_547  -0.0029411755967885256)
(X_548  0.14411765336990356)
(X_549  0.14411765336990356)
(X_550  0.14411765336990356)
(X_551  0.14411765336990356)
(X_552  0.14803922176361084)
(X_553  0.14411765336990356)
(X_554  0.036274511367082596)
(X_555  0.028431374579668045)
(X_556  0.14803922176361084)
(X_557  0.04803921654820442)
(X_558  0.04411764815449715)
(X_559  0.1401960849761963)
(X_560  0.12058823555707932)
(X_561  0.12058823555707932)
(X_562  0.12843137979507446)
(X_563  0.12843137979507446)
(X_564  0.03235294297337532)
(X_565  0.036274511367082596)
(X_566  0.04019607976078987)
(X_567  0.04411764815449715)
(X_568  0.02450980618596077)
(X_569  0.13235294818878174)
(X_570  0.136274516582489)
(X_571  0.036274511367082596)
(X_572  0.036274511367082596)
(X_573  0.04411764815449715)
(X_574  0.05588235333561897)
(X_575  0.0676470622420311)
(X_576  0.012745101936161518)
(X_577  0.02450980618596077)
(X_578  0.036274511367082596)
(X_579  0.12843137979507446)
(X_580  0.11274509876966476)
(X_581  0.11274509876966476)
(X_582  0.13235294818878174)
(X_583  0.15196079015731812)
(X_584  0.08529412001371384)
(X_585  0.004901961423456669)
(X_586  0.03235294297337532)
(X_587  0.05588235333561897)
(X_588  0.12843137979507446)
(X_589  0.03235294297337532)
(X_590  0.03235294297337532)
(X_591  0.12843137979507446)
(X_592  0.020588237792253494)
(X_593  0.020588237792253494)
(X_594  0.12843137979507446)
(X_595  0.136274516582489)
(X_596  0.136274516582489)
(X_597  0.136274516582489)
(X_598  0.13235294818878174)
(X_599  0.12450980395078659)
(X_600  0.012745101936161518)
(X_601  0.008823529817163944)
(X_602  0.01666666939854622)
(X_603  0.02450980618596077)
(X_604  0.12843137979507446)
(X_605  0.16764706373214722)
(X_606  0.2186274528503418)
(X_607  0.2539215683937073)
(X_608  0.2813725471496582)
(X_609  0.22843138873577118)
(X_610  0.3950980603694916)
(X_611  0.45000001788139343)
(X_612  0.5264706015586853)
(X_613  0.5578431487083435)
(X_614  0.6088235378265381)
(X_615  0.7637255191802979)
(X_616  0.12450980395078659)
(X_617  0.028431374579668045)
(X_618  0.028431374579668045)
(X_619  0.020588237792253494)
(X_620  0.012745101936161518)
(X_621  0.11666666716337204)
(X_622  0.13235294818878174)
(X_623  0.14803922176361084)
(X_624  0.18333333730697632)
(X_625  0.22254902124404907)
(X_626  0.28921568393707275)
(X_627  0.3637255132198334)
(X_628  0.3382352888584137)
(X_629  0.41274508833885193)
(X_630  0.47156864404678345)
(X_631  0.6068627834320068)
(X_632  0.6558823585510254)
(X_633  0.6950980424880981)
(X_634  0.75)
(X_635  0.8009803891181946)
(X_636  0.8441176414489746)
(X_637  0.9950980544090271)
(X_638  1.0499999523162842)
(X_639  1.0499999523162842)
(X_640  0.9225490093231201)
(X_641  0.9303921461105347)
(X_642  1.0421568155288696)
(X_643  1.0499999523162842)
(X_644  0.1931372582912445)
(X_645  0.23235295712947845)
(X_646  0.40294119715690613)
(X_647  0.48137256503105164)
(X_648  0.5715686678886414)
(X_649  0.665686309337616)
(X_650  0.7558823823928833)
(X_651  0.8107843399047852)
(X_652  0.8813725709915161)
(X_653  0.908823549747467)
(X_654  0.9519608020782471)
(X_655  0.8911764621734619)
(X_656  0.9225490093231201)
(X_657  0.9421568512916565)
(X_658  0.949999988079071)
(X_659  0.949999988079071)
(X_660  1.0499999523162842)
(X_661  1.0499999523162842)
(X_662  1.0499999523162842)
(X_663  1.0499999523162842)
(X_664  0.949999988079071)
(X_665  1.0460784435272217)
(X_666  1.0421568155288696)
(X_667  0.9382352828979492)
(X_668  1.0499999523162842)
(X_669  0.949999988079071)
(X_670  0.949999988079071)
(X_671  0.9421568512916565)
(X_672  0.9833333492279053)
(X_673  0.8950980305671692)
(X_674  0.9186274409294128)
(X_675  0.9382352828979492)
(X_676  0.949999988079071)
(X_677  0.949999988079071)
(X_678  1.0499999523162842)
(X_679  1.0421568155288696)
(X_680  0.949999988079071)
(X_681  1.0499999523162842)
(X_682  1.0499999523162842)
(X_683  1.0499999523162842)
(X_684  1.0499999523162842)
(X_685  1.0499999523162842)
(X_686  0.949999988079071)
(X_687  0.949999988079071)
(X_688  1.0499999523162842)
(X_689  1.0499999523162842)
(X_690  0.949999988079071)
(X_691  0.949999988079071)
(X_692  1.0499999523162842)
(X_693  1.0499999523162842)
(X_694  0.949999988079071)
(X_695  0.949999988079071)
(X_696  1.0499999523162842)
(X_697  1.0499999523162842)
(X_698  1.0499999523162842)
(X_699  1.0499999523162842)
(X_700  1.034313678741455)
(X_701  0.9382352828979492)
(X_702  0.949999988079071)
(X_703  1.0499999523162842)
(X_704  0.949999988079071)
(X_705  1.0499999523162842)
(X_706  0.9421568512916565)
(X_707  0.9382352828979492)
(X_708  0.949999988079071)
(X_709  1.0499999523162842)
(X_710  1.0499999523162842)
(X_711  1.0499999523162842)
(X_712  1.0499999523162842)
(X_713  0.949999988079071)
(X_714  0.949999988079071)
(X_715  0.949999988079071)
(X_716  1.0499999523162842)
(X_717  1.0499999523162842)
(X_718  0.949999988079071)
(X_719  0.949999988079071)
(X_720  0.949999988079071)
(X_721  1.0499999523162842)
(X_722  1.0499999523162842)
(X_723  1.0499999523162842)
(X_724  1.0499999523162842)
(X_725  1.0499999523162842)
(X_726  1.0499999523162842)
(X_727  1.0499999523162842)
(X_728  1.0499999523162842)
(X_729  0.949999988079071)
(X_730  1.0499999523162842)
(X_731  1.0499999523162842)
(X_732  0.949999988079071)
(X_733  0.949999988079071)
(X_734  1.0421568155288696)
(X_735  1.0382353067398071)
(X_736  1.0499999523162842)
(X_737  1.0499999523162842)
(X_738  1.0499999523162842)
(X_739  0.949999988079071)
(X_740  1.0499999523162842)
(X_741  0.949999988079071)
(X_742  0.949999988079071)
(X_743  0.949999988079071)
(X_744  0.949999988079071)
(X_745  0.949999988079071)
(X_746  1.0499999523162842)
(X_747  1.0499999523162842)
(X_748  0.949999988079071)
(X_749  0.949999988079071)
(X_750  0.949999988079071)
(X_751  0.949999988079071)
(X_752  1.0499999523162842)
(X_753  1.0499999523162842)
(X_754  1.0499999523162842)
(X_755  1.0499999523162842)
(X_756  1.0499999523162842)
(X_757  1.0460784435272217)
(X_758  1.0460784435272217)
(X_759  1.0460784435272217)
(X_760  0.9460784196853638)
(X_761  1.0499999523162842)
(X_762  1.0499999523162842)
(X_763  1.0499999523162842)
(X_764  0.949999988079071)
(X_765  1.0499999523162842)
(X_766  0.949999988079071)
(X_767  0.949999988079071)
(X_768  0.949999988079071)
(X_769  0.949999988079071)
(X_770  0.949999988079071)
(X_771  0.949999988079071)
(X_772  0.949999988079071)
(X_773  0.949999988079071)
(X_774  0.949999988079071)
(X_775  0.949999988079071)
(X_776  1.0499999523162842)
(X_777  1.0499999523162842)
(X_778  0.949999988079071)
(X_779  0.949999988079071)
(X_780  0.949999988079071)
(X_781  0.949999988079071)
(X_782  0.949999988079071)
(X_783  0.949999988079071)
(Y_0 -25.600990295410156)
(Y_1 53.06805419921875)
(Y_2 -18.357807159423828)
(Y_3 -8.61392593383789))