((X_0  1.0147058963775635)
(X_1  0.9186274409294128)
(X_2  0.9107843041419983)
(X_3  0.8990195989608765)
(X_4  0.9029411673545837)
(X_5  0.906862735748291)
(X_6  0.8833333253860474)
(X_7  0.8519607782363892)
(X_8  0.8676470518112183)
(X_9  0.9637255072593689)
(X_10  0.9598039388656616)
(X_11  0.8519607782363892)
(X_12  0.8480392098426819)
(X_13  0.9401960968971252)
(X_14  0.936274528503418)
(X_15  0.8323529362678528)
(X_16  0.820588231086731)
(X_17  0.8166666626930237)
(X_18  0.8127450942993164)
(X_19  0.8088235259056091)
(X_20  0.8970588445663452)
(X_21  0.8852941393852234)
(X_22  0.8696078658103943)
(X_23  0.865686297416687)
(X_24  0.8421568870544434)
(X_25  0.7382352948188782)
(X_26  0.7303921580314636)
(X_27  0.7186274528503418)
(X_28  0.43039217591285706)
(X_29  0.43431374430656433)
(X_30  0.32647058367729187)
(X_31  0.31078431010246277)
(X_32  0.31078431010246277)
(X_33  0.3186274468898773)
(X_34  0.31078431010246277)
(X_35  0.3911764919757843)
(X_36  0.2911764681339264)
(X_37  0.2872548997402191)
(X_38  0.27941176295280457)
(X_39  0.26764705777168274)
(X_40  0.2558823525905609)
(X_41  0.3480392396450043)
(X_42  0.3401961028575897)
(X_43  0.23235295712947845)
(X_44  0.3245098292827606)
(X_45  0.32058826088905334)
(X_46  0.3127451241016388)
(X_47  0.20490197837352753)
(X_48  0.19705882668495178)
(X_49  0.19705882668495178)
(X_50  0.19705882668495178)
(X_51  0.19705882668495178)
(X_52  0.2696078419685364)
(X_53  0.2656862735748291)
(X_54  0.2617647051811218)
(X_55  0.25784313678741455)
(X_56  0.21078431606292725)
(X_57  0.12254902720451355)
(X_58  0.11862745881080627)
(X_59  0.09509804844856262)
(X_60  0.08725491166114807)
(X_61  0.0990196168422699)
(X_62  0.10686275362968445)
(X_63  0.10294118523597717)
(X_64  0.10686275362968445)
(X_65  0.10686275362968445)
(X_66  0.0990196168422699)
(X_67  0.09117648005485535)
(X_68  0.18333333730697632)
(X_69  0.07941177487373352)
(X_70  0.1715686321258545)
(X_71  0.16764706373214722)
(X_72  0.114705890417099)
(X_73  0.10686275362968445)
(X_74  0.0990196168422699)
(X_75  0.09117648005485535)
(X_76  0.19117647409439087)
(X_77  0.19509804248809814)
(X_78  0.20686274766921997)
(X_79  0.21470588445663452)
(X_80  0.1872549057006836)
(X_81  0.1872549057006836)
(X_82  0.08725491166114807)
(X_83  0.1872549057006836)
(X_84  0.19117647409439087)
(X_85  0.21470588445663452)
(X_86  0.22254902124404907)
(X_87  0.20686274766921997)
(X_88  0.19509804248809814)
(X_89  0.10294118523597717)
(X_90  0.11078432202339172)
(X_91  0.11078432202339172)
(X_92  0.22647058963775635)
(X_93  0.12647059559822083)
(X_94  0.12647059559822083)
(X_95  0.1303921639919281)
(X_96  0.23039215803146362)
(X_97  0.23039215803146362)
(X_98  0.23039215803146362)
(X_99  0.2343137264251709)
(X_100  0.2186274528503418)
(X_101  0.21470588445663452)
(X_102  0.20686274766921997)
(X_103  0.2029411792755127)
(X_104  0.10294118523597717)
(X_105  0.10686275362968445)
(X_106  0.114705890417099)
(X_107  0.12254902720451355)
(X_108  0.10294118523597717)
(X_109  0.10294118523597717)
(X_110  0.10294118523597717)
(X_111  0.20686274766921997)
(X_112  0.05588235333561897)
(X_113  0.1872549057006836)
(X_114  0.20686274766921997)
(X_115  0.19901961088180542)
(X_116  0.19117647409439087)
(X_117  0.09117648005485535)
(X_118  0.09117648005485535)
(X_119  0.0833333432674408)
(X_120  0.08725491166114807)
(X_121  0.08725491166114807)
(X_122  0.09117648005485535)
(X_123  0.09509804844856262)
(X_124  0.0990196168422699)
(X_125  0.0990196168422699)
(X_126  0.10294118523597717)
(X_127  0.10294118523597717)
(X_128  0.2186274528503418)
(X_129  0.22254902124404907)
(X_130  0.22254902124404907)
(X_131  0.22254902124404907)
(X_132  0.2186274528503418)
(X_133  0.21470588445663452)
(X_134  0.21078431606292725)
(X_135  0.21078431606292725)
(X_136  0.2029411792755127)
(X_137  0.10294118523597717)
(X_138  0.20686274766921997)
(X_139  0.20686274766921997)
(X_140  0.18333333730697632)
(X_141  0.21470588445663452)
(X_142  0.2343137264251709)
(X_143  0.2343137264251709)
(X_144  0.1303921639919281)
(X_145  0.1303921639919281)
(X_146  0.11862745881080627)
(X_147  0.2029411792755127)
(X_148  0.21470588445663452)
(X_149  0.21470588445663452)
(X_150  0.21078431606292725)
(X_151  0.21078431606292725)
(X_152  0.20686274766921997)
(X_153  0.2029411792755127)
(X_154  0.2029411792755127)
(X_155  0.2029411792755127)
(X_156  0.19901961088180542)
(X_157  0.2029411792755127)
(X_158  0.2029411792755127)
(X_159  0.2029411792755127)
(X_160  0.19901961088180542)
(X_161  0.19117647409439087)
(X_162  0.18333333730697632)
(X_163  0.17941176891326904)
(X_164  0.17549020051956177)
(X_165  0.07941177487373352)
(X_166  0.18333333730697632)
(X_167  0.1872549057006836)
(X_168  0.1715686321258545)
(X_169  0.1872549057006836)
(X_170  0.19509804248809814)
(X_171  0.19509804248809814)
(X_172  0.2029411792755127)
(X_173  0.10686275362968445)
(X_174  0.09509804844856262)
(X_175  0.07156863063573837)
(X_176  0.0990196168422699)
(X_177  0.19509804248809814)
(X_178  0.19509804248809814)
(X_179  0.19117647409439087)
(X_180  0.1872549057006836)
(X_181  0.18333333730697632)
(X_182  0.0833333432674408)
(X_183  0.07941177487373352)
(X_184  0.22647058963775635)
(X_185  0.22254902124404907)
(X_186  0.2186274528503418)
(X_187  0.2186274528503418)
(X_188  0.21470588445663452)
(X_189  0.11078432202339172)
(X_190  0.11078432202339172)
(X_191  0.21078431606292725)
(X_192  0.2029411792755127)
(X_193  0.20686274766921997)
(X_194  0.21470588445663452)
(X_195  0.22254902124404907)
(X_196  0.0990196168422699)
(X_197  0.2029411792755127)
(X_198  0.0990196168422699)
(X_199  0.09509804844856262)
(X_200  0.10686275362968445)
(X_201  0.12254902720451355)
(X_202  0.11078432202339172)
(X_203  0.0833333432674408)
(X_204  0.10686275362968445)
(X_205  0.10686275362968445)
(X_206  0.10686275362968445)
(X_207  0.20686274766921997)
(X_208  0.11078432202339172)
(X_209  0.11078432202339172)
(X_210  0.114705890417099)
(X_211  0.21470588445663452)
(X_212  0.20686274766921997)
(X_213  0.19901961088180542)
(X_214  0.19117647409439087)
(X_215  0.18333333730697632)
(X_216  0.18333333730697632)
(X_217  0.1872549057006836)
(X_218  0.19901961088180542)
(X_219  0.2029411792755127)
(X_220  0.19117647409439087)
(X_221  0.19509804248809814)
(X_222  0.10686275362968445)
(X_223  0.2186274528503418)
(X_224  0.10294118523597717)
(X_225  0.11078432202339172)
(X_226  0.2186274528503418)
(X_227  0.20686274766921997)
(X_228  0.08725491166114807)
(X_229  0.0833333432674408)
(X_230  0.114705890417099)
(X_231  0.15000000596046448)
(X_232  0.10686275362968445)
(X_233  0.11862745881080627)
(X_234  0.10686275362968445)
(X_235  0.1872549057006836)
(X_236  0.19117647409439087)
(X_237  0.11078432202339172)
(X_238  0.114705890417099)
(X_239  0.0990196168422699)
(X_240  0.10294118523597717)
(X_241  0.20686274766921997)
(X_242  0.2029411792755127)
(X_243  0.19901961088180542)
(X_244  0.19509804248809814)
(X_245  0.19509804248809814)
(X_246  0.20686274766921997)
(X_247  0.21470588445663452)
(X_248  0.10294118523597717)
(X_249  0.10686275362968445)
(X_250  0.10294118523597717)
(X_251  0.19117647409439087)
(X_252  0.14215686917304993)
(X_253  0.16568627953529358)
(X_254  0.30490198731422424)
(X_255  0.3401961028575897)
(X_256  0.3637255132198334)
(X_257  0.3754902184009552)
(X_258  0.38333335518836975)
(X_259  0.3911764919757843)
(X_260  0.3068627417087555)
(X_261  0.2754901945590973)
(X_262  0.240196093916893)
(X_263  0.344117671251297)
(X_264  0.3911764919757843)
(X_265  0.41862747073173523)
(X_266  0.3637255132198334)
(X_267  0.28921568393707275)
(X_268  0.2813725471496582)
(X_269  0.28921568393707275)
(X_270  0.29313725233078003)
(X_271  0.19705882668495178)
(X_272  0.18529412150382996)
(X_273  0.16568627953529358)
(X_274  0.13823530077934265)
(X_275  0.12254902720451355)
(X_276  0.22647058963775635)
(X_277  0.14215686917304993)
(X_278  0.14215686917304993)
(X_279  0.12647059559822083)
(X_280  0.4382353127002716)
(X_281  0.43431374430656433)
(X_282  0.3343137204647064)
(X_283  0.34215685725212097)
(X_284  0.3578431308269501)
(X_285  0.4696078598499298)
(X_286  0.46568629145622253)
(X_287  0.4539215862751007)
(X_288  0.37745097279548645)
(X_289  0.37745097279548645)
(X_290  0.3696078360080719)
(X_291  0.3539215624332428)
(X_292  0.3499999940395355)
(X_293  0.3382352888584137)
(X_294  0.3029411733150482)
(X_295  0.26764705777168274)
(X_296  0.3911764919757843)
(X_297  0.3068627417087555)
(X_298  0.33039215207099915)
(X_299  0.3539215624332428)
(X_300  0.3499999940395355)
(X_301  0.41470590233802795)
(X_302  0.3598039448261261)
(X_303  0.21274511516094208)
(X_304  0.3598039448261261)
(X_305  0.3029411733150482)
(X_306  0.3382352888584137)
(X_307  0.3382352888584137)
(X_308  0.41470590233802795)
(X_309  0.41862747073173523)
(X_310  0.41470590233802795)
(X_311  0.3068627417087555)
(X_312  0.31470587849617004)
(X_313  0.32647058367729187)
(X_314  0.3225490152835846)
(X_315  0.3068627417087555)
(X_316  0.2911764681339264)
(X_317  0.3029411733150482)
(X_318  0.3068627417087555)
(X_319  0.3911764919757843)
(X_320  0.3794117867946625)
(X_321  0.2872548997402191)
(X_322  0.3029411733150482)
(X_323  0.3225490152835846)
(X_324  0.27941176295280457)
(X_325  0.2911764681339264)
(X_326  0.3186274468898773)
(X_327  0.34607842564582825)
(X_328  0.44607844948768616)
(X_329  0.29901960492134094)
(X_330  0.3245098292827606)
(X_331  0.2656862735748291)
(X_332  0.2598039209842682)
(X_333  0.32647058367729187)
(X_334  0.3892156779766083)
(X_335  0.40882351994514465)
(X_336  0.26372548937797546)
(X_337  0.3911764919757843)
(X_338  0.4107843339443207)
(X_339  0.39901962876319885)
(X_340  0.387254923582077)
(X_341  0.38333335518836975)
(X_342  0.27156862616539)
(X_343  0.25196078419685364)
(X_344  0.4539215862751007)
(X_345  0.3950980603694916)
(X_346  0.3480392396450043)
(X_347  0.2558823525905609)
(X_348  0.31078431010246277)
(X_349  0.3578431308269501)
(X_350  0.3696078360080719)
(X_351  0.46568629145622253)
(X_352  0.41862747073173523)
(X_353  0.4225490391254425)
(X_354  0.33039215207099915)
(X_355  0.34215685725212097)
(X_356  0.33039215207099915)
(X_357  0.38333335518836975)
(X_358  0.3088235557079315)
(X_359  0.2539215683937073)
(X_360  0.1931372582912445)
(X_361  0.2598039209842682)
(X_362  0.32647058367729187)
(X_363  0.3382352888584137)
(X_364  0.24803923070430756)
(X_365  0.26372548937797546)
(X_366  0.3480392396450043)
(X_367  0.31666669249534607)
(X_368  0.31666669249534607)
(X_369  0.26372548937797546)
(X_370  0.3068627417087555)
(X_371  0.3186274468898773)
(X_372  0.31470587849617004)
(X_373  0.26372548937797546)
(X_374  0.30490198731422424)
(X_375  0.27352941036224365)
(X_376  0.25784313678741455)
(X_377  0.14215686917304993)
(X_378  0.13431373238563538)
(X_379  0.13823530077934265)
(X_380  0.2598039209842682)
(X_381  0.3598039448261261)
(X_382  0.3637255132198334)
(X_383  0.3715686500072479)
(X_384  0.26764705777168274)
(X_385  0.240196093916893)
(X_386  0.19705882668495178)
(X_387  0.1617647111415863)
(X_388  0.29313725233078003)
(X_389  0.3558823764324188)
(X_390  0.31470587849617004)
(X_391  0.4225490391254425)
(X_392  0.28921568393707275)
(X_393  0.29313725233078003)
(X_394  0.2656862735748291)
(X_395  0.23823529481887817)
(X_396  0.2696078419685364)
(X_397  0.35196080803871155)
(X_398  0.4068627655506134)
(X_399  0.41470590233802795)
(X_400  0.3794117867946625)
(X_401  0.3911764919757843)
(X_402  0.40294119715690613)
(X_403  0.387254923582077)
(X_404  0.32058826088905334)
(X_405  0.15000000596046448)
(X_406  0.13431373238563538)
(X_407  0.15392157435417175)
(X_408  0.10686275362968445)
(X_409  0.11078432202339172)
(X_410  0.2186274528503418)
(X_411  0.22254902124404907)
(X_412  0.21470588445663452)
(X_413  0.19901961088180542)
(X_414  0.17941176891326904)
(X_415  0.16764706373214722)
(X_416  0.13823530077934265)
(X_417  0.1931372582912445)
(X_418  0.240196093916893)
(X_419  0.25196078419685364)
(X_420  0.3656862676143646)
(X_421  0.3735294044017792)
(X_422  0.3539215624332428)
(X_423  0.31078431010246277)
(X_424  0.2911764681339264)
(X_425  0.26764705777168274)
(X_426  0.18921568989753723)
(X_427  0.2029411792755127)
(X_428  0.0990196168422699)
(X_429  0.2186274528503418)
(X_430  0.18529412150382996)
(X_431  0.28333333134651184)
(X_432  0.3382352888584137)
(X_433  0.4264706075191498)
(X_434  0.27941176295280457)
(X_435  0.25196078419685364)
(X_436  0.22843138873577118)
(X_437  0.33235296607017517)
(X_438  0.3245098292827606)
(X_439  0.30490198731422424)
(X_440  0.27352941036224365)
(X_441  0.24215686321258545)
(X_442  0.11862745881080627)
(X_443  0.10686275362968445)
(X_444  0.07549020648002625)
(X_445  0.114705890417099)
(X_446  0.15000000596046448)
(X_447  0.25)
(X_448  0.33627453446388245)
(X_449  0.33627453446388245)
(X_450  0.3911764919757843)
(X_451  0.46176472306251526)
(X_452  0.4696078598499298)
(X_453  0.3950980603694916)
(X_454  0.31666669249534607)
(X_455  0.28921568393707275)
(X_456  0.3245098292827606)
(X_457  0.3088235557079315)
(X_458  0.2852941155433655)
(X_459  0.2656862735748291)
(X_460  0.2813725471496582)
(X_461  0.30098041892051697)
(X_462  0.28921568393707275)
(X_463  0.2617647051811218)
(X_464  0.22058825194835663)
(X_465  0.240196093916893)
(X_466  0.27156862616539)
(X_467  0.39901962876319885)
(X_468  0.39901962876319885)
(X_469  0.3637255132198334)
(X_470  0.3127451241016388)
(X_471  0.2774509787559509)
(X_472  0.27352941036224365)
(X_473  0.35196080803871155)
(X_474  0.43039217591285706)
(X_475  0.4539215862751007)
(X_476  0.12254902720451355)
(X_477  0.12254902720451355)
(X_478  0.2617647051811218)
(X_479  0.22843138873577118)
(X_480  0.24803923070430756)
(X_481  0.2088235467672348)
(X_482  0.18137255311012268)
(X_483  0.2852941155433655)
(X_484  0.31666669249534607)
(X_485  0.3245098292827606)
(X_486  0.2088235467672348)
(X_487  0.1774509847164154)
(X_488  0.1617647111415863)
(X_489  0.1617647111415863)
(X_490  0.1617647111415863)
(X_491  0.2539215683937073)
(X_492  0.1774509847164154)
(X_493  0.18921568989753723)
(X_494  0.20490197837352753)
(X_495  0.3245098292827606)
(X_496  0.3284313976764679)
(X_497  0.3088235557079315)
(X_498  0.2774509787559509)
(X_499  0.2539215683937073)
(X_500  0.3127451241016388)
(X_501  0.26764705777168274)
(X_502  0.31470587849617004)
(X_503  0.3225490152835846)
(X_504  0.07941177487373352)
(X_505  0.06372549384832382)
(X_506  0.17549020051956177)
(X_507  0.10294118523597717)
(X_508  0.10686275362968445)
(X_509  0.09117648005485535)
(X_510  0.0990196168422699)
(X_511  0.12647059559822083)
(X_512  0.1460784375667572)
(X_513  0.17352941632270813)
(X_514  0.18137255311012268)
(X_515  0.14215686917304993)
(X_516  0.10294118523597717)
(X_517  0.09509804844856262)
(X_518  0.11078432202339172)
(X_519  0.12647059559822083)
(X_520  0.12647059559822083)
(X_521  0.12647059559822083)
(X_522  0.12647059559822083)
(X_523  0.1303921639919281)
(X_524  0.13823530077934265)
(X_525  0.13823530077934265)
(X_526  0.23039215803146362)
(X_527  0.22254902124404907)
(X_528  0.18529412150382996)
(X_529  0.2088235467672348)
(X_530  0.22058825194835663)
(X_531  0.20490197837352753)
(X_532  0.1872549057006836)
(X_533  0.17549020051956177)
(X_534  0.1715686321258545)
(X_535  0.1715686321258545)
(X_536  0.1558823585510254)
(X_537  0.036274511367082596)
(X_538  0.0519607849419117)
(X_539  0.07941177487373352)
(X_540  0.0676470622420311)
(X_541  0.0990196168422699)
(X_542  0.114705890417099)
(X_543  0.09117648005485535)
(X_544  0.05980392172932625)
(X_545  0.06372549384832382)
(X_546  0.08725491166114807)
(X_547  0.10294118523597717)
(X_548  0.19901961088180542)
(X_549  0.1872549057006836)
(X_550  0.07941177487373352)
(X_551  0.07941177487373352)
(X_552  0.18333333730697632)
(X_553  0.19117647409439087)
(X_554  0.19117647409439087)
(X_555  0.08725491166114807)
(X_556  0.21470588445663452)
(X_557  0.11862745881080627)
(X_558  0.21078431606292725)
(X_559  0.1872549057006836)
(X_560  0.1558823585510254)
(X_561  0.05980392172932625)
(X_562  0.1715686321258545)
(X_563  0.07941177487373352)
(X_564  0.0676470622420311)
(X_565  0.05588235333561897)
(X_566  0.06372549384832382)
(X_567  0.0833333432674408)
(X_568  0.0519607849419117)
(X_569  0.07156863063573837)
(X_570  0.07941177487373352)
(X_571  0.07156863063573837)
(X_572  0.0676470622420311)
(X_573  0.07941177487373352)
(X_574  0.09117648005485535)
(X_575  0.09117648005485535)
(X_576  0.08725491166114807)
(X_577  0.07941177487373352)
(X_578  0.07156863063573837)
(X_579  0.16764706373214722)
(X_580  0.1715686321258545)
(X_581  0.1715686321258545)
(X_582  0.16764706373214722)
(X_583  0.16372549533843994)
(X_584  0.17549020051956177)
(X_585  0.0833333432674408)
(X_586  0.07549020648002625)
(X_587  0.05980392172932625)
(X_588  0.1401960849761963)
(X_589  0.04803921654820442)
(X_590  0.06372549384832382)
(X_591  0.07549020648002625)
(X_592  0.1715686321258545)
(X_593  0.15980392694473267)
(X_594  0.15196079015731812)
(X_595  0.15196079015731812)
(X_596  0.1558823585510254)
(X_597  0.16372549533843994)
(X_598  0.06372549384832382)
(X_599  0.05588235333561897)
(X_600  0.06372549384832382)
(X_601  0.07941177487373352)
(X_602  0.07549020648002625)
(X_603  0.05980392172932625)
(X_604  0.17549020051956177)
(X_605  0.1715686321258545)
(X_606  0.16764706373214722)
(X_607  0.16764706373214722)
(X_608  0.1715686321258545)
(X_609  0.16764706373214722)
(X_610  0.1558823585510254)
(X_611  0.14803922176361084)
(X_612  0.05980392172932625)
(X_613  0.07549020648002625)
(X_614  0.17941176891326904)
(X_615  0.16764706373214722)
(X_616  0.15196079015731812)
(X_617  0.15196079015731812)
(X_618  0.15196079015731812)
(X_619  0.04803921654820442)
(X_620  0.14803922176361084)
(X_621  0.14411765336990356)
(X_622  0.03235294297337532)
(X_623  0.020588237792253494)
(X_624  0.1401960849761963)
(X_625  0.15196079015731812)
(X_626  0.15196079015731812)
(X_627  0.1401960849761963)
(X_628  0.04411764815449715)
(X_629  0.0519607849419117)
(X_630  0.04803921654820442)
(X_631  0.03235294297337532)
(X_632  0.1558823585510254)
(X_633  0.15196079015731812)
(X_634  0.14803922176361084)
(X_635  0.14803922176361084)
(X_636  0.1558823585510254)
(X_637  0.1558823585510254)
(X_638  0.15196079015731812)
(X_639  0.14411765336990356)
(X_640  0.036274511367082596)
(X_641  0.15980392694473267)
(X_642  0.1715686321258545)
(X_643  0.15980392694473267)
(X_644  0.14411765336990356)
(X_645  0.136274516582489)
(X_646  0.12450980395078659)
(X_647  0.12450980395078659)
(X_648  0.036274511367082596)
(X_649  0.05588235333561897)
(X_650  0.15196079015731812)
(X_651  0.1401960849761963)
(X_652  0.02450980618596077)
(X_653  0.04803921654820442)
(X_654  0.05588235333561897)
(X_655  0.04411764815449715)
(X_656  0.036274511367082596)
(X_657  0.04411764815449715)
(X_658  0.14803922176361084)
(X_659  0.04411764815449715)
(X_660  0.136274516582489)
(X_661  0.12843137979507446)
(X_662  0.12450980395078659)
(X_663  0.12843137979507446)
(X_664  0.036274511367082596)
(X_665  0.04411764815449715)
(X_666  0.04803921654820442)
(X_667  0.04411764815449715)
(X_668  0.02450980618596077)
(X_669  0.04803921654820442)
(X_670  0.15980392694473267)
(X_671  0.04803921654820442)
(X_672  0.136274516582489)
(X_673  0.03235294297337532)
(X_674  0.028431374579668045)
(X_675  0.12843137979507446)
(X_676  0.02450980618596077)
(X_677  0.12450980395078659)
(X_678  0.12843137979507446)
(X_679  0.12843137979507446)
(X_680  0.04019607976078987)
(X_681  0.12450980395078659)
(X_682  0.02450980618596077)
(X_683  0.04019607976078987)
(X_684  0.04411764815449715)
(X_685  0.03235294297337532)
(X_686  0.02450980618596077)
(X_687  0.028431374579668045)
(X_688  0.12450980395078659)
(X_689  0.12450980395078659)
(X_690  0.12450980395078659)
(X_691  0.02450980618596077)
(X_692  0.12450980395078659)
(X_693  0.12450980395078659)
(X_694  0.02450980618596077)
(X_695  0.12450980395078659)
(X_696  0.14411765336990356)
(X_697  0.14411765336990356)
(X_698  0.1401960849761963)
(X_699  0.1401960849761963)
(X_700  0.13235294818878174)
(X_701  0.028431374579668045)
(X_702  0.12843137979507446)
(X_703  0.12450980395078659)
(X_704  0.02450980618596077)
(X_705  0.02450980618596077)
(X_706  0.02450980618596077)
(X_707  0.02450980618596077)
(X_708  0.03235294297337532)
(X_709  0.01666666939854622)
(X_710  0.01666666939854622)
(X_711  0.03235294297337532)
(X_712  0.036274511367082596)
(X_713  0.02450980618596077)
(X_714  0.01666666939854622)
(X_715  0.020588237792253494)
(X_716  0.020588237792253494)
(X_717  0.020588237792253494)
(X_718  0.020588237792253494)
(X_719  0.020588237792253494)
(X_720  0.020588237792253494)
(X_721  0.12058823555707932)
(X_722  0.12058823555707932)
(X_723  0.12058823555707932)
(X_724  0.12450980395078659)
(X_725  0.12450980395078659)
(X_726  0.12450980395078659)
(X_727  0.12058823555707932)
(X_728  0.12450980395078659)
(X_729  0.02450980618596077)
(X_730  0.12450980395078659)
(X_731  0.12058823555707932)
(X_732  0.12058823555707932)
(X_733  0.12058823555707932)
(X_734  0.11666666716337204)
(X_735  0.11666666716337204)
(X_736  0.02450980618596077)
(X_737  0.008823529817163944)
(X_738  0.004901961423456669)
(X_739  0.020588237792253494)
(X_740  0.028431374579668045)
(X_741  0.01666666939854622)
(X_742  0.012745101936161518)
(X_743  0.01666666939854622)
(X_744  0.01666666939854622)
(X_745  0.01666666939854622)
(X_746  0.01666666939854622)
(X_747  0.01666666939854622)
(X_748  0.11666666716337204)
(X_749  0.11666666716337204)
(X_750  0.11666666716337204)
(X_751  0.11666666716337204)
(X_752  0.11666666716337204)
(X_753  0.11666666716337204)
(X_754  0.11666666716337204)
(X_755  0.11274509876966476)
(X_756  0.12058823555707932)
(X_757  0.020588237792253494)
(X_758  0.020588237792253494)
(X_759  0.020588237792253494)
(X_760  0.01666666939854622)
(X_761  0.01666666939854622)
(X_762  0.11274509876966476)
(X_763  0.11274509876966476)
(X_764  0.11666666716337204)
(X_765  0.10490196198225021)
(X_766  0.0009803927969187498)
(X_767  0.020588237792253494)
(X_768  0.028431374579668045)
(X_769  0.01666666939854622)
(X_770  0.008823529817163944)
(X_771  0.01666666939854622)
(X_772  0.012745101936161518)
(X_773  0.012745101936161518)
(X_774  0.012745101936161518)
(X_775  0.012745101936161518)
(X_776  0.012745101936161518)
(X_777  0.11274509876966476)
(X_778  0.012745101936161518)
(X_779  0.11274509876966476)
(X_780  0.02450980618596077)
(X_781  0.02450980618596077)
(X_782  0.020588237792253494)
(X_783  0.020588237792253494)
(Y_0 -24.627197265625)
(Y_1 32.90576171875)
(Y_2 -17.860563278198242)
(Y_3 11.076578140258789))