((X_0  1.0499999523162842)
(X_1  1.0499999523162842)
(X_2  1.0499999523162842)
(X_3  1.0499999523162842)
(X_4  1.0499999523162842)
(X_5  1.0499999523162842)
(X_6  0.949999988079071)
(X_7  0.949999988079071)
(X_8  0.949999988079071)
(X_9  0.949999988079071)
(X_10  1.0499999523162842)
(X_11  1.0499999523162842)
(X_12  1.0499999523162842)
(X_13  1.0499999523162842)
(X_14  1.0460784435272217)
(X_15  1.0421568155288696)
(X_16  0.949999988079071)
(X_17  0.949999988079071)
(X_18  0.949999988079071)
(X_19  0.949999988079071)
(X_20  1.0499999523162842)
(X_21  1.0499999523162842)
(X_22  1.0499999523162842)
(X_23  0.9460784196853638)
(X_24  1.0421568155288696)
(X_25  1.0421568155288696)
(X_26  1.0382353067398071)
(X_27  1.0382353067398071)
(X_28  1.0264705419540405)
(X_29  1.034313678741455)
(X_30  0.9421568512916565)
(X_31  0.9460784196853638)
(X_32  1.0460784435272217)
(X_33  0.949999988079071)
(X_34  1.0499999523162842)
(X_35  1.0499999523162842)
(X_36  1.0499999523162842)
(X_37  0.949999988079071)
(X_38  0.9460784196853638)
(X_39  0.9460784196853638)
(X_40  0.949999988079071)
(X_41  0.949999988079071)
(X_42  0.949999988079071)
(X_43  0.949999988079071)
(X_44  1.0382353067398071)
(X_45  0.9382352828979492)
(X_46  0.9382352828979492)
(X_47  0.9421568512916565)
(X_48  0.9460784196853638)
(X_49  0.949999988079071)
(X_50  0.949999988079071)
(X_51  0.949999988079071)
(X_52  1.0499999523162842)
(X_53  1.0499999523162842)
(X_54  0.949999988079071)
(X_55  1.0499999523162842)
(X_56  0.949999988079071)
(X_57  0.949999988079071)
(X_58  0.949999988079071)
(X_59  0.949999988079071)
(X_60  1.0499999523162842)
(X_61  0.949999988079071)
(X_62  0.9460784196853638)
(X_63  0.9460784196853638)
(X_64  0.949999988079071)
(X_65  0.949999988079071)
(X_66  0.9460784196853638)
(X_67  0.9421568512916565)
(X_68  0.9421568512916565)
(X_69  0.9460784196853638)
(X_70  0.949999988079071)
(X_71  0.949999988079071)
(X_72  0.949999988079071)
(X_73  0.949999988079071)
(X_74  0.949999988079071)
(X_75  0.949999988079071)
(X_76  1.0499999523162842)
(X_77  1.0499999523162842)
(X_78  0.949999988079071)
(X_79  1.0499999523162842)
(X_80  1.0499999523162842)
(X_81  1.0499999523162842)
(X_82  0.949999988079071)
(X_83  1.0499999523162842)
(X_84  1.022549033164978)
(X_85  1.034313678741455)
(X_86  1.0499999523162842)
(X_87  1.0499999523162842)
(X_88  0.949999988079071)
(X_89  0.949999988079071)
(X_90  0.949999988079071)
(X_91  0.949999988079071)
(X_92  0.949999988079071)
(X_93  0.949999988079071)
(X_94  0.949999988079071)
(X_95  0.949999988079071)
(X_96  1.0499999523162842)
(X_97  0.949999988079071)
(X_98  1.0460784435272217)
(X_99  1.0499999523162842)
(X_100  1.034313678741455)
(X_101  1.0382353067398071)
(X_102  1.0421568155288696)
(X_103  1.0421568155288696)
(X_104  0.9421568512916565)
(X_105  0.9421568512916565)
(X_106  0.9460784196853638)
(X_107  0.949999988079071)
(X_108  0.949999988079071)
(X_109  0.949999988079071)
(X_110  0.949999988079071)
(X_111  1.0499999523162842)
(X_112  0.9225490093231201)
(X_113  0.9343137145042419)
(X_114  1.0499999523162842)
(X_115  1.0499999523162842)
(X_116  0.949999988079071)
(X_117  0.949999988079071)
(X_118  0.949999988079071)
(X_119  1.0499999523162842)
(X_120  0.8990195989608765)
(X_121  0.9147058725357056)
(X_122  0.9382352828979492)
(X_123  0.949999988079071)
(X_124  0.949999988079071)
(X_125  0.9460784196853638)
(X_126  0.949999988079071)
(X_127  1.0499999523162842)
(X_128  1.0499999523162842)
(X_129  1.0499999523162842)
(X_130  1.0499999523162842)
(X_131  1.0499999523162842)
(X_132  1.0499999523162842)
(X_133  1.0499999523162842)
(X_134  1.0499999523162842)
(X_135  1.0499999523162842)
(X_136  0.949999988079071)
(X_137  0.949999988079071)
(X_138  0.9421568512916565)
(X_139  1.034313678741455)
(X_140  0.45000001788139343)
(X_141  0.49705883860588074)
(X_142  0.5715686678886414)
(X_143  0.5578431487083435)
(X_144  0.6480392217636108)
(X_145  0.7264705896377563)
(X_146  0.79313725233078)
(X_147  0.9323529601097107)
(X_148  1.022549033164978)
(X_149  1.0421568155288696)
(X_150  1.0499999523162842)
(X_151  0.949999988079071)
(X_152  0.949999988079071)
(X_153  0.9421568512916565)
(X_154  1.0382353067398071)
(X_155  1.0421568155288696)
(X_156  0.949999988079071)
(X_157  0.949999988079071)
(X_158  1.0499999523162842)
(X_159  1.0499999523162842)
(X_160  1.0460784435272217)
(X_161  0.9343137145042419)
(X_162  0.9382352828979492)
(X_163  0.9460784196853638)
(X_164  0.949999988079071)
(X_165  0.949999988079071)
(X_166  0.949999988079071)
(X_167  1.0499999523162842)
(X_168  0.12058823555707932)
(X_169  0.036274511367082596)
(X_170  0.15980392694473267)
(X_171  0.18333333730697632)
(X_172  0.2029411792755127)
(X_173  0.22647058963775635)
(X_174  0.1460784375667572)
(X_175  0.1617647111415863)
(X_176  0.32058826088905334)
(X_177  0.3754902184009552)
(X_178  0.36176469922065735)
(X_179  0.4598039388656616)
(X_180  0.5539215803146362)
(X_181  0.6480392217636108)
(X_182  0.7382352948188782)
(X_183  0.79313725233078)
(X_184  0.9401960968971252)
(X_185  0.9637255072593689)
(X_186  0.9950980544090271)
(X_187  1.0147058963775635)
(X_188  1.0264705419540405)
(X_189  0.9460784196853638)
(X_190  0.949999988079071)
(X_191  1.0499999523162842)
(X_192  1.0264705419540405)
(X_193  0.9343137145042419)
(X_194  0.9421568512916565)
(X_195  0.949999988079071)
(X_196  0.05588235333561897)
(X_197  0.1558823585510254)
(X_198  0.05980392172932625)
(X_199  0.05588235333561897)
(X_200  0.04803921654820442)
(X_201  0.14803922176361084)
(X_202  0.1558823585510254)
(X_203  0.06372549384832382)
(X_204  0.04019607976078987)
(X_205  0.15196079015731812)
(X_206  0.16372549533843994)
(X_207  0.16372549533843994)
(X_208  0.06372549384832382)
(X_209  0.0833333432674408)
(X_210  0.11862745881080627)
(X_211  0.15000000596046448)
(X_212  0.31666669249534607)
(X_213  0.26764705777168274)
(X_214  0.34607842564582825)
(X_215  0.42450979351997375)
(X_216  0.5029411911964417)
(X_217  0.5852941274642944)
(X_218  0.7598039507865906)
(X_219  0.8147059082984924)
(X_220  0.9284313917160034)
(X_221  0.9480392336845398)
(X_222  0.8794117569923401)
(X_223  1.0107842683792114)
(X_224  0.008823529817163944)
(X_225  0.02450980618596077)
(X_226  0.1401960849761963)
(X_227  0.1401960849761963)
(X_228  0.1401960849761963)
(X_229  0.14411765336990356)
(X_230  0.06372549384832382)
(X_231  0.0833333432674408)
(X_232  0.04803921654820442)
(X_233  0.04019607976078987)
(X_234  0.03235294297337532)
(X_235  0.03235294297337532)
(X_236  0.04019607976078987)
(X_237  0.0519607849419117)
(X_238  0.06372549384832382)
(X_239  0.07156863063573837)
(X_240  0.06372549384832382)
(X_241  0.0676470622420311)
(X_242  0.17941176891326904)
(X_243  0.19509804248809814)
(X_244  0.19117647409439087)
(X_245  0.1872549057006836)
(X_246  0.2186274528503418)
(X_247  0.2539215683937073)
(X_248  0.17352941632270813)
(X_249  0.31666669249534607)
(X_250  0.2754901945590973)
(X_251  0.32647058367729187)
(X_252  0.0676470622420311)
(X_253  0.04803921654820442)
(X_254  0.036274511367082596)
(X_255  0.04019607976078987)
(X_256  0.0519607849419117)
(X_257  0.15196079015731812)
(X_258  0.12843137979507446)
(X_259  0.0009803927969187498)
(X_260  0.02450980618596077)
(X_261  0.04411764815449715)
(X_262  0.05980392172932625)
(X_263  0.05980392172932625)
(X_264  0.04411764815449715)
(X_265  0.028431374579668045)
(X_266  0.020588237792253494)
(X_267  0.02450980618596077)
(X_268  0.028431374579668045)
(X_269  0.12058823555707932)
(X_270  0.12843137979507446)
(X_271  0.136274516582489)
(X_272  0.136274516582489)
(X_273  0.12843137979507446)
(X_274  0.14411765336990356)
(X_275  0.0676470622420311)
(X_276  0.1558823585510254)
(X_277  0.15196079015731812)
(X_278  0.0519607849419117)
(X_279  0.05980392172932625)
(X_280  0.14411765336990356)
(X_281  0.136274516582489)
(X_282  0.12843137979507446)
(X_283  0.028431374579668045)
(X_284  0.04019607976078987)
(X_285  0.14803922176361084)
(X_286  0.15196079015731812)
(X_287  0.1558823585510254)
(X_288  0.114705890417099)
(X_289  0.11862745881080627)
(X_290  0.10686275362968445)
(X_291  0.07156863063573837)
(X_292  0.04019607976078987)
(X_293  0.036274511367082596)
(X_294  0.06372549384832382)
(X_295  0.09117648005485535)
(X_296  0.18333333730697632)
(X_297  0.06372549384832382)
(X_298  0.15980392694473267)
(X_299  0.07156863063573837)
(X_300  0.16764706373214722)
(X_301  0.14803922176361084)
(X_302  0.136274516582489)
(X_303  0.036274511367082596)
(X_304  0.04019607976078987)
(X_305  0.036274511367082596)
(X_306  0.03235294297337532)
(X_307  0.04411764815449715)
(X_308  0.12058823555707932)
(X_309  0.04803921654820442)
(X_310  0.0676470622420311)
(X_311  0.04803921654820442)
(X_312  0.11666666716337204)
(X_313  0.13235294818878174)
(X_314  0.19901961088180542)
(X_315  0.2617647051811218)
(X_316  0.38333335518836975)
(X_317  0.3754902184009552)
(X_318  0.35196080803871155)
(X_319  0.3088235557079315)
(X_320  0.15000000596046448)
(X_321  0.10294118523597717)
(X_322  0.07941177487373352)
(X_323  0.07156863063573837)
(X_324  0.10686275362968445)
(X_325  0.09509804844856262)
(X_326  0.2029411792755127)
(X_327  0.23823529481887817)
(X_328  0.25784313678741455)
(X_329  0.24215686321258545)
(X_330  0.21470588445663452)
(X_331  0.19901961088180542)
(X_332  0.0676470622420311)
(X_333  0.05980392172932625)
(X_334  0.0519607849419117)
(X_335  0.04019607976078987)
(X_336  0.3127451241016388)
(X_337  0.3401961028575897)
(X_338  0.35196080803871155)
(X_339  0.3284313976764679)
(X_340  0.28921568393707275)
(X_341  0.2774509787559509)
(X_342  0.30490198731422424)
(X_343  0.240196093916893)
(X_344  0.21078431606292725)
(X_345  0.28921568393707275)
(X_346  0.31078431010246277)
(X_347  0.42843136191368103)
(X_348  0.479411780834198)
(X_349  0.44411763548851013)
(X_350  0.36176469922065735)
(X_351  0.3911764919757843)
(X_352  0.3088235557079315)
(X_353  0.3088235557079315)
(X_354  0.3401961028575897)
(X_355  0.39901962876319885)
(X_356  0.4382353127002716)
(X_357  0.43431374430656433)
(X_358  0.40294119715690613)
(X_359  0.28333333134651184)
(X_360  0.45000001788139343)
(X_361  0.43039217591285706)
(X_362  0.387254923582077)
(X_363  0.33627453446388245)
(X_364  0.3343137204647064)
(X_365  0.3225490152835846)
(X_366  0.41470590233802795)
(X_367  0.3343137204647064)
(X_368  0.45000001788139343)
(X_369  0.4264706075191498)
(X_370  0.26764705777168274)
(X_371  0.21666668355464935)
(X_372  0.16372549533843994)
(X_373  0.23823529481887817)
(X_374  0.3558823764324188)
(X_375  0.4735294282436371)
(X_376  0.42843136191368103)
(X_377  0.385294109582901)
(X_378  0.27941176295280457)
(X_379  0.18921568989753723)
(X_380  0.21274511516094208)
(X_381  0.30490198731422424)
(X_382  0.32058826088905334)
(X_383  0.3598039448261261)
(X_384  0.28333333134651184)
(X_385  0.26372548937797546)
(X_386  0.3284313976764679)
(X_387  0.30490198731422424)
(X_388  0.41470590233802795)
(X_389  0.41862747073173523)
(X_390  0.3186274468898773)
(X_391  0.4068627655506134)
(X_392  0.3284313976764679)
(X_393  0.30098041892051697)
(X_394  0.19705882668495178)
(X_395  0.24411766231060028)
(X_396  0.39901962876319885)
(X_397  0.3950980603694916)
(X_398  0.22058825194835663)
(X_399  0.1460784375667572)
(X_400  0.1774509847164154)
(X_401  0.19705882668495178)
(X_402  0.240196093916893)
(X_403  0.3068627417087555)
(X_404  0.3813725411891937)
(X_405  0.4362744987010956)
(X_406  0.4598039388656616)
(X_407  0.46764707565307617)
(X_408  0.5009803771972656)
(X_409  0.47745099663734436)
(X_410  0.4696078598499298)
(X_411  0.47745099663734436)
(X_412  0.4735294282436371)
(X_413  0.45000001788139343)
(X_414  0.4264706075191498)
(X_415  0.41862747073173523)
(X_416  0.2558823525905609)
(X_417  0.240196093916893)
(X_418  0.23235295712947845)
(X_419  0.240196093916893)
(X_420  0.3088235557079315)
(X_421  0.1931372582912445)
(X_422  0.1931372582912445)
(X_423  0.2245098203420639)
(X_424  0.26372548937797546)
(X_425  0.2754901945590973)
(X_426  0.344117671251297)
(X_427  0.3088235557079315)
(X_428  0.31666669249534607)
(X_429  0.20490197837352753)
(X_430  0.20098040997982025)
(X_431  0.22843138873577118)
(X_432  0.3029411733150482)
(X_433  0.4166666567325592)
(X_434  0.5382353067398071)
(X_435  0.6127451062202454)
(X_436  0.6735294461250305)
(X_437  0.6500000357627869)
(X_438  0.638235330581665)
(X_439  0.6421568989753723)
(X_440  0.6500000357627869)
(X_441  0.6460784673690796)
(X_442  0.5539215803146362)
(X_443  0.5696078538894653)
(X_444  0.4990196228027344)
(X_445  0.39313724637031555)
(X_446  0.2598039209842682)
(X_447  0.18529412150382996)
(X_448  0.3715686500072479)
(X_449  0.4264706075191498)
(X_450  0.3735294044017792)
(X_451  0.4166666567325592)
(X_452  0.6029412150382996)
(X_453  0.6813725829124451)
(X_454  0.6617647409439087)
(X_455  0.5872549414634705)
(X_456  0.4852941334247589)
(X_457  0.47745099663734436)
(X_458  0.43431374430656433)
(X_459  0.26764705777168274)
(X_460  0.2245098203420639)
(X_461  0.26372548937797546)
(X_462  0.3735294044017792)
(X_463  0.47156864404678345)
(X_464  0.4637255072593689)
(X_465  0.4833333492279053)
(X_466  0.5460784435272217)
(X_467  0.708823561668396)
(X_468  0.7127451300621033)
(X_469  0.6813725829124451)
(X_470  0.6931372880935669)
(X_471  0.7362745404243469)
(X_472  0.6696078777313232)
(X_473  0.6068627834320068)
(X_474  0.5480391979217529)
(X_475  0.5323529243469238)
(X_476  0.3499999940395355)
(X_477  0.5166666507720947)
(X_478  0.5676470994949341)
(X_479  0.5794118046760559)
(X_480  0.4990196228027344)
(X_481  0.5107843279838562)
(X_482  0.4480392038822174)
(X_483  0.46176472306251526)
(X_484  0.49313727021217346)
(X_485  0.5009803771972656)
(X_486  0.385294109582901)
(X_487  0.34215685725212097)
(X_488  0.29901960492134094)
(X_489  0.29901960492134094)
(X_490  0.3539215624332428)
(X_491  0.4049019515514374)
(X_492  0.46764707565307617)
(X_493  0.5598039627075195)
(X_494  0.5715686678886414)
(X_495  0.5872549414634705)
(X_496  0.5676470994949341)
(X_497  0.5362744927406311)
(X_498  0.5598039627075195)
(X_499  0.5107843279838562)
(X_500  0.6186274886131287)
(X_501  0.5421568751335144)
(X_502  0.6009804010391235)
(X_503  0.6754902005195618)
(X_504  0.3911764919757843)
(X_505  0.32647058367729187)
(X_506  0.33039215207099915)
(X_507  0.2911764681339264)
(X_508  0.2754901945590973)
(X_509  0.3794117867946625)
(X_510  0.35196080803871155)
(X_511  0.2970588207244873)
(X_512  0.20490197837352753)
(X_513  0.32058826088905334)
(X_514  0.33235296607017517)
(X_515  0.2245098203420639)
(X_516  0.2088235467672348)
(X_517  0.2088235467672348)
(X_518  0.23235295712947845)
(X_519  0.2558823525905609)
(X_520  0.3225490152835846)
(X_521  0.31078431010246277)
(X_522  0.4107843339443207)
(X_523  0.31470587849617004)
(X_524  0.29509803652763367)
(X_525  0.3754902184009552)
(X_526  0.39901962876319885)
(X_527  0.44607844948768616)
(X_528  0.36764708161354065)
(X_529  0.33039215207099915)
(X_530  0.42843136191368103)
(X_531  0.5107843279838562)
(X_532  0.3480392396450043)
(X_533  0.3480392396450043)
(X_534  0.31666669249534607)
(X_535  0.2656862735748291)
(X_536  0.15784314274787903)
(X_537  0.1774509847164154)
(X_538  0.16568627953529358)
(X_539  0.1303921639919281)
(X_540  0.09509804844856262)
(X_541  0.19509804248809814)
(X_542  0.19901961088180542)
(X_543  0.2029411792755127)
(X_544  0.21470588445663452)
(X_545  0.13431373238563538)
(X_546  0.15784314274787903)
(X_547  0.17352941632270813)
(X_548  0.2539215683937073)
(X_549  0.25784313678741455)
(X_550  0.18137255311012268)
(X_551  0.30098041892051697)
(X_552  0.28921568393707275)
(X_553  0.2656862735748291)
(X_554  0.16960784792900085)
(X_555  0.1931372582912445)
(X_556  0.25)
(X_557  0.1931372582912445)
(X_558  0.3637255132198334)
(X_559  0.41862747073173523)
(X_560  0.31666669249534607)
(X_561  0.21274511516094208)
(X_562  0.1931372582912445)
(X_563  0.17352941632270813)
(X_564  0.18137255311012268)
(X_565  0.18137255311012268)
(X_566  0.1303921639919281)
(X_567  0.06372549384832382)
(X_568  0.0990196168422699)
(X_569  0.1872549057006836)
(X_570  0.17549020051956177)
(X_571  0.1715686321258545)
(X_572  0.07549020648002625)
(X_573  0.0833333432674408)
(X_574  0.08725491166114807)
(X_575  0.09117648005485535)
(X_576  0.11078432202339172)
(X_577  0.12254902720451355)
(X_578  0.14215686917304993)
(X_579  0.15000000596046448)
(X_580  0.13431373238563538)
(X_581  0.10686275362968445)
(X_582  0.19117647409439087)
(X_583  0.19509804248809814)
(X_584  0.18333333730697632)
(X_585  0.08725491166114807)
(X_586  0.10686275362968445)
(X_587  0.13823530077934265)
(X_588  0.23823529481887817)
(X_589  0.114705890417099)
(X_590  0.08725491166114807)
(X_591  0.07941177487373352)
(X_592  0.10294118523597717)
(X_593  0.12254902720451355)
(X_594  0.08725491166114807)
(X_595  0.1401960849761963)
(X_596  0.14803922176361084)
(X_597  0.14803922176361084)
(X_598  0.14803922176361084)
(X_599  0.0519607849419117)
(X_600  0.0519607849419117)
(X_601  0.04019607976078987)
(X_602  0.028431374579668045)
(X_603  0.01666666939854622)
(X_604  0.1872549057006836)
(X_605  0.1872549057006836)
(X_606  0.1872549057006836)
(X_607  0.17941176891326904)
(X_608  0.1715686321258545)
(X_609  0.16372549533843994)
(X_610  0.16764706373214722)
(X_611  0.17549020051956177)
(X_612  0.11078432202339172)
(X_613  0.09117648005485535)
(X_614  0.08725491166114807)
(X_615  0.2029411792755127)
(X_616  0.19509804248809814)
(X_617  0.1715686321258545)
(X_618  0.036274511367082596)
(X_619  0.02450980618596077)
(X_620  0.04803921654820442)
(X_621  0.0833333432674408)
(X_622  0.19117647409439087)
(X_623  0.17549020051956177)
(X_624  0.12450980395078659)
(X_625  0.13235294818878174)
(X_626  0.1401960849761963)
(X_627  0.15196079015731812)
(X_628  0.05588235333561897)
(X_629  0.0519607849419117)
(X_630  0.04803921654820442)
(X_631  0.04411764815449715)
(X_632  0.136274516582489)
(X_633  0.036274511367082596)
(X_634  0.03235294297337532)
(X_635  0.028431374579668045)
(X_636  0.028431374579668045)
(X_637  0.14411765336990356)
(X_638  0.15980392694473267)
(X_639  0.0676470622420311)
(X_640  0.04019607976078987)
(X_641  0.03235294297337532)
(X_642  0.14411765336990356)
(X_643  0.17549020051956177)
(X_644  0.04803921654820442)
(X_645  0.05588235333561897)
(X_646  0.16372549533843994)
(X_647  0.16764706373214722)
(X_648  0.16764706373214722)
(X_649  0.05980392172932625)
(X_650  0.136274516582489)
(X_651  0.11274509876966476)
(X_652  0.12843137979507446)
(X_653  0.12450980395078659)
(X_654  0.11666666716337204)
(X_655  0.10882353037595749)
(X_656  0.008823529817163944)
(X_657  0.01666666939854622)
(X_658  0.028431374579668045)
(X_659  0.036274511367082596)
(X_660  0.13235294818878174)
(X_661  0.1401960849761963)
(X_662  0.1401960849761963)
(X_663  0.136274516582489)
(X_664  0.03235294297337532)
(X_665  0.1401960849761963)
(X_666  0.1401960849761963)
(X_667  0.036274511367082596)
(X_668  0.05588235333561897)
(X_669  0.04803921654820442)
(X_670  0.15196079015731812)
(X_671  0.06372549384832382)
(X_672  0.12450980395078659)
(X_673  0.028431374579668045)
(X_674  0.028431374579668045)
(X_675  0.028431374579668045)
(X_676  0.03235294297337532)
(X_677  0.03235294297337532)
(X_678  0.13235294818878174)
(X_679  0.03235294297337532)
(X_680  0.12450980395078659)
(X_681  0.12450980395078659)
(X_682  0.12058823555707932)
(X_683  0.01666666939854622)
(X_684  0.11666666716337204)
(X_685  0.020588237792253494)
(X_686  0.02450980618596077)
(X_687  0.02450980618596077)
(X_688  0.13235294818878174)
(X_689  0.12843137979507446)
(X_690  0.02450980618596077)
(X_691  0.020588237792253494)
(X_692  0.02450980618596077)
(X_693  0.028431374579668045)
(X_694  0.036274511367082596)
(X_695  0.04019607976078987)
(X_696  0.136274516582489)
(X_697  0.136274516582489)
(X_698  0.1401960849761963)
(X_699  0.14411765336990356)
(X_700  0.11274509876966476)
(X_701  0.01666666939854622)
(X_702  0.11666666716337204)
(X_703  0.11666666716337204)
(X_704  0.12058823555707932)
(X_705  0.12058823555707932)
(X_706  0.020588237792253494)
(X_707  0.02450980618596077)
(X_708  0.020588237792253494)
(X_709  0.020588237792253494)
(X_710  0.01666666939854622)
(X_711  0.012745101936161518)
(X_712  0.012745101936161518)
(X_713  0.01666666939854622)
(X_714  0.020588237792253494)
(X_715  0.020588237792253494)
(X_716  0.12843137979507446)
(X_717  0.12450980395078659)
(X_718  0.020588237792253494)
(X_719  0.020588237792253494)
(X_720  0.12058823555707932)
(X_721  0.12450980395078659)
(X_722  0.13235294818878174)
(X_723  0.136274516582489)
(X_724  0.12450980395078659)
(X_725  0.12843137979507446)
(X_726  0.13235294818878174)
(X_727  0.136274516582489)
(X_728  0.10098039358854294)
(X_729  0.0009803927969187498)
(X_730  0.10098039358854294)
(X_731  0.10490196198225021)
(X_732  0.10490196198225021)
(X_733  0.008823529817163944)
(X_734  0.10882353037595749)
(X_735  0.10882353037595749)
(X_736  0.11666666716337204)
(X_737  0.11274509876966476)
(X_738  0.008823529817163944)
(X_739  0.008823529817163944)
(X_740  0.008823529817163944)
(X_741  0.008823529817163944)
(X_742  0.012745101936161518)
(X_743  0.01666666939854622)
(X_744  0.020588237792253494)
(X_745  0.01666666939854622)
(X_746  0.11666666716337204)
(X_747  0.01666666939854622)
(X_748  0.01666666939854622)
(X_749  0.020588237792253494)
(X_750  0.02450980618596077)
(X_751  0.028431374579668045)
(X_752  0.11274509876966476)
(X_753  0.11666666716337204)
(X_754  0.12058823555707932)
(X_755  0.12450980395078659)
(X_756  0.09313725680112839)
(X_757  0.09705882519483566)
(X_758  0.09705882519483566)
(X_759  0.09705882519483566)
(X_760  0.0009803927969187498)
(X_761  0.0009803927969187498)
(X_762  0.0009803927969187498)
(X_763  0.0009803927969187498)
(X_764  0.008823529817163944)
(X_765  0.10882353037595749)
(X_766  0.004901961423456669)
(X_767  0.0009803927969187498)
(X_768  0.0009803927969187498)
(X_769  0.004901961423456669)
(X_770  0.008823529817163944)
(X_771  0.008823529817163944)
(X_772  0.012745101936161518)
(X_773  0.012745101936161518)
(X_774  0.012745101936161518)
(X_775  0.012745101936161518)
(X_776  0.11274509876966476)
(X_777  0.11666666716337204)
(X_778  0.11666666716337204)
(X_779  0.12058823555707932)
(X_780  0.008823529817163944)
(X_781  0.012745101936161518)
(X_782  0.01666666939854622)
(X_783  0.12058823555707932)
(Y_0 -44.85313415527344)
(Y_1 48.34010696411133)
(Y_2 -35.162445068359375)
(Y_3 33.39546585083008))