((X_0  1.0303921699523926)
(X_1  0.9343137145042419)
(X_2  0.9421568512916565)
(X_3  0.949999988079071)
(X_4  0.949999988079071)
(X_5  0.949999988079071)
(X_6  0.9460784196853638)
(X_7  0.9421568512916565)
(X_8  1.0303921699523926)
(X_9  1.0303921699523926)
(X_10  1.034313678741455)
(X_11  1.0460784435272217)
(X_12  1.0499999523162842)
(X_13  1.0499999523162842)
(X_14  1.0499999523162842)
(X_15  0.9460784196853638)
(X_16  0.949999988079071)
(X_17  0.949999988079071)
(X_18  0.949999988079071)
(X_19  0.9421568512916565)
(X_20  1.0460784435272217)
(X_21  1.0499999523162842)
(X_22  1.0499999523162842)
(X_23  1.0421568155288696)
(X_24  1.0382353067398071)
(X_25  1.0460784435272217)
(X_26  0.949999988079071)
(X_27  0.949999988079071)
(X_28  1.0499999523162842)
(X_29  1.0145896673202515)
(X_30  0.949999988079071)
(X_31  0.949999988079071)
(X_32  0.949999988079071)
(X_33  0.949999988079071)
(X_34  1.0499999523162842)
(X_35  1.0499999523162842)
(X_36  1.0499999523162842)
(X_37  1.0499999523162842)
(X_38  0.949999988079071)
(X_39  0.949999988079071)
(X_40  0.949999988079071)
(X_41  1.006746530532837)
(X_42  1.034313678741455)
(X_43  0.9303921461105347)
(X_44  1.034313678741455)
(X_45  1.0460784435272217)
(X_46  1.0499999523162842)
(X_47  0.9421568512916565)
(X_48  0.9460784196853638)
(X_49  0.949999988079071)
(X_50  0.949999988079071)
(X_51  0.9382352828979492)
(X_52  1.0303921699523926)
(X_53  1.0382353067398071)
(X_54  1.0167568922042847)
(X_55  1.0460784435272217)
(X_56  0.4068627655506134)
(X_57  0.34215685725212097)
(X_58  0.41274508833885193)
(X_59  0.5029411911964417)
(X_60  0.6049019694328308)
(X_61  0.6990196108818054)
(X_62  0.7735294103622437)
(X_63  0.8127450942993164)
(X_64  0.9109581708908081)
(X_65  0.8794117569923401)
(X_66  1.0029411315917969)
(X_67  1.018627405166626)
(X_68  1.0264705419540405)
(X_69  0.9382352828979492)
(X_70  0.949999988079071)
(X_71  1.0499999523162842)
(X_72  0.9343137145042419)
(X_73  0.949999988079071)
(X_74  0.949999988079071)
(X_75  0.949999988079071)
(X_76  0.949999988079071)
(X_77  1.0499999523162842)
(X_78  1.0145896673202515)
(X_79  1.0382353067398071)
(X_80  1.0499999523162842)
(X_81  1.0499999523162842)
(X_82  1.0499999523162842)
(X_83  1.0499999523162842)
(X_84  0.25784313678741455)
(X_85  0.25784313678741455)
(X_86  0.25784313678741455)
(X_87  0.25784313678741455)
(X_88  0.16568627953529358)
(X_89  0.1774509847164154)
(X_90  0.18921568989753723)
(X_91  0.19705882668495178)
(X_92  0.27156862616539)
(X_93  0.3225490152835846)
(X_94  0.3970588147640228)
(X_95  0.5715686678886414)
(X_96  0.638235330581665)
(X_97  0.708823561668396)
(X_98  0.7833333611488342)
(X_99  0.8303921818733215)
(X_100  0.9401960968971252)
(X_101  0.9676470756530762)
(X_102  0.9911764860153198)
(X_103  0.9675309062004089)
(X_104  0.9186274409294128)
(X_105  0.9421568512916565)
(X_106  0.949999988079071)
(X_107  0.949999988079071)
(X_108  0.9225490093231201)
(X_109  0.9382352828979492)
(X_110  0.949999988079071)
(X_111  1.0499999523162842)
(X_112  0.1303921639919281)
(X_113  0.22647058963775635)
(X_114  0.2186274528503418)
(X_115  0.14402741193771362)
(X_116  0.11078432202339172)
(X_117  0.114705890417099)
(X_118  0.11862745881080627)
(X_119  0.12254902720451355)
(X_120  0.1303921639919281)
(X_121  0.1460784375667572)
(X_122  0.15784314274787903)
(X_123  0.15000000596046448)
(X_124  0.13431373238563538)
(X_125  0.12647059559822083)
(X_126  0.14215686917304993)
(X_127  0.25784313678741455)
(X_128  0.2813725471496582)
(X_129  0.33235296607017517)
(X_130  0.40294119715690613)
(X_131  0.4696078598499298)
(X_132  0.551960825920105)
(X_133  0.6500000357627869)
(X_134  0.7205882668495178)
(X_135  0.751960813999176)
(X_136  0.8735294342041016)
(X_137  0.869491696357727)
(X_138  0.8773607015609741)
(X_139  0.9872549176216125)
(X_140  0.19322749972343445)
(X_141  0.22647058963775635)
(X_142  0.22647058963775635)
(X_143  0.23039215803146362)
(X_144  0.13823530077934265)
(X_145  0.14215686917304993)
(X_146  0.15000000596046448)
(X_147  0.2539215683937073)
(X_148  0.21470588445663452)
(X_149  0.22647058963775635)
(X_150  0.23823529481887817)
(X_151  0.23823529481887817)
(X_152  0.2343137264251709)
(X_153  0.24215686321258545)
(X_154  0.25784313678741455)
(X_155  0.27352941036224365)
(X_156  0.20674660801887512)
(X_157  0.2656862735748291)
(X_158  0.2696078419685364)
(X_159  0.25)
(X_160  0.24215686321258545)
(X_161  0.15392157435417175)
(X_162  0.16960784792900085)
(X_163  0.27352941036224365)
(X_164  0.30098041892051697)
(X_165  0.23235295712947845)
(X_166  0.28333333134651184)
(X_167  0.4225490391254425)
(X_168  0.201070636510849)
(X_169  0.23039215803146362)
(X_170  0.13431373238563538)
(X_171  0.1697239875793457)
(X_172  0.1697239875793457)
(X_173  0.13431373238563538)
(X_174  0.1303921639919281)
(X_175  0.1303921639919281)
(X_176  0.2343137264251709)
(X_177  0.2343137264251709)
(X_178  0.23039215803146362)
(X_179  0.23039215803146362)
(X_180  0.23039215803146362)
(X_181  0.13431373238563538)
(X_182  0.13823530077934265)
(X_183  0.1460784375667572)
(X_184  0.21078431606292725)
(X_185  0.23823529481887817)
(X_186  0.2539215683937073)
(X_187  0.24215686321258545)
(X_188  0.2343137264251709)
(X_189  0.1460784375667572)
(X_190  0.15784314274787903)
(X_191  0.2617647051811218)
(X_192  0.22254902124404907)
(X_193  0.24215686321258545)
(X_194  0.16960784792900085)
(X_195  0.18921568989753723)
(X_196  0.11862745881080627)
(X_197  0.22254902124404907)
(X_198  0.15579211711883545)
(X_199  0.13431373238563538)
(X_200  0.13431373238563538)
(X_201  0.1303921639919281)
(X_202  0.12647059559822083)
(X_203  0.12254902720451355)
(X_204  0.13431373238563538)
(X_205  0.12647059559822083)
(X_206  0.2186274528503418)
(X_207  0.22254902124404907)
(X_208  0.1303921639919281)
(X_209  0.13823530077934265)
(X_210  0.14215686917304993)
(X_211  0.23823529481887817)
(X_212  0.20686274766921997)
(X_213  0.24215686321258545)
(X_214  0.2617647051811218)
(X_215  0.24607843160629272)
(X_216  0.22647058963775635)
(X_217  0.22254902124404907)
(X_218  0.22254902124404907)
(X_219  0.2186274528503418)
(X_220  0.2186274528503418)
(X_221  0.1697239875793457)
(X_222  0.15000000596046448)
(X_223  0.25784313678741455)
(X_224  0.09509804844856262)
(X_225  0.20282503962516785)
(X_226  0.23823529481887817)
(X_227  0.23039215803146362)
(X_228  0.13823530077934265)
(X_229  0.114705890417099)
(X_230  0.09509804844856262)
(X_231  0.12254902720451355)
(X_232  0.22254902124404907)
(X_233  0.15000000596046448)
(X_234  0.19108623266220093)
(X_235  0.1460784375667572)
(X_236  0.14215686917304993)
(X_237  0.15000000596046448)
(X_238  0.14215686917304993)
(X_239  0.12254902720451355)
(X_240  0.13431373238563538)
(X_241  0.21458974480628967)
(X_242  0.2539215683937073)
(X_243  0.23823529481887817)
(X_244  0.21078431606292725)
(X_245  0.2029411792755127)
(X_246  0.22254902124404907)
(X_247  0.1460784375667572)
(X_248  0.1460784375667572)
(X_249  0.12254902720451355)
(X_250  0.11078432202339172)
(X_251  0.22254902124404907)
(X_252  0.13823530077934265)
(X_253  0.15000000596046448)
(X_254  0.15011614561080933)
(X_255  0.19117647409439087)
(X_256  0.20686274766921997)
(X_257  0.21078431606292725)
(X_258  0.2186274528503418)
(X_259  0.2539215683937073)
(X_260  0.12647059559822083)
(X_261  0.14215686917304993)
(X_262  0.13823530077934265)
(X_263  0.114705890417099)
(X_264  0.13618427515029907)
(X_265  0.19106033444404602)
(X_266  0.23823529481887817)
(X_267  0.2343137264251709)
(X_268  0.1872549057006836)
(X_269  0.21078431606292725)
(X_270  0.23823529481887817)
(X_271  0.24607843160629272)
(X_272  0.23823529481887817)
(X_273  0.23039215803146362)
(X_274  0.2343137264251709)
(X_275  0.14215686917304993)
(X_276  0.1303921639919281)
(X_277  0.114705890417099)
(X_278  0.114705890417099)
(X_279  0.1303921639919281)
(X_280  0.2029411792755127)
(X_281  0.22647058963775635)
(X_282  0.2186274528503418)
(X_283  0.1303921639919281)
(X_284  0.1931372582912445)
(X_285  0.33235296607017517)
(X_286  0.36764708161354065)
(X_287  0.41862747073173523)
(X_288  0.34215685725212097)
(X_289  0.3578431308269501)
(X_290  0.3578431308269501)
(X_291  0.3343137204647064)
(X_292  0.3186274468898773)
(X_293  0.3186274468898773)
(X_294  0.3225490152835846)
(X_295  0.4225490391254425)
(X_296  0.30098041892051697)
(X_297  0.18137255311012268)
(X_298  0.15000000596046448)
(X_299  0.12254902720451355)
(X_300  0.21078431606292725)
(X_301  0.21470588445663452)
(X_302  0.23039215803146362)
(X_303  0.1460784375667572)
(X_304  0.13823530077934265)
(X_305  0.12647059559822083)
(X_306  0.1303921639919281)
(X_307  0.17756712436676025)
(X_308  0.25)
(X_309  0.3245098292827606)
(X_310  0.38333335518836975)
(X_311  0.34215685725212097)
(X_312  0.40882351994514465)
(X_313  0.4323529303073883)
(X_314  0.44411763548851013)
(X_315  0.4833333492279053)
(X_316  0.6578431725502014)
(X_317  0.6774510145187378)
(X_318  0.6677373647689819)
(X_319  0.6931372880935669)
(X_320  0.5696078538894653)
(X_321  0.5460784435272217)
(X_322  0.522549033164978)
(X_323  0.5068627595901489)
(X_324  0.5107843279838562)
(X_325  0.4598039388656616)
(X_326  0.37745097279548645)
(X_327  0.40294119715690613)
(X_328  0.344117671251297)
(X_329  0.30490198731422424)
(X_330  0.2481294572353363)
(X_331  0.22852161526679993)
(X_332  0.13823530077934265)
(X_333  0.13431373238563538)
(X_334  0.13431373238563538)
(X_335  0.13431373238563538)
(X_336  0.46176472306251526)
(X_337  0.5480391979217529)
(X_338  0.6029412150382996)
(X_339  0.5186274647712708)
(X_340  0.6107843518257141)
(X_341  0.5598039627075195)
(X_342  0.5245097875595093)
(X_343  0.44411763548851013)
(X_344  0.5676470994949341)
(X_345  0.5833333730697632)
(X_346  0.6029412150382996)
(X_347  0.5186274647712708)
(X_348  0.5186274647712708)
(X_349  0.4990196228027344)
(X_350  0.479411780834198)
(X_351  0.46764707565307617)
(X_352  0.6264706254005432)
(X_353  0.6264706254005432)
(X_354  0.5303921699523926)
(X_355  0.5343137383460999)
(X_356  0.6264706254005432)
(X_357  0.5872549414634705)
(X_358  0.5284313559532166)
(X_359  0.48137256503105164)
(X_360  0.32058826088905334)
(X_361  0.32058826088905334)
(X_362  0.21666668355464935)
(X_363  0.20490197837352753)
(X_364  0.45588237047195435)
(X_365  0.6029412150382996)
(X_366  0.5990196466445923)
(X_367  0.4480392038822174)
(X_368  0.49705883860588074)
(X_369  0.4225490391254425)
(X_370  0.28333333134651184)
(X_371  0.3068627417087555)
(X_372  0.31470587849617004)
(X_373  0.29509803652763367)
(X_374  0.3911764919757843)
(X_375  0.4107843339443207)
(X_376  0.3989034593105316)
(X_377  0.34215685725212097)
(X_378  0.34215685725212097)
(X_379  0.34215685725212097)
(X_380  0.3382352888584137)
(X_381  0.46176472306251526)
(X_382  0.5088235139846802)
(X_383  0.5637255311012268)
(X_384  0.6107843518257141)
(X_385  0.5264706015586853)
(X_386  0.5107843279838562)
(X_387  0.4950980544090271)
(X_388  0.5911765098571777)
(X_389  0.4950980544090271)
(X_390  0.4833333492279053)
(X_391  0.4637255072593689)
(X_392  0.4735294282436371)
(X_393  0.48137256503105164)
(X_394  0.4382353127002716)
(X_395  0.3950980603694916)
(X_396  0.39901962876319885)
(X_397  0.3950980603694916)
(X_398  0.4068627655506134)
(X_399  0.3539215624332428)
(X_400  0.385294109582901)
(X_401  0.3343137204647064)
(X_402  0.29901960492134094)
(X_403  0.4107843339443207)
(X_404  0.39498189091682434)
(X_405  0.3225490152835846)
(X_406  0.29901960492134094)
(X_407  0.387254923582077)
(X_408  0.43431374430656433)
(X_409  0.4264706075191498)
(X_410  0.4225490391254425)
(X_411  0.4225490391254425)
(X_412  0.43039217591285706)
(X_413  0.4382353127002716)
(X_414  0.44607844948768616)
(X_415  0.44607844948768616)
(X_416  0.4362744987010956)
(X_417  0.4362744987010956)
(X_418  0.4166666567325592)
(X_419  0.3813725411891937)
(X_420  0.31470587849617004)
(X_421  0.33226269483566284)
(X_422  0.3558823764324188)
(X_423  0.2598039209842682)
(X_424  0.3382352888584137)
(X_425  0.41274508833885193)
(X_426  0.47156864404678345)
(X_427  0.6303921937942505)
(X_428  0.5382353067398071)
(X_429  0.5754902362823486)
(X_430  0.42843136191368103)
(X_431  0.42843136191368103)
(X_432  0.4930211007595062)
(X_433  0.47745099663734436)
(X_434  0.31078431010246277)
(X_435  0.26764705777168274)
(X_436  0.40294119715690613)
(X_437  0.41470590233802795)
(X_438  0.4049922227859497)
(X_439  0.3499999940395355)
(X_440  0.3578431308269501)
(X_441  0.36176469922065735)
(X_442  0.3578431308269501)
(X_443  0.3578431308269501)
(X_444  0.4323529303073883)
(X_445  0.4323529303073883)
(X_446  0.3970588147640228)
(X_447  0.44607844948768616)
(X_448  0.40294119715690613)
(X_449  0.2872548997402191)
(X_450  0.26372548937797546)
(X_451  0.2911764681339264)
(X_452  0.4207043945789337)
(X_453  0.4754902124404907)
(X_454  0.5656219720840454)
(X_455  0.5166666507720947)
(X_456  0.4382353127002716)
(X_457  0.457843154668808)
(X_458  0.48137256503105164)
(X_459  0.5049019455909729)
(X_460  0.5362744927406311)
(X_461  0.551960825920105)
(X_462  0.4205882251262665)
(X_463  0.3735294044017792)
(X_464  0.39313724637031555)
(X_465  0.42843136191368103)
(X_466  0.5186274647712708)
(X_467  0.5206525921821594)
(X_468  0.6107843518257141)
(X_469  0.6068627834320068)
(X_470  0.5166666507720947)
(X_471  0.48137256503105164)
(X_472  0.5088235139846802)
(X_473  0.5127450823783875)
(X_474  0.520588219165802)
(X_475  0.5284313559532166)
(X_476  0.3225490152835846)
(X_477  0.3068627417087555)
(X_478  0.3911764919757843)
(X_479  0.3422730267047882)
(X_480  0.3499999940395355)
(X_481  0.36176469922065735)
(X_482  0.31078431010246277)
(X_483  0.2795279324054718)
(X_484  0.3480392396450043)
(X_485  0.3558823764324188)
(X_486  0.3715686500072479)
(X_487  0.2872548997402191)
(X_488  0.3029411733150482)
(X_489  0.3518705368041992)
(X_490  0.44607844948768616)
(X_491  0.42635443806648254)
(X_492  0.3892156779766083)
(X_493  0.42854753136634827)
(X_494  0.5558823943138123)
(X_495  0.5226393342018127)
(X_496  0.5794118046760559)
(X_497  0.6225490570068359)
(X_498  0.5715686678886414)
(X_499  0.46764707565307617)
(X_500  0.5323529243469238)
(X_501  0.4362744987010956)
(X_502  0.44411763548851013)
(X_503  0.45196080207824707)
(X_504  0.28333333134651184)
(X_505  0.2598039209842682)
(X_506  0.35196080803871155)
(X_507  0.3715686500072479)
(X_508  0.38333335518836975)
(X_509  0.2834495007991791)
(X_510  0.1931372582912445)
(X_511  0.15784314274787903)
(X_512  0.15392157435417175)
(X_513  0.15392157435417175)
(X_514  0.20501810312271118)
(X_515  0.18921568989753723)
(X_516  0.18137255311012268)
(X_517  0.18137255311012268)
(X_518  0.23235295712947845)
(X_519  0.3029411733150482)
(X_520  0.31470587849617004)
(X_521  0.2911764681339264)
(X_522  0.3186274468898773)
(X_523  0.3068627417087555)
(X_524  0.3499999940395355)
(X_525  0.4323529303073883)
(X_526  0.5323529243469238)
(X_527  0.5598039627075195)
(X_528  0.46176472306251526)
(X_529  0.3696078360080719)
(X_530  0.37745097279548645)
(X_531  0.385294109582901)
(X_532  0.33627453446388245)
(X_533  0.30098041892051697)
(X_534  0.2852941155433655)
(X_535  0.30098041892051697)
(X_536  0.2970588207244873)
(X_537  0.1617647111415863)
(X_538  0.15000000596046448)
(X_539  0.16568627953529358)
(X_540  0.114705890417099)
(X_541  0.14227300882339478)
(X_542  0.2343137264251709)
(X_543  0.27352941036224365)
(X_544  0.18324309587478638)
(X_545  0.114705890417099)
(X_546  0.14215686917304993)
(X_547  0.2088235467672348)
(X_548  0.3127451241016388)
(X_549  0.18137255311012268)
(X_550  0.20098040997982025)
(X_551  0.17352941632270813)
(X_552  0.29313725233078003)
(X_553  0.36764708161354065)
(X_554  0.33610063791275024)
(X_555  0.34607842564582825)
(X_556  0.3950980603694916)
(X_557  0.40294119715690613)
(X_558  0.4107843339443207)
(X_559  0.3932275176048279)
(X_560  0.3284313976764679)
(X_561  0.18921568989753723)
(X_562  0.16960784792900085)
(X_563  0.1617647111415863)
(X_564  0.13823530077934265)
(X_565  0.0990196168422699)
(X_566  0.10294118523597717)
(X_567  0.13431373238563538)
(X_568  0.114705890417099)
(X_569  0.09117648005485535)
(X_570  0.14619457721710205)
(X_571  0.15000000596046448)
(X_572  0.1460784375667572)
(X_573  0.10294118523597717)
(X_574  0.10294118523597717)
(X_575  0.14215686917304993)
(X_576  0.15392157435417175)
(X_577  0.13431373238563538)
(X_578  0.16960784792900085)
(X_579  0.23823529481887817)
(X_580  0.22647058963775635)
(X_581  0.16568627953529358)
(X_582  0.1774509847164154)
(X_583  0.2756063640117645)
(X_584  0.2872548997402191)
(X_585  0.29509803652763367)
(X_586  0.3068627417087555)
(X_587  0.31470587849617004)
(X_588  0.2696078419685364)
(X_589  0.16568627953529358)
(X_590  0.2263544499874115)
(X_591  0.15000000596046448)
(X_592  0.12254902720451355)
(X_593  0.08725491166114807)
(X_594  0.14400151371955872)
(X_595  0.19117647409439087)
(X_596  0.21470588445663452)
(X_597  0.18333333730697632)
(X_598  0.07549020648002625)
(X_599  0.0990196168422699)
(X_600  0.10686275362968445)
(X_601  0.09509804844856262)
(X_602  0.10294118523597717)
(X_603  0.12647059559822083)
(X_604  0.23039215803146362)
(X_605  0.21470588445663452)
(X_606  0.2617647051811218)
(X_607  0.23823529481887817)
(X_608  0.22254902124404907)
(X_609  0.2343137264251709)
(X_610  0.22647058963775635)
(X_611  0.2520510256290436)
(X_612  0.2245098203420639)
(X_613  0.23235295712947845)
(X_614  0.240196093916893)
(X_615  0.24803923070430756)
(X_616  0.19509804248809814)
(X_617  0.18930593132972717)
(X_618  0.12647059559822083)
(X_619  0.114705890417099)
(X_620  0.0990196168422699)
(X_621  0.19509804248809814)
(X_622  0.09509804844856262)
(X_623  0.0833333432674408)
(X_624  0.19901961088180542)
(X_625  0.1872549057006836)
(X_626  0.17941176891326904)
(X_627  0.17941176891326904)
(X_628  0.15184465050697327)
(X_629  0.09509804844856262)
(X_630  0.10686275362968445)
(X_631  0.18321719765663147)
(X_632  0.201070636510849)
(X_633  0.09117648005485535)
(X_634  0.12647059559822083)
(X_635  0.18713876605033875)
(X_636  0.19106033444404602)
(X_637  0.23823529481887817)
(X_638  0.2029411792755127)
(X_639  0.16755682229995728)
(X_640  0.16755682229995728)
(X_641  0.24215686321258545)
(X_642  0.25)
(X_643  0.25784313678741455)
(X_644  0.17941176891326904)
(X_645  0.17145249247550964)
(X_646  0.20686274766921997)
(X_647  0.1715686321258545)
(X_648  0.05980392172932625)
(X_649  0.18333333730697632)
(X_650  0.19509804248809814)
(X_651  0.17941176891326904)
(X_652  0.18333333730697632)
(X_653  0.10686275362968445)
(X_654  0.114705890417099)
(X_655  0.10294118523597717)
(X_656  0.09509804844856262)
(X_657  0.10294118523597717)
(X_658  0.10686275362968445)
(X_659  0.0990196168422699)
(X_660  0.2539215683937073)
(X_661  0.1872549057006836)
(X_662  0.19901961088180542)
(X_663  0.10294118523597717)
(X_664  0.1303921639919281)
(X_665  0.2167569100856781)
(X_666  0.19509804248809814)
(X_667  0.114705890417099)
(X_668  0.12647059559822083)
(X_669  0.1303921639919281)
(X_670  0.23823529481887817)
(X_671  0.1460784375667572)
(X_672  0.07156863063573837)
(X_673  0.07156863063573837)
(X_674  0.07549020648002625)
(X_675  0.07549020648002625)
(X_676  0.07549020648002625)
(X_677  0.17941176891326904)
(X_678  0.17941176891326904)
(X_679  0.07941177487373352)
(X_680  0.1872549057006836)
(X_681  0.15980392694473267)
(X_682  0.19117647409439087)
(X_683  0.06372549384832382)
(X_684  0.0676470622420311)
(X_685  0.0990196168422699)
(X_686  0.07156863063573837)
(X_687  0.10294118523597717)
(X_688  0.2029411792755127)
(X_689  0.2029411792755127)
(X_690  0.10294118523597717)
(X_691  0.10294118523597717)
(X_692  0.17754122614860535)
(X_693  0.20686274766921997)
(X_694  0.10686275362968445)
(X_695  0.21078431606292725)
(X_696  0.19117647409439087)
(X_697  0.19901961088180542)
(X_698  0.21078431606292725)
(X_699  0.22254902124404907)
(X_700  0.16372549533843994)
(X_701  0.09304700791835785)
(X_702  0.16372549533843994)
(X_703  0.16764706373214722)
(X_704  0.0676470622420311)
(X_705  0.07156863063573837)
(X_706  0.07156863063573837)
(X_707  0.07156863063573837)
(X_708  0.07549020648002625)
(X_709  0.08737105876207352)
(X_710  0.15009024739265442)
(X_711  0.05588235333561897)
(X_712  0.05980392172932625)
(X_713  0.09117648005485535)
(X_714  0.06372549384832382)
(X_715  0.09117648005485535)
(X_716  0.17941176891326904)
(X_717  0.07941177487373352)
(X_718  0.0833333432674408)
(X_719  0.0833333432674408)
(X_720  0.0833333432674408)
(X_721  0.15793338418006897)
(X_722  0.1872549057006836)
(X_723  0.19117647409439087)
(X_724  0.18333333730697632)
(X_725  0.19117647409439087)
(X_726  0.19901961088180542)
(X_727  0.21078431606292725)
(X_728  0.15196079015731812)
(X_729  0.0852038711309433)
(X_730  0.1558823585510254)
(X_731  0.1558823585510254)
(X_732  0.15980392694473267)
(X_733  0.15980392694473267)
(X_734  0.15980392694473267)
(X_735  0.16372549533843994)
(X_736  0.16764706373214722)
(X_737  0.1401960849761963)
(X_738  0.07156863063573837)
(X_739  0.04803921654820442)
(X_740  0.0519607849419117)
(X_741  0.07941177487373352)
(X_742  0.05588235333561897)
(X_743  0.0833333432674408)
(X_744  0.0676470622420311)
(X_745  0.0676470622420311)
(X_746  0.0676470622420311)
(X_747  0.0676470622420311)
(X_748  0.0676470622420311)
(X_749  0.07156863063573837)
(X_750  0.07549020648002625)
(X_751  0.07549020648002625)
(X_752  0.17549020051956177)
(X_753  0.17941176891326904)
(X_754  0.1872549057006836)
(X_755  0.19117647409439087)
(X_756  0.15196079015731812)
(X_757  0.0519607849419117)
(X_758  0.15196079015731812)
(X_759  0.15196079015731812)
(X_760  0.05588235333561897)
(X_761  0.05588235333561897)
(X_762  0.1558823585510254)
(X_763  0.15980392694473267)
(X_764  0.16372549533843994)
(X_765  0.136274516582489)
(X_766  0.1322367936372757)
(X_767  0.04411764815449715)
(X_768  0.04803921654820442)
(X_769  0.07549020648002625)
(X_770  0.0519607849419117)
(X_771  0.07941177487373352)
(X_772  0.07156863063573837)
(X_773  0.0676470622420311)
(X_774  0.0676470622420311)
(X_775  0.06372549384832382)
(X_776  0.16764706373214722)
(X_777  0.1715686321258545)
(X_778  0.17549020051956177)
(X_779  0.17941176891326904)
(X_780  0.07156863063573837)
(X_781  0.07549020648002625)
(X_782  0.07941177487373352)
(X_783  0.07941177487373352)
(Y_0 -15.915640830993652)
(Y_1 7.942458629608154)
(Y_2 -11.993816375732422)
(Y_3 21.72414207458496))