((X_0  0.8852941393852234)
(X_1  0.7774509787559509)
(X_2  0.7696078419685364)
(X_3  0.7578431367874146)
(X_4  0.7539215683937073)
(X_5  0.75)
(X_6  0.8500000238418579)
(X_7  0.8539215922355652)
(X_8  0.8421568870544434)
(X_9  0.8343137502670288)
(X_10  0.822549045085907)
(X_11  0.8107843399047852)
(X_12  0.8029412031173706)
(X_13  0.7029411792755127)
(X_14  0.70686274766922)
(X_15  0.7107843160629272)
(X_16  0.679411768913269)
(X_17  0.6754902005195618)
(X_18  0.6715686321258545)
(X_19  0.6676470637321472)
(X_20  0.6676470637321472)
(X_21  0.6676470637321472)
(X_22  0.6676470637321472)
(X_23  0.7715686559677124)
(X_24  0.6245098114013672)
(X_25  0.6245098114013672)
(X_26  0.6245098114013672)
(X_27  0.7245098352432251)
(X_28  0.0833333432674408)
(X_29  0.07941177487373352)
(X_30  0.07156863063573837)
(X_31  0.16372549533843994)
(X_32  0.15980392694473267)
(X_33  0.15980392694473267)
(X_34  0.15980392694473267)
(X_35  0.05980392172932625)
(X_36  0.07156863063573837)
(X_37  0.0676470622420311)
(X_38  0.15980392694473267)
(X_39  0.15196079015731812)
(X_40  0.14803922176361084)
(X_41  0.14411765336990356)
(X_42  0.14803922176361084)
(X_43  0.14803922176361084)
(X_44  0.14411765336990356)
(X_45  0.14411765336990356)
(X_46  0.04019607976078987)
(X_47  0.036274511367082596)
(X_48  0.13235294818878174)
(X_49  0.13235294818878174)
(X_50  0.136274516582489)
(X_51  0.136274516582489)
(X_52  0.11666666716337204)
(X_53  0.01666666939854622)
(X_54  0.01666666939854622)
(X_55  0.11666666716337204)
(X_56  0.08921568840742111)
(X_57  -0.010784312151372433)
(X_58  -0.018627449870109558)
(X_59  0.07745098322629929)
(X_60  -0.022549020126461983)
(X_61  -0.022549020126461983)
(X_62  -0.022549020126461983)
(X_63  -0.018627449870109558)
(X_64  -0.018627449870109558)
(X_65  -0.018627449870109558)
(X_66  0.07745098322629929)
(X_67  0.07745098322629929)
(X_68  0.07352941483259201)
(X_69  0.07352941483259201)
(X_70  0.07352941483259201)
(X_71  0.07352941483259201)
(X_72  -0.010784312151372433)
(X_73  -0.014705880545079708)
(X_74  -0.018627449870109558)
(X_75  -0.022549020126461983)
(X_76  -0.022549020126461983)
(X_77  0.07745098322629929)
(X_78  0.07745098322629929)
(X_79  0.08137255162000656)
(X_80  0.08137255162000656)
(X_81  0.08137255162000656)
(X_82  0.08137255162000656)
(X_83  0.08137255162000656)
(X_84  -0.006862743757665157)
(X_85  -0.006862743757665157)
(X_86  -0.006862743757665157)
(X_87  -0.006862743757665157)
(X_88  0.09313725680112839)
(X_89  0.09313725680112839)
(X_90  0.09705882519483566)
(X_91  0.09705882519483566)
(X_92  -0.022549020126461983)
(X_93  -0.018627449870109558)
(X_94  -0.014705880545079708)
(X_95  -0.014705880545079708)
(X_96  0.08529412001371384)
(X_97  0.08529412001371384)
(X_98  0.08137255162000656)
(X_99  -0.018627449870109558)
(X_100  -0.006862743757665157)
(X_101  0.09313725680112839)
(X_102  -0.010784312151372433)
(X_103  0.08529412001371384)
(X_104  0.08137255162000656)
(X_105  0.08529412001371384)
(X_106  0.08529412001371384)
(X_107  0.08529412001371384)
(X_108  -0.018627449870109558)
(X_109  -0.018627449870109558)
(X_110  0.08137255162000656)
(X_111  0.08137255162000656)
(X_112  0.07745098322629929)
(X_113  0.08137255162000656)
(X_114  -0.018627449870109558)
(X_115  0.08529412001371384)
(X_116  0.08529412001371384)
(X_117  0.08529412001371384)
(X_118  0.08529412001371384)
(X_119  -0.014705880545079708)
(X_120  -0.018627449870109558)
(X_121  -0.014705880545079708)
(X_122  -0.014705880545079708)
(X_123  -0.010784312151372433)
(X_124  0.09313725680112839)
(X_125  0.08921568840742111)
(X_126  0.08921568840742111)
(X_127  0.08921568840742111)
(X_128  -0.006862743757665157)
(X_129  0.08921568840742111)
(X_130  -0.014705880545079708)
(X_131  -0.014705880545079708)
(X_132  -0.018627449870109558)
(X_133  -0.018627449870109558)
(X_134  -0.014705880545079708)
(X_135  -0.014705880545079708)
(X_136  -0.022549020126461983)
(X_137  0.07745098322629929)
(X_138  0.07745098322629929)
(X_139  -0.022549020126461983)
(X_140  0.07745098322629929)
(X_141  -0.018627449870109558)
(X_142  -0.014705880545079708)
(X_143  0.08529412001371384)
(X_144  0.08529412001371384)
(X_145  0.08529412001371384)
(X_146  0.08137255162000656)
(X_147  -0.018627449870109558)
(X_148  0.08921568840742111)
(X_149  0.08921568840742111)
(X_150  0.08921568840742111)
(X_151  0.08921568840742111)
(X_152  0.08921568840742111)
(X_153  0.08921568840742111)
(X_154  0.08921568840742111)
(X_155  0.09313725680112839)
(X_156  -0.0029411755967885256)
(X_157  0.09313725680112839)
(X_158  -0.010784312151372433)
(X_159  -0.014705880545079708)
(X_160  -0.014705880545079708)
(X_161  0.08529412001371384)
(X_162  0.08529412001371384)
(X_163  0.08921568840742111)
(X_164  0.08137255162000656)
(X_165  0.08137255162000656)
(X_166  0.08137255162000656)
(X_167  0.08137255162000656)
(X_168  -0.006862743757665157)
(X_169  -0.0029411755967885256)
(X_170  -0.0029411755967885256)
(X_171  0.0009803927969187498)
(X_172  0.0009803927969187498)
(X_173  -0.0029411755967885256)
(X_174  -0.006862743757665157)
(X_175  -0.010784312151372433)
(X_176  0.0009803927969187498)
(X_177  -0.0029411755967885256)
(X_178  -0.006862743757665157)
(X_179  0.08921568840742111)
(X_180  0.08529412001371384)
(X_181  0.08921568840742111)
(X_182  0.09313725680112839)
(X_183  0.09705882519483566)
(X_184  0.10098039358854294)
(X_185  0.09705882519483566)
(X_186  -0.006862743757665157)
(X_187  -0.010784312151372433)
(X_188  -0.010784312151372433)
(X_189  -0.010784312151372433)
(X_190  -0.010784312151372433)
(X_191  0.09313725680112839)
(X_192  0.08921568840742111)
(X_193  0.08921568840742111)
(X_194  0.08921568840742111)
(X_195  0.08921568840742111)
(X_196  0.09313725680112839)
(X_197  0.09313725680112839)
(X_198  0.09705882519483566)
(X_199  0.10098039358854294)
(X_200  -0.0029411755967885256)
(X_201  -0.006862743757665157)
(X_202  -0.014705880545079708)
(X_203  -0.018627449870109558)
(X_204  0.012745101936161518)
(X_205  0.004901961423456669)
(X_206  -0.0029411755967885256)
(X_207  -0.010784312151372433)
(X_208  -0.014705880545079708)
(X_209  -0.010784312151372433)
(X_210  -0.0029411755967885256)
(X_211  0.10098039358854294)
(X_212  0.09705882519483566)
(X_213  0.09705882519483566)
(X_214  0.09313725680112839)
(X_215  -0.010784312151372433)
(X_216  -0.010784312151372433)
(X_217  -0.010784312151372433)
(X_218  0.08921568840742111)
(X_219  0.08921568840742111)
(X_220  -0.014705880545079708)
(X_221  0.08529412001371384)
(X_222  -0.014705880545079708)
(X_223  -0.014705880545079708)
(X_224  -0.006862743757665157)
(X_225  0.10098039358854294)
(X_226  0.10490196198225021)
(X_227  0.09313725680112839)
(X_228  -0.018627449870109558)
(X_229  -0.026470588520169258)
(X_230  -0.018627449870109558)
(X_231  -0.006862743757665157)
(X_232  0.08529412001371384)
(X_233  0.08921568840742111)
(X_234  0.09313725680112839)
(X_235  0.09705882519483566)
(X_236  0.09705882519483566)
(X_237  0.09705882519483566)
(X_238  0.09313725680112839)
(X_239  0.09313725680112839)
(X_240  -0.006862743757665157)
(X_241  -0.010784312151372433)
(X_242  0.08921568840742111)
(X_243  0.09313725680112839)
(X_244  0.09705882519483566)
(X_245  0.10098039358854294)
(X_246  -0.0029411755967885256)
(X_247  -0.006862743757665157)
(X_248  0.09705882519483566)
(X_249  -0.0029411755967885256)
(X_250  -0.006862743757665157)
(X_251  -0.006862743757665157)
(X_252  0.08921568840742111)
(X_253  -0.0029411755967885256)
(X_254  0.0009803927969187498)
(X_255  0.0009803927969187498)
(X_256  -0.006862743757665157)
(X_257  0.09313725680112839)
(X_258  0.10490196198225021)
(X_259  0.01666666939854622)
(X_260  0.10490196198225021)
(X_261  0.10098039358854294)
(X_262  0.10098039358854294)
(X_263  0.10098039358854294)
(X_264  0.10098039358854294)
(X_265  0.10098039358854294)
(X_266  0.10098039358854294)
(X_267  0.0009803927969187498)
(X_268  -0.010784312151372433)
(X_269  -0.014705880545079708)
(X_270  -0.018627449870109558)
(X_271  -0.014705880545079708)
(X_272  -0.010784312151372433)
(X_273  0.09313725680112839)
(X_274  0.09705882519483566)
(X_275  0.09705882519483566)
(X_276  -0.018627449870109558)
(X_277  -0.018627449870109558)
(X_278  0.08137255162000656)
(X_279  0.07745098322629929)
(X_280  -0.0029411755967885256)
(X_281  0.0009803927969187498)
(X_282  0.004901961423456669)
(X_283  -0.0029411755967885256)
(X_284  -0.010784312151372433)
(X_285  -0.018627449870109558)
(X_286  -0.014705880545079708)
(X_287  -0.010784312151372433)
(X_288  -0.0029411755967885256)
(X_289  0.09313725680112839)
(X_290  0.08921568840742111)
(X_291  0.08921568840742111)
(X_292  0.08529412001371384)
(X_293  0.08921568840742111)
(X_294  0.08921568840742111)
(X_295  0.09313725680112839)
(X_296  0.008823529817163944)
(X_297  0.10490196198225021)
(X_298  -0.0029411755967885256)
(X_299  -0.010784312151372433)
(X_300  -0.014705880545079708)
(X_301  0.08529412001371384)
(X_302  0.08921568840742111)
(X_303  -0.006862743757665157)
(X_304  -0.0029411755967885256)
(X_305  -0.0029411755967885256)
(X_306  -0.0029411755967885256)
(X_307  -0.0029411755967885256)
(X_308  -0.0029411755967885256)
(X_309  -0.0029411755967885256)
(X_310  0.0009803927969187498)
(X_311  -0.0029411755967885256)
(X_312  -0.006862743757665157)
(X_313  -0.010784312151372433)
(X_314  -0.014705880545079708)
(X_315  -0.014705880545079708)
(X_316  -0.006862743757665157)
(X_317  -0.006862743757665157)
(X_318  -0.0029411755967885256)
(X_319  -0.0029411755967885256)
(X_320  0.09705882519483566)
(X_321  0.09705882519483566)
(X_322  0.09705882519483566)
(X_323  0.09705882519483566)
(X_324  0.012745101936161518)
(X_325  0.10882353037595749)
(X_326  0.10098039358854294)
(X_327  -0.010784312151372433)
(X_328  -0.018627449870109558)
(X_329  -0.018627449870109558)
(X_330  -0.014705880545079708)
(X_331  -0.006862743757665157)
(X_332  0.08137255162000656)
(X_333  0.08137255162000656)
(X_334  0.08137255162000656)
(X_335  -0.014705880545079708)
(X_336  0.10098039358854294)
(X_337  0.10098039358854294)
(X_338  0.008823529817163944)
(X_339  0.11666666716337204)
(X_340  0.12450980395078659)
(X_341  0.12843137979507446)
(X_342  0.02450980618596077)
(X_343  0.02450980618596077)
(X_344  0.09705882519483566)
(X_345  0.10098039358854294)
(X_346  0.10490196198225021)
(X_347  0.11274509876966476)
(X_348  0.11274509876966476)
(X_349  0.11274509876966476)
(X_350  0.10882353037595749)
(X_351  0.008823529817163944)
(X_352  0.08529412001371384)
(X_353  0.09705882519483566)
(X_354  0.10490196198225021)
(X_355  0.11274509876966476)
(X_356  0.11666666716337204)
(X_357  0.028431374579668045)
(X_358  0.04803921654820442)
(X_359  0.06372549384832382)
(X_360  0.07549020648002625)
(X_361  0.07549020648002625)
(X_362  0.07549020648002625)
(X_363  0.07549020648002625)
(X_364  0.028431374579668045)
(X_365  0.020588237792253494)
(X_366  0.01666666939854622)
(X_367  0.012745101936161518)
(X_368  0.10490196198225021)
(X_369  0.09313725680112839)
(X_370  0.07745098322629929)
(X_371  0.061764705926179886)
(X_372  -0.0029411755967885256)
(X_373  -0.0029411755967885256)
(X_374  -0.010784312151372433)
(X_375  0.08529412001371384)
(X_376  0.08529412001371384)
(X_377  0.08529412001371384)
(X_378  0.08921568840742111)
(X_379  0.08921568840742111)
(X_380  0.12058823555707932)
(X_381  0.1401960849761963)
(X_382  0.07156863063573837)
(X_383  0.09509804844856262)
(X_384  0.11078432202339172)
(X_385  0.13431373238563538)
(X_386  0.1617647111415863)
(X_387  0.18137255311012268)
(X_388  0.3088235557079315)
(X_389  0.3088235557079315)
(X_390  0.3088235557079315)
(X_391  0.20490197837352753)
(X_392  0.3225490152835846)
(X_393  0.3068627417087555)
(X_394  0.3911764919757843)
(X_395  0.3754902184009552)
(X_396  0.2558823525905609)
(X_397  0.23235295712947845)
(X_398  0.20098040997982025)
(X_399  0.1774509847164154)
(X_400  0.0990196168422699)
(X_401  0.17941176891326904)
(X_402  0.14803922176361084)
(X_403  0.020588237792253494)
(X_404  0.012745101936161518)
(X_405  0.020588237792253494)
(X_406  0.136274516582489)
(X_407  0.14803922176361084)
(X_408  0.114705890417099)
(X_409  0.13823530077934265)
(X_410  0.16568627953529358)
(X_411  0.18137255311012268)
(X_412  0.18137255311012268)
(X_413  0.18529412150382996)
(X_414  0.20098040997982025)
(X_415  0.21274511516094208)
(X_416  0.18529412150382996)
(X_417  0.18529412150382996)
(X_418  0.2813725471496582)
(X_419  0.2774509787559509)
(X_420  0.3225490152835846)
(X_421  0.4107843339443207)
(X_422  0.40294119715690613)
(X_423  0.39901962876319885)
(X_424  0.3950980603694916)
(X_425  0.28333333134651184)
(X_426  0.2558823525905609)
(X_427  0.23627452552318573)
(X_428  0.26764705777168274)
(X_429  0.33235296607017517)
(X_430  0.2774509787559509)
(X_431  0.1303921639919281)
(X_432  0.21470588445663452)
(X_433  0.22647058963775635)
(X_434  0.2539215683937073)
(X_435  0.2774509787559509)
(X_436  0.18921568989753723)
(X_437  0.20490197837352753)
(X_438  0.22058825194835663)
(X_439  0.2088235467672348)
(X_440  0.1774509847164154)
(X_441  0.15392157435417175)
(X_442  0.1460784375667572)
(X_443  0.1460784375667572)
(X_444  0.1460784375667572)
(X_445  0.24607843160629272)
(X_446  0.23823529481887817)
(X_447  0.2343137264251709)
(X_448  0.26764705777168274)
(X_449  0.35196080803871155)
(X_450  0.3401961028575897)
(X_451  0.344117671251297)
(X_452  0.2558823525905609)
(X_453  0.26764705777168274)
(X_454  0.26764705777168274)
(X_455  0.26372548937797546)
(X_456  0.3754902184009552)
(X_457  0.33627453446388245)
(X_458  0.3245098292827606)
(X_459  0.3401961028575897)
(X_460  0.3284313976764679)
(X_461  0.29313725233078003)
(X_462  0.29313725233078003)
(X_463  0.32058826088905334)
(X_464  0.28921568393707275)
(X_465  0.2852941155433655)
(X_466  0.2656862735748291)
(X_467  0.13823530077934265)
(X_468  0.13431373238563538)
(X_469  0.25)
(X_470  0.15392157435417175)
(X_471  0.24215686321258545)
(X_472  0.23823529481887817)
(X_473  0.23823529481887817)
(X_474  0.25784313678741455)
(X_475  0.30490198731422424)
(X_476  0.26764705777168274)
(X_477  0.26372548937797546)
(X_478  0.2598039209842682)
(X_479  0.3637255132198334)
(X_480  0.26372548937797546)
(X_481  0.25196078419685364)
(X_482  0.22843138873577118)
(X_483  0.21274511516094208)
(X_484  0.23627452552318573)
(X_485  0.20098040997982025)
(X_486  0.1931372582912445)
(X_487  0.22058825194835663)
(X_488  0.2245098203420639)
(X_489  0.19705882668495178)
(X_490  0.2852941155433655)
(X_491  0.30490198731422424)
(X_492  0.3284313976764679)
(X_493  0.2598039209842682)
(X_494  0.27941176295280457)
(X_495  0.27941176295280457)
(X_496  0.27941176295280457)
(X_497  0.29509803652763367)
(X_498  0.3068627417087555)
(X_499  0.31078431010246277)
(X_500  0.33039215207099915)
(X_501  0.3578431308269501)
(X_502  0.36176469922065735)
(X_503  0.4382353127002716)
(X_504  0.522549033164978)
(X_505  0.5264706015586853)
(X_506  0.5343137383460999)
(X_507  0.6343137621879578)
(X_508  0.6264706254005432)
(X_509  0.595098078250885)
(X_510  0.5598039627075195)
(X_511  0.4323529303073883)
(X_512  0.5186274647712708)
(X_513  0.4911764860153198)
(X_514  0.5029411911964417)
(X_515  0.5539215803146362)
(X_516  0.6892157196998596)
(X_517  0.6813725829124451)
(X_518  0.6735294461250305)
(X_519  0.6774510145187378)
(X_520  0.5421568751335144)
(X_521  0.5539215803146362)
(X_522  0.5382353067398071)
(X_523  0.5754902362823486)
(X_524  0.5088235139846802)
(X_525  0.37745097279548645)
(X_526  0.3656862676143646)
(X_527  0.3578431308269501)
(X_528  0.3029411733150482)
(X_529  0.3499999940395355)
(X_530  0.3382352888584137)
(X_531  0.2598039209842682)
(X_532  0.5107843279838562)
(X_533  0.6147059202194214)
(X_534  0.5186274647712708)
(X_535  0.5147058963775635)
(X_536  0.6068627834320068)
(X_537  0.5872549414634705)
(X_538  0.5676470994949341)
(X_539  0.551960825920105)
(X_540  0.4990196228027344)
(X_541  0.4637255072593689)
(X_542  0.4480392038822174)
(X_543  0.5637255311012268)
(X_544  0.5676470994949341)
(X_545  0.5284313559532166)
(X_546  0.3813725411891937)
(X_547  0.4539215862751007)
(X_548  0.5009803771972656)
(X_549  0.4892157018184662)
(X_550  0.44607844948768616)
(X_551  0.3794117867946625)
(X_552  0.33235296607017517)
(X_553  0.2245098203420639)
(X_554  0.23235295712947845)
(X_555  0.23627452552318573)
(X_556  0.26372548937797546)
(X_557  0.2754901945590973)
(X_558  0.2598039209842682)
(X_559  0.21274511516094208)
(X_560  0.3029411733150482)
(X_561  0.39901962876319885)
(X_562  0.29509803652763367)
(X_563  0.29509803652763367)
(X_564  0.29509803652763367)
(X_565  0.3029411733150482)
(X_566  0.31078431010246277)
(X_567  0.3225490152835846)
(X_568  0.38333335518836975)
(X_569  0.2754901945590973)
(X_570  0.2911764681339264)
(X_571  0.4421568810939789)
(X_572  0.49313727021217346)
(X_573  0.5049019455909729)
(X_574  0.3892156779766083)
(X_575  0.4735294282436371)
(X_576  0.43039217591285706)
(X_577  0.41862747073173523)
(X_578  0.387254923582077)
(X_579  0.36764708161354065)
(X_580  0.27941176295280457)
(X_581  0.31078431010246277)
(X_582  0.32647058367729187)
(X_583  0.41862747073173523)
(X_584  0.4068627655506134)
(X_585  0.3637255132198334)
(X_586  0.24411766231060028)
(X_587  0.26764705777168274)
(X_588  0.3754902184009552)
(X_589  0.3715686500072479)
(X_590  0.36764708161354065)
(X_591  0.3637255132198334)
(X_592  0.3715686500072479)
(X_593  0.3911764919757843)
(X_594  0.41862747073173523)
(X_595  0.34215685725212097)
(X_596  0.4696078598499298)
(X_597  0.4539215862751007)
(X_598  0.34607842564582825)
(X_599  0.3578431308269501)
(X_600  0.46568629145622253)
(X_601  0.457843154668808)
(X_602  0.43039217591285706)
(X_603  0.4068627655506134)
(X_604  0.41470590233802795)
(X_605  0.3068627417087555)
(X_606  0.29509803652763367)
(X_607  0.2872548997402191)
(X_608  0.39901962876319885)
(X_609  0.4068627655506134)
(X_610  0.2754901945590973)
(X_611  0.23235295712947845)
(X_612  0.3598039448261261)
(X_613  0.28921568393707275)
(X_614  0.2696078419685364)
(X_615  0.3284313976764679)
(X_616  0.22843138873577118)
(X_617  0.23627452552318573)
(X_618  0.24411766231060028)
(X_619  0.24411766231060028)
(X_620  0.240196093916893)
(X_621  0.24803923070430756)
(X_622  0.3637255132198334)
(X_623  0.3794117867946625)
(X_624  0.22843138873577118)
(X_625  0.22843138873577118)
(X_626  0.22843138873577118)
(X_627  0.23235295712947845)
(X_628  0.3480392396450043)
(X_629  0.3558823764324188)
(X_630  0.3558823764324188)
(X_631  0.3480392396450043)
(X_632  0.18137255311012268)
(X_633  0.19705882668495178)
(X_634  0.21274511516094208)
(X_635  0.32058826088905334)
(X_636  0.23235295712947845)
(X_637  0.23627452552318573)
(X_638  0.20490197837352753)
(X_639  0.2696078419685364)
(X_640  0.2852941155433655)
(X_641  0.24607843160629272)
(X_642  0.23039215803146362)
(X_643  0.25784313678741455)
(X_644  0.2813725471496582)
(X_645  0.2970588207244873)
(X_646  0.21666668355464935)
(X_647  0.22058825194835663)
(X_648  0.2088235467672348)
(X_649  0.1931372582912445)
(X_650  0.28921568393707275)
(X_651  0.29313725233078003)
(X_652  0.21274511516094208)
(X_653  0.3127451241016388)
(X_654  0.20098040997982025)
(X_655  0.18921568989753723)
(X_656  0.18137255311012268)
(X_657  0.28921568393707275)
(X_658  0.18921568989753723)
(X_659  0.2852941155433655)
(X_660  0.2617647051811218)
(X_661  0.18529412150382996)
(X_662  0.19705882668495178)
(X_663  0.1931372582912445)
(X_664  0.1931372582912445)
(X_665  0.20098040997982025)
(X_666  0.19705882668495178)
(X_667  0.18529412150382996)
(X_668  0.13431373238563538)
(X_669  0.13823530077934265)
(X_670  0.23039215803146362)
(X_671  0.21470588445663452)
(X_672  0.114705890417099)
(X_673  0.21470588445663452)
(X_674  0.1303921639919281)
(X_675  0.2617647051811218)
(X_676  0.27352941036224365)
(X_677  0.16568627953529358)
(X_678  0.16568627953529358)
(X_679  0.17352941632270813)
(X_680  0.2696078419685364)
(X_681  0.2656862735748291)
(X_682  0.2617647051811218)
(X_683  0.1617647111415863)
(X_684  0.25784313678741455)
(X_685  0.25784313678741455)
(X_686  0.2617647051811218)
(X_687  0.2617647051811218)
(X_688  0.15392157435417175)
(X_689  0.2539215683937073)
(X_690  0.25784313678741455)
(X_691  0.25784313678741455)
(X_692  0.2539215683937073)
(X_693  0.25)
(X_694  0.24215686321258545)
(X_695  0.2343137264251709)
(X_696  0.22647058963775635)
(X_697  0.11078432202339172)
(X_698  0.10294118523597717)
(X_699  0.21470588445663452)
(X_700  0.0990196168422699)
(X_701  0.19901961088180542)
(X_702  0.114705890417099)
(X_703  0.24215686321258545)
(X_704  0.25)
(X_705  0.24215686321258545)
(X_706  0.23823529481887817)
(X_707  0.1460784375667572)
(X_708  0.14215686917304993)
(X_709  0.13823530077934265)
(X_710  0.13431373238563538)
(X_711  0.1303921639919281)
(X_712  0.1303921639919281)
(X_713  0.23039215803146362)
(X_714  0.23039215803146362)
(X_715  0.13431373238563538)
(X_716  0.12647059559822083)
(X_717  0.12647059559822083)
(X_718  0.1303921639919281)
(X_719  0.1303921639919281)
(X_720  0.12647059559822083)
(X_721  0.11862745881080627)
(X_722  0.11078432202339172)
(X_723  0.10686275362968445)
(X_724  0.09509804844856262)
(X_725  0.07549020648002625)
(X_726  0.0676470622420311)
(X_727  0.17941176891326904)
(X_728  0.17941176891326904)
(X_729  0.17941176891326904)
(X_730  0.09117648005485535)
(X_731  0.21470588445663452)
(X_732  0.2186274528503418)
(X_733  0.20686274766921997)
(X_734  0.20686274766921997)
(X_735  0.21470588445663452)
(X_736  0.10294118523597717)
(X_737  0.2029411792755127)
(X_738  0.19901961088180542)
(X_739  0.19509804248809814)
(X_740  0.19117647409439087)
(X_741  0.19509804248809814)
(X_742  0.09509804844856262)
(X_743  0.09509804844856262)
(X_744  0.09117648005485535)
(X_745  0.09117648005485535)
(X_746  0.09117648005485535)
(X_747  0.09117648005485535)
(X_748  0.08725491166114807)
(X_749  0.18333333730697632)
(X_750  0.17549020051956177)
(X_751  0.17549020051956177)
(X_752  0.16764706373214722)
(X_753  0.14803922176361084)
(X_754  0.1401960849761963)
(X_755  0.15196079015731812)
(X_756  0.07156863063573837)
(X_757  0.06372549384832382)
(X_758  0.07549020648002625)
(X_759  0.19117647409439087)
(X_760  0.19509804248809814)
(X_761  0.18333333730697632)
(X_762  0.17941176891326904)
(X_763  0.1872549057006836)
(X_764  0.18333333730697632)
(X_765  0.07941177487373352)
(X_766  0.17549020051956177)
(X_767  0.1715686321258545)
(X_768  0.1715686321258545)
(X_769  0.1715686321258545)
(X_770  0.1715686321258545)
(X_771  0.17549020051956177)
(X_772  0.07156863063573837)
(X_773  0.0676470622420311)
(X_774  0.0676470622420311)
(X_775  0.0676470622420311)
(X_776  0.06372549384832382)
(X_777  0.15980392694473267)
(X_778  0.1558823585510254)
(X_779  0.15196079015731812)
(X_780  0.15980392694473267)
(X_781  0.04019607976078987)
(X_782  0.03235294297337532)
(X_783  0.04411764815449715)
(Y_0 38.747318267822266)
(Y_1 -4.67193078994751)
(Y_2 3.5767135620117188)
(Y_3 -43.39693832397461))