((X_0  0.28921568393707275)
(X_1  0.2088235467672348)
(X_2  0.19705882668495178)
(X_3  0.15784314274787903)
(X_4  0.15392157435417175)
(X_5  0.1774509847164154)
(X_6  0.2617647051811218)
(X_7  0.22254902124404907)
(X_8  0.2343137264251709)
(X_9  0.22647058963775635)
(X_10  0.21470588445663452)
(X_11  0.20686274766921997)
(X_12  0.2029411792755127)
(X_13  0.20686274766921997)
(X_14  0.11078432202339172)
(X_15  0.11862745881080627)
(X_16  0.11078432202339172)
(X_17  0.12254902720451355)
(X_18  0.13431373238563538)
(X_19  0.13823530077934265)
(X_20  0.13823530077934265)
(X_21  0.12254902720451355)
(X_22  0.10294118523597717)
(X_23  0.19117647409439087)
(X_24  0.15784314274787903)
(X_25  0.1460784375667572)
(X_26  0.1303921639919281)
(X_27  0.23039215803146362)
(X_28  0.22647058963775635)
(X_29  0.11078432202339172)
(X_30  0.0990196168422699)
(X_31  0.19901961088180542)
(X_32  0.2029411792755127)
(X_33  0.09117648005485535)
(X_34  0.08725491166114807)
(X_35  0.08725491166114807)
(X_36  0.11862745881080627)
(X_37  0.2186274528503418)
(X_38  0.2186274528503418)
(X_39  0.2186274528503418)
(X_40  0.22254902124404907)
(X_41  0.22647058963775635)
(X_42  0.23039215803146362)
(X_43  0.23039215803146362)
(X_44  0.21470588445663452)
(X_45  0.114705890417099)
(X_46  0.114705890417099)
(X_47  0.114705890417099)
(X_48  0.11078432202339172)
(X_49  0.10686275362968445)
(X_50  0.0990196168422699)
(X_51  0.19509804248809814)
(X_52  0.2029411792755127)
(X_53  0.19509804248809814)
(X_54  0.19509804248809814)
(X_55  0.2029411792755127)
(X_56  0.2186274528503418)
(X_57  0.07156863063573837)
(X_58  0.06372549384832382)
(X_59  0.0990196168422699)
(X_60  0.10294118523597717)
(X_61  0.07549020648002625)
(X_62  0.07549020648002625)
(X_63  0.10686275362968445)
(X_64  0.0990196168422699)
(X_65  0.2029411792755127)
(X_66  0.21470588445663452)
(X_67  0.22254902124404907)
(X_68  0.22647058963775635)
(X_69  0.22254902124404907)
(X_70  0.2186274528503418)
(X_71  0.21470588445663452)
(X_72  0.114705890417099)
(X_73  0.10686275362968445)
(X_74  0.0990196168422699)
(X_75  0.08725491166114807)
(X_76  0.08725491166114807)
(X_77  0.1872549057006836)
(X_78  0.19509804248809814)
(X_79  0.19901961088180542)
(X_80  0.19901961088180542)
(X_81  0.19509804248809814)
(X_82  0.19117647409439087)
(X_83  0.19509804248809814)
(X_84  0.12647059559822083)
(X_85  0.09509804844856262)
(X_86  0.0833333432674408)
(X_87  0.10294118523597717)
(X_88  0.114705890417099)
(X_89  0.2029411792755127)
(X_90  0.20686274766921997)
(X_91  0.22647058963775635)
(X_92  0.18333333730697632)
(X_93  0.19117647409439087)
(X_94  0.10294118523597717)
(X_95  0.11078432202339172)
(X_96  0.11078432202339172)
(X_97  0.0990196168422699)
(X_98  0.0833333432674408)
(X_99  0.07156863063573837)
(X_100  0.20686274766921997)
(X_101  0.19901961088180542)
(X_102  0.09117648005485535)
(X_103  0.0833333432674408)
(X_104  0.18333333730697632)
(X_105  0.1872549057006836)
(X_106  0.09117648005485535)
(X_107  0.19509804248809814)
(X_108  0.10686275362968445)
(X_109  0.10686275362968445)
(X_110  0.20686274766921997)
(X_111  0.20686274766921997)
(X_112  0.1872549057006836)
(X_113  0.19901961088180542)
(X_114  0.19117647409439087)
(X_115  0.1715686321258545)
(X_116  0.17549020051956177)
(X_117  0.2029411792755127)
(X_118  0.2029411792755127)
(X_119  0.07941177487373352)
(X_120  0.07156863063573837)
(X_121  0.07941177487373352)
(X_122  0.09117648005485535)
(X_123  0.10294118523597717)
(X_124  0.0990196168422699)
(X_125  0.09117648005485535)
(X_126  0.07549020648002625)
(X_127  0.06372549384832382)
(X_128  0.09509804844856262)
(X_129  0.0990196168422699)
(X_130  0.0990196168422699)
(X_131  0.0990196168422699)
(X_132  0.19901961088180542)
(X_133  0.09509804844856262)
(X_134  0.09117648005485535)
(X_135  0.09117648005485535)
(X_136  0.07941177487373352)
(X_137  0.1872549057006836)
(X_138  0.19901961088180542)
(X_139  0.21078431606292725)
(X_140  0.18333333730697632)
(X_141  0.21078431606292725)
(X_142  0.20686274766921997)
(X_143  0.1715686321258545)
(X_144  0.17941176891326904)
(X_145  0.21470588445663452)
(X_146  0.10686275362968445)
(X_147  0.0676470622420311)
(X_148  0.16764706373214722)
(X_149  0.17549020051956177)
(X_150  0.1872549057006836)
(X_151  0.19901961088180542)
(X_152  0.2029411792755127)
(X_153  0.2029411792755127)
(X_154  0.0990196168422699)
(X_155  0.19901961088180542)
(X_156  0.09117648005485535)
(X_157  0.19901961088180542)
(X_158  0.20686274766921997)
(X_159  0.21078431606292725)
(X_160  0.21078431606292725)
(X_161  0.20686274766921997)
(X_162  0.19509804248809814)
(X_163  0.19117647409439087)
(X_164  0.18333333730697632)
(X_165  0.19117647409439087)
(X_166  0.20686274766921997)
(X_167  0.21078431606292725)
(X_168  0.10294118523597717)
(X_169  0.11078432202339172)
(X_170  0.11078432202339172)
(X_171  0.11078432202339172)
(X_172  0.11862745881080627)
(X_173  0.22254902124404907)
(X_174  0.21470588445663452)
(X_175  0.09509804844856262)
(X_176  0.1872549057006836)
(X_177  0.08725491166114807)
(X_178  0.19117647409439087)
(X_179  0.19509804248809814)
(X_180  0.19901961088180542)
(X_181  0.20686274766921997)
(X_182  0.21470588445663452)
(X_183  0.2186274528503418)
(X_184  0.09509804844856262)
(X_185  0.0990196168422699)
(X_186  0.10686275362968445)
(X_187  0.11078432202339172)
(X_188  0.11078432202339172)
(X_189  0.10686275362968445)
(X_190  0.10294118523597717)
(X_191  0.19509804248809814)
(X_192  0.19509804248809814)
(X_193  0.20686274766921997)
(X_194  0.21470588445663452)
(X_195  0.21078431606292725)
(X_196  0.19509804248809814)
(X_197  0.16764706373214722)
(X_198  0.17549020051956177)
(X_199  0.2186274528503418)
(X_200  0.1303921639919281)
(X_201  0.09509804844856262)
(X_202  0.18333333730697632)
(X_203  0.10294118523597717)
(X_204  0.10686275362968445)
(X_205  0.10294118523597717)
(X_206  0.09509804844856262)
(X_207  0.1872549057006836)
(X_208  0.09117648005485535)
(X_209  0.09509804844856262)
(X_210  0.10686275362968445)
(X_211  0.11078432202339172)
(X_212  0.19901961088180542)
(X_213  0.2029411792755127)
(X_214  0.2029411792755127)
(X_215  0.20686274766921997)
(X_216  0.20686274766921997)
(X_217  0.10686275362968445)
(X_218  0.2029411792755127)
(X_219  0.2029411792755127)
(X_220  0.07156863063573837)
(X_221  0.08725491166114807)
(X_222  0.10294118523597717)
(X_223  0.10686275362968445)
(X_224  0.10686275362968445)
(X_225  0.09509804844856262)
(X_226  0.08725491166114807)
(X_227  0.09509804844856262)
(X_228  0.10686275362968445)
(X_229  0.114705890417099)
(X_230  0.11078432202339172)
(X_231  0.10294118523597717)
(X_232  0.19117647409439087)
(X_233  0.21078431606292725)
(X_234  0.21470588445663452)
(X_235  0.19901961088180542)
(X_236  0.19117647409439087)
(X_237  0.19901961088180542)
(X_238  0.19901961088180542)
(X_239  0.19117647409439087)
(X_240  0.09117648005485535)
(X_241  0.0990196168422699)
(X_242  0.21078431606292725)
(X_243  0.21470588445663452)
(X_244  0.21470588445663452)
(X_245  0.11078432202339172)
(X_246  0.11078432202339172)
(X_247  0.114705890417099)
(X_248  0.0990196168422699)
(X_249  0.10294118523597717)
(X_250  0.11078432202339172)
(X_251  0.2186274528503418)
(X_252  0.3480392396450043)
(X_253  0.33627453446388245)
(X_254  0.2245098203420639)
(X_255  0.3127451241016388)
(X_256  0.30490198731422424)
(X_257  0.2813725471496582)
(X_258  0.2539215683937073)
(X_259  0.2343137264251709)
(X_260  0.2186274528503418)
(X_261  0.2186274528503418)
(X_262  0.19901961088180542)
(X_263  0.16764706373214722)
(X_264  0.16372549533843994)
(X_265  0.19509804248809814)
(X_266  0.22647058963775635)
(X_267  0.13823530077934265)
(X_268  0.114705890417099)
(X_269  0.12254902720451355)
(X_270  0.12647059559822083)
(X_271  0.114705890417099)
(X_272  0.09509804844856262)
(X_273  0.07549020648002625)
(X_274  0.07156863063573837)
(X_275  0.07549020648002625)
(X_276  0.07156863063573837)
(X_277  0.07549020648002625)
(X_278  0.18333333730697632)
(X_279  0.19117647409439087)
(X_280  0.4205882251262665)
(X_281  0.4205882251262665)
(X_282  0.42843136191368103)
(X_283  0.4323529303073883)
(X_284  0.4323529303073883)
(X_285  0.520588219165802)
(X_286  0.5009803771972656)
(X_287  0.3813725411891937)
(X_288  0.2872548997402191)
(X_289  0.27156862616539)
(X_290  0.21666668355464935)
(X_291  0.24607843160629272)
(X_292  0.2029411792755127)
(X_293  0.19901961088180542)
(X_294  0.10294118523597717)
(X_295  0.10294118523597717)
(X_296  0.05980392172932625)
(X_297  0.19117647409439087)
(X_298  0.23039215803146362)
(X_299  0.15392157435417175)
(X_300  0.16960784792900085)
(X_301  0.29313725233078003)
(X_302  0.3245098292827606)
(X_303  0.25196078419685364)
(X_304  0.27941176295280457)
(X_305  0.28333333134651184)
(X_306  0.2872548997402191)
(X_307  0.29509803652763367)
(X_308  0.3343137204647064)
(X_309  0.34607842564582825)
(X_310  0.3656862676143646)
(X_311  0.3892156779766083)
(X_312  0.40882351994514465)
(X_313  0.4166666567325592)
(X_314  0.4166666567325592)
(X_315  0.5166666507720947)
(X_316  0.44411763548851013)
(X_317  0.44411763548851013)
(X_318  0.41274508833885193)
(X_319  0.3578431308269501)
(X_320  0.4068627655506134)
(X_321  0.3754902184009552)
(X_322  0.3480392396450043)
(X_323  0.3284313976764679)
(X_324  0.27941176295280457)
(X_325  0.4068627655506134)
(X_326  0.4382353127002716)
(X_327  0.4539215862751007)
(X_328  0.3539215624332428)
(X_329  0.3696078360080719)
(X_330  0.3970588147640228)
(X_331  0.42450979351997375)
(X_332  0.4696078598499298)
(X_333  0.4696078598499298)
(X_334  0.4735294282436371)
(X_335  0.47745099663734436)
(X_336  0.2558823525905609)
(X_337  0.3598039448261261)
(X_338  0.3598039448261261)
(X_339  0.3637255132198334)
(X_340  0.3598039448261261)
(X_341  0.3598039448261261)
(X_342  0.26372548937797546)
(X_343  0.26372548937797546)
(X_344  0.3637255132198334)
(X_345  0.387254923582077)
(X_346  0.40294119715690613)
(X_347  0.3911764919757843)
(X_348  0.38333335518836975)
(X_349  0.38333335518836975)
(X_350  0.3754902184009552)
(X_351  0.3598039448261261)
(X_352  0.26764705777168274)
(X_353  0.38333335518836975)
(X_354  0.39901962876319885)
(X_355  0.29509803652763367)
(X_356  0.27941176295280457)
(X_357  0.27941176295280457)
(X_358  0.2911764681339264)
(X_359  0.31078431010246277)
(X_360  0.40294119715690613)
(X_361  0.40294119715690613)
(X_362  0.40294119715690613)
(X_363  0.40294119715690613)
(X_364  0.3343137204647064)
(X_365  0.3343137204647064)
(X_366  0.3225490152835846)
(X_367  0.29901960492134094)
(X_368  0.3754902184009552)
(X_369  0.3598039448261261)
(X_370  0.2558823525905609)
(X_371  0.3558823764324188)
(X_372  0.22843138873577118)
(X_373  0.240196093916893)
(X_374  0.23235295712947845)
(X_375  0.30490198731422424)
(X_376  0.2852941155433655)
(X_377  0.2813725471496582)
(X_378  0.2774509787559509)
(X_379  0.2656862735748291)
(X_380  0.2852941155433655)
(X_381  0.29313725233078003)
(X_382  0.20490197837352753)
(X_383  0.21274511516094208)
(X_384  0.22058825194835663)
(X_385  0.23627452552318573)
(X_386  0.25196078419685364)
(X_387  0.26372548937797546)
(X_388  0.33235296607017517)
(X_389  0.3284313976764679)
(X_390  0.3245098292827606)
(X_391  0.3245098292827606)
(X_392  0.4950980544090271)
(X_393  0.5029411911964417)
(X_394  0.6029412150382996)
(X_395  0.5911765098571777)
(X_396  0.47156864404678345)
(X_397  0.45588237047195435)
(X_398  0.4480392038822174)
(X_399  0.551960825920105)
(X_400  0.44019606709480286)
(X_401  0.5401960611343384)
(X_402  0.5166666507720947)
(X_403  0.4696078598499298)
(X_404  0.3343137204647064)
(X_405  0.3186274468898773)
(X_406  0.40294119715690613)
(X_407  0.3911764919757843)
(X_408  0.2558823525905609)
(X_409  0.24411766231060028)
(X_410  0.23235295712947845)
(X_411  0.22843138873577118)
(X_412  0.23235295712947845)
(X_413  0.33627453446388245)
(X_414  0.33235296607017517)
(X_415  0.3284313976764679)
(X_416  0.22843138873577118)
(X_417  0.3245098292827606)
(X_418  0.32058826088905334)
(X_419  0.31666669249534607)
(X_420  0.27156862616539)
(X_421  0.3911764919757843)
(X_422  0.4068627655506134)
(X_423  0.4068627655506134)
(X_424  0.3911764919757843)
(X_425  0.3754902184009552)
(X_426  0.36764708161354065)
(X_427  0.36764708161354065)
(X_428  0.4421568810939789)
(X_429  0.4696078598499298)
(X_430  0.49313727021217346)
(X_431  0.49705883860588074)
(X_432  0.5049019455909729)
(X_433  0.520588219165802)
(X_434  0.5284313559532166)
(X_435  0.520588219165802)
(X_436  0.44019606709480286)
(X_437  0.4205882251262665)
(X_438  0.4049019515514374)
(X_439  0.40882351994514465)
(X_440  0.42843136191368103)
(X_441  0.44019606709480286)
(X_442  0.4362744987010956)
(X_443  0.42450979351997375)
(X_444  0.5284313559532166)
(X_445  0.5245097875595093)
(X_446  0.520588219165802)
(X_447  0.5166666507720947)
(X_448  0.20098040997982025)
(X_449  0.2656862735748291)
(X_450  0.23039215803146362)
(X_451  0.23039215803146362)
(X_452  0.2617647051811218)
(X_453  0.18137255311012268)
(X_454  0.17352941632270813)
(X_455  0.15784314274787903)
(X_456  0.28921568393707275)
(X_457  0.1931372582912445)
(X_458  0.30490198731422424)
(X_459  0.3284313976764679)
(X_460  0.3480392396450043)
(X_461  0.35196080803871155)
(X_462  0.33627453446388245)
(X_463  0.32058826088905334)
(X_464  0.35196080803871155)
(X_465  0.33235296607017517)
(X_466  0.22058825194835663)
(X_467  0.23627452552318573)
(X_468  0.27156862616539)
(X_469  0.2872548997402191)
(X_470  0.2754901945590973)
(X_471  0.2558823525905609)
(X_472  0.24803923070430756)
(X_473  0.2558823525905609)
(X_474  0.2598039209842682)
(X_475  0.3598039448261261)
(X_476  0.21274511516094208)
(X_477  0.18137255311012268)
(X_478  0.1460784375667572)
(X_479  0.13431373238563538)
(X_480  0.14215686917304993)
(X_481  0.14215686917304993)
(X_482  0.12647059559822083)
(X_483  0.10686275362968445)
(X_484  0.11078432202339172)
(X_485  0.114705890417099)
(X_486  0.12647059559822083)
(X_487  0.24607843160629272)
(X_488  0.2696078419685364)
(X_489  0.2774509787559509)
(X_490  0.27352941036224365)
(X_491  0.2617647051811218)
(X_492  0.2696078419685364)
(X_493  0.2656862735748291)
(X_494  0.16568627953529358)
(X_495  0.1617647111415863)
(X_496  0.2617647051811218)
(X_497  0.2617647051811218)
(X_498  0.25784313678741455)
(X_499  0.15392157435417175)
(X_500  0.12647059559822083)
(X_501  0.13431373238563538)
(X_502  0.14215686917304993)
(X_503  0.14215686917304993)
(X_504  0.14215686917304993)
(X_505  0.23039215803146362)
(X_506  0.2186274528503418)
(X_507  0.2186274528503418)
(X_508  0.22254902124404907)
(X_509  0.12254902720451355)
(X_510  0.11862745881080627)
(X_511  0.114705890417099)
(X_512  0.19901961088180542)
(X_513  0.0990196168422699)
(X_514  0.10686275362968445)
(X_515  0.11862745881080627)
(X_516  0.2343137264251709)
(X_517  0.24215686321258545)
(X_518  0.24215686321258545)
(X_519  0.2343137264251709)
(X_520  0.22647058963775635)
(X_521  0.24607843160629272)
(X_522  0.2539215683937073)
(X_523  0.13823530077934265)
(X_524  0.11078432202339172)
(X_525  0.09509804844856262)
(X_526  0.10686275362968445)
(X_527  0.12254902720451355)
(X_528  0.13823530077934265)
(X_529  0.1460784375667572)
(X_530  0.15784314274787903)
(X_531  0.25784313678741455)
(X_532  0.05980392172932625)
(X_533  0.0676470622420311)
(X_534  0.07941177487373352)
(X_535  0.08725491166114807)
(X_536  0.09509804844856262)
(X_537  0.10294118523597717)
(X_538  0.11078432202339172)
(X_539  0.114705890417099)
(X_540  0.114705890417099)
(X_541  0.11078432202339172)
(X_542  0.10686275362968445)
(X_543  0.20686274766921997)
(X_544  0.20686274766921997)
(X_545  0.10686275362968445)
(X_546  0.10686275362968445)
(X_547  0.20686274766921997)
(X_548  0.2029411792755127)
(X_549  0.22254902124404907)
(X_550  0.23823529481887817)
(X_551  0.12647059559822083)
(X_552  0.10686275362968445)
(X_553  0.09509804844856262)
(X_554  0.11078432202339172)
(X_555  0.1303921639919281)
(X_556  0.114705890417099)
(X_557  0.22254902124404907)
(X_558  0.13431373238563538)
(X_559  0.13431373238563538)
(X_560  0.04411764815449715)
(X_561  0.05588235333561897)
(X_562  0.0676470622420311)
(X_563  0.0676470622420311)
(X_564  0.05980392172932625)
(X_565  0.0519607849419117)
(X_566  0.05588235333561897)
(X_567  0.05980392172932625)
(X_568  0.16764706373214722)
(X_569  0.06372549384832382)
(X_570  0.05980392172932625)
(X_571  0.0519607849419117)
(X_572  0.04803921654820442)
(X_573  0.04411764815449715)
(X_574  0.04803921654820442)
(X_575  0.0519607849419117)
(X_576  0.0519607849419117)
(X_577  0.1558823585510254)
(X_578  0.15980392694473267)
(X_579  0.06372549384832382)
(X_580  0.06372549384832382)
(X_581  0.06372549384832382)
(X_582  0.0676470622420311)
(X_583  0.07156863063573837)
(X_584  0.04019607976078987)
(X_585  0.0519607849419117)
(X_586  0.05980392172932625)
(X_587  0.16372549533843994)
(X_588  0.136274516582489)
(X_589  0.1401960849761963)
(X_590  0.14803922176361084)
(X_591  0.04411764815449715)
(X_592  0.04019607976078987)
(X_593  0.036274511367082596)
(X_594  0.136274516582489)
(X_595  0.1401960849761963)
(X_596  0.028431374579668045)
(X_597  0.03235294297337532)
(X_598  0.03235294297337532)
(X_599  0.13235294818878174)
(X_600  0.12843137979507446)
(X_601  0.12843137979507446)
(X_602  0.136274516582489)
(X_603  0.14411765336990356)
(X_604  0.04019607976078987)
(X_605  0.03235294297337532)
(X_606  0.02450980618596077)
(X_607  0.12843137979507446)
(X_608  0.136274516582489)
(X_609  0.1401960849761963)
(X_610  0.03235294297337532)
(X_611  0.020588237792253494)
(X_612  0.036274511367082596)
(X_613  0.14411765336990356)
(X_614  0.1558823585510254)
(X_615  0.1558823585510254)
(X_616  0.020588237792253494)
(X_617  0.12058823555707932)
(X_618  0.12450980395078659)
(X_619  0.13235294818878174)
(X_620  0.1401960849761963)
(X_621  0.04803921654820442)
(X_622  0.0519607849419117)
(X_623  0.0519607849419117)
(X_624  0.13235294818878174)
(X_625  0.1401960849761963)
(X_626  0.14803922176361084)
(X_627  0.14803922176361084)
(X_628  0.1401960849761963)
(X_629  0.136274516582489)
(X_630  0.14411765336990356)
(X_631  0.15196079015731812)
(X_632  0.04803921654820442)
(X_633  0.1401960849761963)
(X_634  0.13235294818878174)
(X_635  0.136274516582489)
(X_636  0.14411765336990356)
(X_637  0.04411764815449715)
(X_638  0.136274516582489)
(X_639  0.12843137979507446)
(X_640  0.12450980395078659)
(X_641  0.13235294818878174)
(X_642  0.1401960849761963)
(X_643  0.1401960849761963)
(X_644  0.14411765336990356)
(X_645  0.136274516582489)
(X_646  0.028431374579668045)
(X_647  0.03235294297337532)
(X_648  0.04019607976078987)
(X_649  0.14803922176361084)
(X_650  0.14411765336990356)
(X_651  0.1401960849761963)
(X_652  0.12843137979507446)
(X_653  0.04019607976078987)
(X_654  0.04803921654820442)
(X_655  0.04411764815449715)
(X_656  0.12843137979507446)
(X_657  0.11666666716337204)
(X_658  0.12058823555707932)
(X_659  0.12450980395078659)
(X_660  0.12450980395078659)
(X_661  0.12843137979507446)
(X_662  0.028431374579668045)
(X_663  0.03235294297337532)
(X_664  0.03235294297337532)
(X_665  0.03235294297337532)
(X_666  0.036274511367082596)
(X_667  0.04019607976078987)
(X_668  0.03235294297337532)
(X_669  0.04019607976078987)
(X_670  0.04411764815449715)
(X_671  0.14411765336990356)
(X_672  0.028431374579668045)
(X_673  0.12843137979507446)
(X_674  0.12843137979507446)
(X_675  0.12450980395078659)
(X_676  0.12450980395078659)
(X_677  0.12450980395078659)
(X_678  0.12058823555707932)
(X_679  0.12058823555707932)
(X_680  0.11666666716337204)
(X_681  0.12058823555707932)
(X_682  0.12058823555707932)
(X_683  0.12058823555707932)
(X_684  0.020588237792253494)
(X_685  0.12058823555707932)
(X_686  0.12058823555707932)
(X_687  0.12450980395078659)
(X_688  0.12843137979507446)
(X_689  0.10882353037595749)
(X_690  0.12450980395078659)
(X_691  0.136274516582489)
(X_692  0.11274509876966476)
(X_693  0.12450980395078659)
(X_694  0.1401960849761963)
(X_695  0.12058823555707932)
(X_696  0.12843137979507446)
(X_697  0.028431374579668045)
(X_698  0.020588237792253494)
(X_699  0.11666666716337204)
(X_700  0.12450980395078659)
(X_701  0.12450980395078659)
(X_702  0.12450980395078659)
(X_703  0.12450980395078659)
(X_704  0.12058823555707932)
(X_705  0.12058823555707932)
(X_706  0.01666666939854622)
(X_707  0.01666666939854622)
(X_708  0.028431374579668045)
(X_709  0.028431374579668045)
(X_710  0.02450980618596077)
(X_711  0.020588237792253494)
(X_712  0.01666666939854622)
(X_713  0.01666666939854622)
(X_714  0.01666666939854622)
(X_715  0.11666666716337204)
(X_716  0.028431374579668045)
(X_717  0.004901961423456669)
(X_718  0.020588237792253494)
(X_719  0.028431374579668045)
(X_720  0.004901961423456669)
(X_721  0.012745101936161518)
(X_722  0.02450980618596077)
(X_723  0.004901961423456669)
(X_724  0.028431374579668045)
(X_725  0.028431374579668045)
(X_726  0.02450980618596077)
(X_727  0.020588237792253494)
(X_728  0.12058823555707932)
(X_729  0.12058823555707932)
(X_730  0.020588237792253494)
(X_731  0.11666666716337204)
(X_732  0.11666666716337204)
(X_733  0.11666666716337204)
(X_734  0.11274509876966476)
(X_735  0.11274509876966476)
(X_736  0.02450980618596077)
(X_737  0.02450980618596077)
(X_738  0.12058823555707932)
(X_739  0.020588237792253494)
(X_740  0.020588237792253494)
(X_741  0.020588237792253494)
(X_742  0.02450980618596077)
(X_743  0.12450980395078659)
(X_744  0.01666666939854622)
(X_745  -0.0029411755967885256)
(X_746  0.01666666939854622)
(X_747  0.028431374579668045)
(X_748  0.008823529817163944)
(X_749  0.01666666939854622)
(X_750  0.136274516582489)
(X_751  0.11666666716337204)
(X_752  0.11274509876966476)
(X_753  0.11274509876966476)
(X_754  0.11274509876966476)
(X_755  0.11274509876966476)
(X_756  0.01666666939854622)
(X_757  0.01666666939854622)
(X_758  0.01666666939854622)
(X_759  0.11274509876966476)
(X_760  0.11274509876966476)
(X_761  0.10882353037595749)
(X_762  0.10882353037595749)
(X_763  0.10882353037595749)
(X_764  0.10490196198225021)
(X_765  0.004901961423456669)
(X_766  0.10882353037595749)
(X_767  0.11274509876966476)
(X_768  0.12450980395078659)
(X_769  0.136274516582489)
(X_770  0.14411765336990356)
(X_771  0.15196079015731812)
(X_772  0.18333333730697632)
(X_773  0.06372549384832382)
(X_774  0.09117648005485535)
(X_775  0.11078432202339172)
(X_776  0.10294118523597717)
(X_777  0.12254902720451355)
(X_778  0.15000000596046448)
(X_779  0.13431373238563538)
(X_780  0.1931372582912445)
(X_781  0.1931372582912445)
(X_782  0.19705882668495178)
(X_783  0.20098040997982025)
(Y_0 26.782474517822266)
(Y_1 18.03801727294922)
(Y_2 9.209006309509277)
(Y_3 -54.199981689453125))