((X_0  0.8107843399047852)
(X_1  0.7107843160629272)
(X_2  0.7147058844566345)
(X_3  0.7574174404144287)
(X_4  0.7343137264251709)
(X_5  0.7460784316062927)
(X_6  0.7617647051811218)
(X_7  0.7696078419685364)
(X_8  0.7656862735748291)
(X_9  0.8151316046714783)
(X_10  0.7994453310966492)
(X_11  0.7264705896377563)
(X_12  0.7343137264251709)
(X_13  0.8460784554481506)
(X_14  0.8539215922355652)
(X_15  0.7539215683937073)
(X_16  0.7186274528503418)
(X_17  0.7382352948188782)
(X_18  0.75)
(X_19  0.7539215683937073)
(X_20  0.7617647051811218)
(X_21  0.8813725709915161)
(X_22  0.7813725471496582)
(X_23  0.7696078419685364)
(X_24  0.8852941393852234)
(X_25  0.7852941155433655)
(X_26  0.7774509787559509)
(X_27  0.8735294342041016)
(X_28  0.27352941036224365)
(X_29  0.18137255311012268)
(X_30  0.19705882668495178)
(X_31  0.20490197837352753)
(X_32  0.19705882668495178)
(X_33  0.18137255311012268)
(X_34  0.15784314274787903)
(X_35  0.17702525854110718)
(X_36  0.1774509847164154)
(X_37  0.2696078419685364)
(X_38  0.2617647051811218)
(X_39  0.1617647111415863)
(X_40  0.2044762372970581)
(X_41  0.27352941036224365)
(X_42  0.27352941036224365)
(X_43  0.23473945260047913)
(X_44  0.30098041892051697)
(X_45  0.3088235557079315)
(X_46  0.2970588207244873)
(X_47  0.1774509847164154)
(X_48  0.1774509847164154)
(X_49  0.18921568989753723)
(X_50  0.1931372582912445)
(X_51  0.18529412150382996)
(X_52  0.3088235557079315)
(X_53  0.30098041892051697)
(X_54  0.1931372582912445)
(X_55  0.2813725471496582)
(X_56  0.23039215803146362)
(X_57  0.14215686917304993)
(X_58  0.15392157435417175)
(X_59  0.15784314274787903)
(X_60  0.15000000596046448)
(X_61  0.12647059559822083)
(X_62  0.09509804844856262)
(X_63  0.11428017169237137)
(X_64  0.1303921639919281)
(X_65  0.1303921639919281)
(X_66  0.12647059559822083)
(X_67  0.1303921639919281)
(X_68  0.20336690545082092)
(X_69  0.20336690545082092)
(X_70  0.23039215803146362)
(X_71  0.12254902720451355)
(X_72  0.09509804844856262)
(X_73  0.10686275362968445)
(X_74  0.11078432202339172)
(X_75  0.10294118523597717)
(X_76  0.20686274766921997)
(X_77  0.22254902124404907)
(X_78  0.1916022002696991)
(X_79  0.2186274528503418)
(X_80  0.20686274766921997)
(X_81  0.21078431606292725)
(X_82  0.114705890417099)
(X_83  0.22254902124404907)
(X_84  0.24215686321258545)
(X_85  0.2072884738445282)
(X_86  0.1460784375667572)
(X_87  0.1460784375667572)
(X_88  0.15000000596046448)
(X_89  0.15000000596046448)
(X_90  0.15000000596046448)
(X_91  0.15000000596046448)
(X_92  0.22254902124404907)
(X_93  0.114705890417099)
(X_94  0.11078432202339172)
(X_95  0.114705890417099)
(X_96  0.2186274528503418)
(X_97  0.22254902124404907)
(X_98  0.11862745881080627)
(X_99  0.21470588445663452)
(X_100  0.17941176891326904)
(X_101  0.2029411792755127)
(X_102  0.22254902124404907)
(X_103  0.22647058963775635)
(X_104  0.2343137264251709)
(X_105  0.14215686917304993)
(X_106  0.13431373238563538)
(X_107  0.11862745881080627)
(X_108  0.13823530077934265)
(X_109  0.13823530077934265)
(X_110  0.1303921639919281)
(X_111  0.22647058963775635)
(X_112  0.11078432202339172)
(X_113  0.17983749508857727)
(X_114  0.2186274528503418)
(X_115  0.22254902124404907)
(X_116  0.16133898496627808)
(X_117  0.1303921639919281)
(X_118  0.13823530077934265)
(X_119  0.13823530077934265)
(X_120  0.23039215803146362)
(X_121  0.2186274528503418)
(X_122  0.2029411792755127)
(X_123  0.0990196168422699)
(X_124  0.17199435830116272)
(X_125  0.114705890417099)
(X_126  0.12254902720451355)
(X_127  0.12254902720451355)
(X_128  0.2343137264251709)
(X_129  0.24607843160629272)
(X_130  0.24215686321258545)
(X_131  0.22647058963775635)
(X_132  0.2186274528503418)
(X_133  0.22254902124404907)
(X_134  0.114705890417099)
(X_135  0.19901961088180542)
(X_136  0.114705890417099)
(X_137  0.11078432202339172)
(X_138  0.10686275362968445)
(X_139  0.20686274766921997)
(X_140  0.19901961088180542)
(X_141  0.20686274766921997)
(X_142  0.18375906348228455)
(X_143  0.22647058963775635)
(X_144  0.12254902720451355)
(X_145  0.11078432202339172)
(X_146  0.09117648005485535)
(X_147  0.17941176891326904)
(X_148  0.24215686321258545)
(X_149  0.22647058963775635)
(X_150  0.21078431606292725)
(X_151  0.2029411792755127)
(X_152  0.21078431606292725)
(X_153  0.22254902124404907)
(X_154  0.23039215803146362)
(X_155  0.19944533705711365)
(X_156  0.1460784375667572)
(X_157  0.14215686917304993)
(X_158  0.22254902124404907)
(X_159  0.19901961088180542)
(X_160  0.2029411792755127)
(X_161  0.13431373238563538)
(X_162  0.1617647111415863)
(X_163  0.2696078419685364)
(X_164  0.23039215803146362)
(X_165  0.11862745881080627)
(X_166  0.20686274766921997)
(X_167  0.19901961088180542)
(X_168  0.15392157435417175)
(X_169  0.15784314274787903)
(X_170  0.2617647051811218)
(X_171  0.2656862735748291)
(X_172  0.2617647051811218)
(X_173  0.18486839532852173)
(X_174  0.13823530077934265)
(X_175  0.1303921639919281)
(X_176  0.24215686321258545)
(X_177  0.23039215803146362)
(X_178  0.2186274528503418)
(X_179  0.2186274528503418)
(X_180  0.22254902124404907)
(X_181  0.23039215803146362)
(X_182  0.2343137264251709)
(X_183  0.2343137264251709)
(X_184  0.23823529481887817)
(X_185  0.25)
(X_186  0.2617647051811218)
(X_187  0.27352941036224365)
(X_188  0.2515350878238678)
(X_189  0.27941176295280457)
(X_190  0.32647058367729187)
(X_191  0.4421568810939789)
(X_192  0.457843154668808)
(X_193  0.4264706075191498)
(X_194  0.3794117867946625)
(X_195  0.3284313976764679)
(X_196  0.13431373238563538)
(X_197  0.22254902124404907)
(X_198  0.21078431606292725)
(X_199  0.17199435830116272)
(X_200  0.21078431606292725)
(X_201  0.22647058963775635)
(X_202  0.24607843160629272)
(X_203  0.2617647051811218)
(X_204  0.14215686917304993)
(X_205  0.23823529481887817)
(X_206  0.2343137264251709)
(X_207  0.23823529481887817)
(X_208  0.18094682693481445)
(X_209  0.1460784375667572)
(X_210  0.14215686917304993)
(X_211  0.13431373238563538)
(X_212  0.19117647409439087)
(X_213  0.23039215803146362)
(X_214  0.2852941155433655)
(X_215  0.33235296607017517)
(X_216  0.29509803652763367)
(X_217  0.3539215624332428)
(X_218  0.4892157018184662)
(X_219  0.49313727021217346)
(X_220  0.5794118046760559)
(X_221  0.5558823943138123)
(X_222  0.42450979351997375)
(X_223  0.49313727021217346)
(X_224  0.09117648005485535)
(X_225  0.09509804844856262)
(X_226  0.11078432202339172)
(X_227  0.1303921639919281)
(X_228  0.12647059559822083)
(X_229  0.11078432202339172)
(X_230  0.10686275362968445)
(X_231  0.11862745881080627)
(X_232  0.17549020051956177)
(X_233  0.17199435830116272)
(X_234  0.18375906348228455)
(X_235  0.19509804248809814)
(X_236  0.19509804248809814)
(X_237  0.12254902720451355)
(X_238  0.12647059559822083)
(X_239  0.11078432202339172)
(X_240  0.08725491166114807)
(X_241  0.21905317902565002)
(X_242  0.3598039448261261)
(X_243  0.4892157018184662)
(X_244  0.551960825920105)
(X_245  0.5009803771972656)
(X_246  0.47745099663734436)
(X_247  0.5362744927406311)
(X_248  0.40882351994514465)
(X_249  0.4362744987010956)
(X_250  0.4166666567325592)
(X_251  0.49313727021217346)
(X_252  0.114705890417099)
(X_253  0.21078431606292725)
(X_254  0.14957427978515625)
(X_255  0.22254902124404907)
(X_256  0.21470588445663452)
(X_257  0.19509804248809814)
(X_258  0.19117647409439087)
(X_259  0.20686274766921997)
(X_260  0.1460784375667572)
(X_261  0.21470588445663452)
(X_262  0.1872549057006836)
(X_263  0.1872549057006836)
(X_264  0.19117647409439087)
(X_265  0.18333333730697632)
(X_266  0.17549020051956177)
(X_267  0.17941176891326904)
(X_268  0.2617647051811218)
(X_269  0.3598039448261261)
(X_270  0.4421568810939789)
(X_271  0.3970588147640228)
(X_272  0.4598039388656616)
(X_273  0.5794118046760559)
(X_274  0.5794118046760559)
(X_275  0.6107843518257141)
(X_276  0.7637255191802979)
(X_277  0.6436919569969177)
(X_278  0.46764707565307617)
(X_279  0.3499999940395355)
(X_280  0.16526055335998535)
(X_281  0.12254902720451355)
(X_282  0.12254902720451355)
(X_283  0.12647059559822083)
(X_284  0.114705890417099)
(X_285  0.19509804248809814)
(X_286  0.19509804248809814)
(X_287  0.21078431606292725)
(X_288  0.12647059559822083)
(X_289  0.09117648005485535)
(X_290  0.0833333432674408)
(X_291  0.10686275362968445)
(X_292  0.10294118523597717)
(X_293  0.07941177487373352)
(X_294  0.09509804844856262)
(X_295  0.14215686917304993)
(X_296  0.43039217591285706)
(X_297  0.4362744987010956)
(X_298  0.45588237047195435)
(X_299  0.4166666567325592)
(X_300  0.5715686678886414)
(X_301  0.6774510145187378)
(X_302  0.7401961088180542)
(X_303  0.6637254953384399)
(X_304  0.8539215922355652)
(X_305  0.7563080787658691)
(X_306  0.550000011920929)
(X_307  0.5441176295280457)
(X_308  0.22254902124404907)
(X_309  0.2186274528503418)
(X_310  0.22647058963775635)
(X_311  0.13823530077934265)
(X_312  0.1303921639919281)
(X_313  0.14957427978515625)
(X_314  0.11078432202339172)
(X_315  0.12647059559822083)
(X_316  0.10686275362968445)
(X_317  0.11078432202339172)
(X_318  0.10686275362968445)
(X_319  0.19117647409439087)
(X_320  0.17549020051956177)
(X_321  0.17983749508857727)
(X_322  0.22058825194835663)
(X_323  0.3225490152835846)
(X_324  0.40882351994514465)
(X_325  0.522549033164978)
(X_326  0.550000011920929)
(X_327  0.5068627595901489)
(X_328  0.5421568751335144)
(X_329  0.6284313797950745)
(X_330  0.7064370512962341)
(X_331  0.7872549295425415)
(X_332  0.679411768913269)
(X_333  0.6676470637321472)
(X_334  0.593137264251709)
(X_335  0.638235330581665)
(X_336  0.21078431606292725)
(X_337  0.21470588445663452)
(X_338  0.23039215803146362)
(X_339  0.24607843160629272)
(X_340  0.23823529481887817)
(X_341  0.21470588445663452)
(X_342  0.20686274766921997)
(X_343  0.114705890417099)
(X_344  0.12647059559822083)
(X_345  0.24607843160629272)
(X_346  0.2186274528503418)
(X_347  0.16764706373214722)
(X_348  0.0990196168422699)
(X_349  0.23235295712947845)
(X_350  0.3656862676143646)
(X_351  0.5284313559532166)
(X_352  0.46568629145622253)
(X_353  0.5833333730697632)
(X_354  0.665686309337616)
(X_355  0.5852941274642944)
(X_356  0.6009804010391235)
(X_357  0.6774510145187378)
(X_358  0.6460784673690796)
(X_359  0.6500000357627869)
(X_360  0.6205882430076599)
(X_361  0.6323529481887817)
(X_362  0.5696078538894653)
(X_363  0.533888041973114)
(X_364  0.11862745881080627)
(X_365  0.21470588445663452)
(X_366  0.22647058963775635)
(X_367  0.23823529481887817)
(X_368  0.12647059559822083)
(X_369  0.19901961088180542)
(X_370  0.09117648005485535)
(X_371  0.0990196168422699)
(X_372  0.07156863063573837)
(X_373  0.12254902720451355)
(X_374  0.25)
(X_375  0.27352941036224365)
(X_376  0.28333333134651184)
(X_377  0.4166666567325592)
(X_378  0.4323529303073883)
(X_379  0.46568629145622253)
(X_380  0.49705883860588074)
(X_381  0.4598039388656616)
(X_382  0.5029411911964417)
(X_383  0.5147058963775635)
(X_384  0.4990196228027344)
(X_385  0.4362744987010956)
(X_386  0.40882351994514465)
(X_387  0.4868292212486267)
(X_388  0.5676470994949341)
(X_389  0.6264706254005432)
(X_390  0.6303921937942505)
(X_391  0.5872549414634705)
(X_392  0.2343137264251709)
(X_393  0.18768063187599182)
(X_394  0.22254902124404907)
(X_395  0.22647058963775635)
(X_396  0.2186274528503418)
(X_397  0.2029411792755127)
(X_398  0.17199435830116272)
(X_399  0.1916022002696991)
(X_400  0.21470588445663452)
(X_401  0.2813725471496582)
(X_402  0.35196080803871155)
(X_403  0.4225490391254425)
(X_404  0.5127450823783875)
(X_405  0.45588237047195435)
(X_406  0.3970588147640228)
(X_407  0.29901960492134094)
(X_408  0.42450979351997375)
(X_409  0.45588237047195435)
(X_410  0.4323529303073883)
(X_411  0.47745099663734436)
(X_412  0.43039217591285706)
(X_413  0.2872548997402191)
(X_414  0.36022964119911194)
(X_415  0.46176472306251526)
(X_416  0.26372548937797546)
(X_417  0.4504257142543793)
(X_418  0.47156864404678345)
(X_419  0.6029412150382996)
(X_420  0.1460784375667572)
(X_421  0.1303921639919281)
(X_422  0.12254902720451355)
(X_423  0.12254902720451355)
(X_424  0.12254902720451355)
(X_425  0.12254902720451355)
(X_426  0.17702525854110718)
(X_427  0.27352941036224365)
(X_428  0.41470590233802795)
(X_429  0.4382353127002716)
(X_430  0.3656862676143646)
(X_431  0.3735294044017792)
(X_432  0.42297473549842834)
(X_433  0.4382353127002716)
(X_434  0.32647058367729187)
(X_435  0.3225490152835846)
(X_436  0.4539215862751007)
(X_437  0.5127450823783875)
(X_438  0.43584877252578735)
(X_439  0.4225490391254425)
(X_440  0.3598039448261261)
(X_441  0.3088235557079315)
(X_442  0.18921568989753723)
(X_443  0.21274511516094208)
(X_444  0.19705882668495178)
(X_445  0.3186274468898773)
(X_446  0.41274508833885193)
(X_447  0.551960825920105)
(X_448  0.19509804248809814)
(X_449  0.19509804248809814)
(X_450  0.19509804248809814)
(X_451  0.19117647409439087)
(X_452  0.22254902124404907)
(X_453  0.20490197837352753)
(X_454  0.4225490391254425)
(X_455  0.5088235139846802)
(X_456  0.4735294282436371)
(X_457  0.4696078598499298)
(X_458  0.46568629145622253)
(X_459  0.45000001788139343)
(X_460  0.4068627655506134)
(X_461  0.36764708161354065)
(X_462  0.38333335518836975)
(X_463  0.4225490391254425)
(X_464  0.33039215207099915)
(X_465  0.32647058367729187)
(X_466  0.39901962876319885)
(X_467  0.344117671251297)
(X_468  0.2852941155433655)
(X_469  0.2539215683937073)
(X_470  0.25784313678741455)
(X_471  0.2774509787559509)
(X_472  0.2813725471496582)
(X_473  0.2852941155433655)
(X_474  0.31666669249534607)
(X_475  0.3637255132198334)
(X_476  0.16568627953529358)
(X_477  0.1617647111415863)
(X_478  0.2774509787559509)
(X_479  0.3245098292827606)
(X_480  0.28333333134651184)
(X_481  0.33039215207099915)
(X_482  0.34607842564582825)
(X_483  0.34215685725212097)
(X_484  0.4264706075191498)
(X_485  0.40294119715690613)
(X_486  0.28333333134651184)
(X_487  0.27156862616539)
(X_488  0.2558823525905609)
(X_489  0.26372548937797546)
(X_490  0.31078431010246277)
(X_491  0.3656862676143646)
(X_492  0.2872548997402191)
(X_493  0.26764705777168274)
(X_494  0.33235296607017517)
(X_495  0.2774509787559509)
(X_496  0.2343137264251709)
(X_497  0.22254902124404907)
(X_498  0.23823529481887817)
(X_499  0.25784313678741455)
(X_500  0.18094682693481445)
(X_501  0.13431373238563538)
(X_502  0.13823530077934265)
(X_503  0.1617647111415863)
(X_504  0.4107843339443207)
(X_505  0.29901960492134094)
(X_506  0.3680727779865265)
(X_507  0.3186274468898773)
(X_508  0.34215685725212097)
(X_509  0.3343137204647064)
(X_510  0.3029411733150482)
(X_511  0.30643704533576965)
(X_512  0.2598039209842682)
(X_513  0.2598039209842682)
(X_514  0.27941176295280457)
(X_515  0.31078431010246277)
(X_516  0.33039215207099915)
(X_517  0.3343137204647064)
(X_518  0.34607842564582825)
(X_519  0.36176469922065735)
(X_520  0.24803923070430756)
(X_521  0.21666668355464935)
(X_522  0.16960784792900085)
(X_523  0.12254902720451355)
(X_524  0.10294118523597717)
(X_525  0.10686275362968445)
(X_526  0.12647059559822083)
(X_527  0.18094682693481445)
(X_528  0.13823530077934265)
(X_529  0.11078432202339172)
(X_530  0.08725491166114807)
(X_531  0.18333333730697632)
(X_532  0.44607844948768616)
(X_533  0.4382353127002716)
(X_534  0.41470590233802795)
(X_535  0.3754902184009552)
(X_536  0.3401961028575897)
(X_537  0.23235295712947845)
(X_538  0.2598039209842682)
(X_539  0.2872548997402191)
(X_540  0.2754901945590973)
(X_541  0.2911764681339264)
(X_542  0.4264706075191498)
(X_543  0.37745097279548645)
(X_544  0.4009803831577301)
(X_545  0.3892156779766083)
(X_546  0.45000001788139343)
(X_547  0.3837590515613556)
(X_548  0.3088235557079315)
(X_549  0.2696078419685364)
(X_550  0.12254902720451355)
(X_551  0.09117648005485535)
(X_552  0.1872549057006836)
(X_553  0.19901961088180542)
(X_554  0.21078431606292725)
(X_555  0.11862745881080627)
(X_556  0.13823530077934265)
(X_557  0.10294118523597717)
(X_558  0.07549020648002625)
(X_559  0.09859389811754227)
(X_560  0.3558823764324188)
(X_561  0.35196080803871155)
(X_562  0.33627453446388245)
(X_563  0.32058826088905334)
(X_564  0.3245098292827606)
(X_565  0.26372548937797546)
(X_566  0.3225490152835846)
(X_567  0.3696078360080719)
(X_568  0.3499999940395355)
(X_569  0.3382352888584137)
(X_570  0.33039215207099915)
(X_571  0.3343137204647064)
(X_572  0.34607842564582825)
(X_573  0.3343137204647064)
(X_574  0.29509803652763367)
(X_575  0.25196078419685364)
(X_576  0.15392157435417175)
(X_577  0.12254902720451355)
(X_578  0.08725491166114807)
(X_579  0.16764706373214722)
(X_580  0.1715686321258545)
(X_581  0.17941176891326904)
(X_582  0.17549020051956177)
(X_583  0.1715686321258545)
(X_584  0.19901961088180542)
(X_585  0.07156863063573837)
(X_586  0.0519607849419117)
(X_587  0.0519607849419117)
(X_588  0.3558823764324188)
(X_589  0.240196093916893)
(X_590  0.24411766231060028)
(X_591  0.29509803652763367)
(X_592  0.3656862676143646)
(X_593  0.41274508833885193)
(X_594  0.5127450823783875)
(X_595  0.49313727021217346)
(X_596  0.4382353127002716)
(X_597  0.33039215207099915)
(X_598  0.3186274468898773)
(X_599  0.3029411733150482)
(X_600  0.29509803652763367)
(X_601  0.26764705777168274)
(X_602  0.20490197837352753)
(X_603  0.1460784375667572)
(X_604  0.12254902720451355)
(X_605  0.10686275362968445)
(X_606  0.18333333730697632)
(X_607  0.17549020051956177)
(X_608  0.17549020051956177)
(X_609  0.17549020051956177)
(X_610  0.16764706373214722)
(X_611  0.12493552267551422)
(X_612  0.13277865946292877)
(X_613  0.04803921654820442)
(X_614  0.1401960849761963)
(X_615  0.1558823585510254)
(X_616  0.45000001788139343)
(X_617  0.43431374430656433)
(X_618  0.4382353127002716)
(X_619  0.37745097279548645)
(X_620  0.42450979351997375)
(X_621  0.5362744927406311)
(X_622  0.43192723393440247)
(X_623  0.38878998160362244)
(X_624  0.3794117867946625)
(X_625  0.387254923582077)
(X_626  0.3754902184009552)
(X_627  0.3598039448261261)
(X_628  0.24803923070430756)
(X_629  0.2245098203420639)
(X_630  0.2617647051811218)
(X_631  0.0990196168422699)
(X_632  0.13388800621032715)
(X_633  0.09117648005485535)
(X_634  0.17941176891326904)
(X_635  0.1715686321258545)
(X_636  0.1715686321258545)
(X_637  0.1715686321258545)
(X_638  0.1715686321258545)
(X_639  0.1715686321258545)
(X_640  0.16372549533843994)
(X_641  0.14803922176361084)
(X_642  0.14411765336990356)
(X_643  0.15980392694473267)
(X_644  0.49313727021217346)
(X_645  0.45434728264808655)
(X_646  0.48137256503105164)
(X_647  0.3656862676143646)
(X_648  0.34607842564582825)
(X_649  0.33039215207099915)
(X_650  0.32647058367729187)
(X_651  0.32647058367729187)
(X_652  0.2754901945590973)
(X_653  0.2558823525905609)
(X_654  0.20490197837352753)
(X_655  0.15392157435417175)
(X_656  0.15000000596046448)
(X_657  0.2044762372970581)
(X_658  0.2696078419685364)
(X_659  0.1460784375667572)
(X_660  0.16372549533843994)
(X_661  0.15980392694473267)
(X_662  0.15196079015731812)
(X_663  0.14411765336990356)
(X_664  0.04019607976078987)
(X_665  0.04803921654820442)
(X_666  0.15980392694473267)
(X_667  0.0676470622420311)
(X_668  0.06372549384832382)
(X_669  0.04411764815449715)
(X_670  0.036274511367082596)
(X_671  0.04803921654820442)
(X_672  0.3754902184009552)
(X_673  0.31078431010246277)
(X_674  0.3343137204647064)
(X_675  0.37591591477394104)
(X_676  0.24411766231060028)
(X_677  0.30098041892051697)
(X_678  0.31666669249534607)
(X_679  0.3558823764324188)
(X_680  0.20098040997982025)
(X_681  0.23081788420677185)
(X_682  0.10294118523597717)
(X_683  0.06372549384832382)
(X_684  0.07156863063573837)
(X_685  0.114705890417099)
(X_686  0.14215686917304993)
(X_687  0.17702525854110718)
(X_688  0.17941176891326904)
(X_689  0.15980392694473267)
(X_690  0.15196079015731812)
(X_691  0.1558823585510254)
(X_692  0.1558823585510254)
(X_693  0.15196079015731812)
(X_694  0.12101395428180695)
(X_695  0.17549020051956177)
(X_696  0.15980392694473267)
(X_697  0.1558823585510254)
(X_698  0.1558823585510254)
(X_699  0.15196079015731812)
(X_700  0.32058826088905334)
(X_701  0.3170923888683319)
(X_702  0.2754901945590973)
(X_703  0.25196078419685364)
(X_704  0.19705882668495178)
(X_705  0.15392157435417175)
(X_706  0.1617647111415863)
(X_707  0.18529412150382996)
(X_708  0.1774509847164154)
(X_709  0.15784314274787903)
(X_710  0.114705890417099)
(X_711  0.07156863063573837)
(X_712  0.06372549384832382)
(X_713  0.0833333432674408)
(X_714  0.09509804844856262)
(X_715  0.08725491166114807)
(X_716  0.10251546651124954)
(X_717  0.0519607849419117)
(X_718  0.04411764815449715)
(X_719  0.04803921654820442)
(X_720  0.08290762454271317)
(X_721  0.07898605614900589)
(X_722  0.08290762454271317)
(X_723  0.09859389811754227)
(X_724  0.15196079015731812)
(X_725  0.04803921654820442)
(X_726  0.04411764815449715)
(X_727  0.04019607976078987)
(X_728  0.24607843160629272)
(X_729  0.2386610209941864)
(X_730  0.2970588207244873)
(X_731  0.2774509787559509)
(X_732  0.2343137264251709)
(X_733  0.19901961088180542)
(X_734  0.19117647409439087)
(X_735  0.19509804248809814)
(X_736  0.12254902720451355)
(X_737  0.12647059559822083)
(X_738  0.11078432202339172)
(X_739  0.07549020648002625)
(X_740  0.05588235333561897)
(X_741  0.15196079015731812)
(X_742  0.15196079015731812)
(X_743  0.14411765336990356)
(X_744  0.15196079015731812)
(X_745  0.1401960849761963)
(X_746  0.03235294297337532)
(X_747  0.04019607976078987)
(X_748  0.04019607976078987)
(X_749  0.13235294818878174)
(X_750  0.04019607976078987)
(X_751  0.1558823585510254)
(X_752  0.1401960849761963)
(X_753  0.1401960849761963)
(X_754  0.136274516582489)
(X_755  0.13235294818878174)
(X_756  0.19901961088180542)
(X_757  0.23039215803146362)
(X_758  0.24607843160629272)
(X_759  0.2343137264251709)
(X_760  0.10294118523597717)
(X_761  0.07549020648002625)
(X_762  0.0519607849419117)
(X_763  0.036274511367082596)
(X_764  0.05980392172932625)
(X_765  0.18333333730697632)
(X_766  0.09117648005485535)
(X_767  0.0676470622420311)
(X_768  0.04411764815449715)
(X_769  0.04019607976078987)
(X_770  0.04411764815449715)
(X_771  0.04411764815449715)
(X_772  0.04803921654820442)
(X_773  0.03235294297337532)
(X_774  0.028431374579668045)
(X_775  0.04019607976078987)
(X_776  0.07506448775529861)
(X_777  0.03235294297337532)
(X_778  0.036274511367082596)
(X_779  0.0519607849419117)
(X_780  0.036274511367082596)
(X_781  0.036274511367082596)
(X_782  0.03235294297337532)
(X_783  0.028431374579668045)
(Y_0 -34.338375091552734)
(Y_1 58.981849670410156)
(Y_2 -33.059383392333984)
(Y_3 7.251408100128174))