((X_0  1.0499999523162842)
(X_1  0.949999988079071)
(X_2  0.949999988079071)
(X_3  1.0499999523162842)
(X_4  0.949999988079071)
(X_5  0.949999988079071)
(X_6  0.949999988079071)
(X_7  0.949999988079071)
(X_8  1.0382353067398071)
(X_9  1.0421568155288696)
(X_10  1.0460784435272217)
(X_11  1.0499999523162842)
(X_12  1.0499999523162842)
(X_13  1.0499999523162842)
(X_14  1.0499999523162842)
(X_15  0.949999988079071)
(X_16  0.9460784196853638)
(X_17  0.9460784196853638)
(X_18  0.9460784196853638)
(X_19  0.949999988079071)
(X_20  1.0499999523162842)
(X_21  1.0499999523162842)
(X_22  1.0499999523162842)
(X_23  0.949999988079071)
(X_24  1.0421568155288696)
(X_25  0.9460784196853638)
(X_26  0.949999988079071)
(X_27  0.949999988079071)
(X_28  0.551960825920105)
(X_29  0.5637255311012268)
(X_30  0.48725491762161255)
(X_31  0.5186274647712708)
(X_32  0.5539215803146362)
(X_33  0.5852941274642944)
(X_34  0.6088235378265381)
(X_35  0.6205882430076599)
(X_36  0.7598039507865906)
(X_37  0.6715686321258545)
(X_38  0.6911764740943909)
(X_39  0.7107843160629272)
(X_40  0.7343137264251709)
(X_41  0.8539215922355652)
(X_42  0.865686297416687)
(X_43  0.8735294342041016)
(X_44  0.9049019813537598)
(X_45  0.908823549747467)
(X_46  0.820588231086731)
(X_47  0.8323529362678528)
(X_48  0.8480392098426819)
(X_49  0.863725483417511)
(X_50  0.8754901885986328)
(X_51  0.8794117569923401)
(X_52  0.9950980544090271)
(X_53  1.0029411315917969)
(X_54  1.0147058963775635)
(X_55  1.0264705419540405)
(X_56  0.09705882519483566)
(X_57  -0.0029411755967885256)
(X_58  -0.0029411755967885256)
(X_59  0.0009803927969187498)
(X_60  0.0009803927969187498)
(X_61  0.0009803927969187498)
(X_62  0.004901961423456669)
(X_63  0.004901961423456669)
(X_64  -0.010784312151372433)
(X_65  -0.0029411755967885256)
(X_66  0.008823529817163944)
(X_67  0.12450980395078659)
(X_68  0.136274516582489)
(X_69  0.14411765336990356)
(X_70  0.15196079015731812)
(X_71  0.1558823585510254)
(X_72  0.08725491166114807)
(X_73  0.09509804844856262)
(X_74  0.10686275362968445)
(X_75  0.12254902720451355)
(X_76  0.23823529481887817)
(X_77  0.2539215683937073)
(X_78  0.2656862735748291)
(X_79  0.27352941036224365)
(X_80  0.3127451241016388)
(X_81  0.32058826088905334)
(X_82  0.33235296607017517)
(X_83  0.344117671251297)
(X_84  0.09313725680112839)
(X_85  -0.006862743757665157)
(X_86  -0.0029411755967885256)
(X_87  -0.0029411755967885256)
(X_88  -0.0029411755967885256)
(X_89  0.0009803927969187498)
(X_90  0.0009803927969187498)
(X_91  0.0009803927969187498)
(X_92  0.10882353037595749)
(X_93  0.008823529817163944)
(X_94  0.008823529817163944)
(X_95  0.008823529817163944)
(X_96  0.10490196198225021)
(X_97  0.10098039358854294)
(X_98  -0.0029411755967885256)
(X_99  0.09313725680112839)
(X_100  0.09313725680112839)
(X_101  0.09705882519483566)
(X_102  0.09705882519483566)
(X_103  -0.0029411755967885256)
(X_104  0.0009803927969187498)
(X_105  0.0009803927969187498)
(X_106  0.0009803927969187498)
(X_107  0.004901961423456669)
(X_108  -0.018627449870109558)
(X_109  -0.018627449870109558)
(X_110  -0.010784312151372433)
(X_111  -0.010784312151372433)
(X_112  -0.014705880545079708)
(X_113  0.08921568840742111)
(X_114  0.09313725680112839)
(X_115  0.0009803927969187498)
(X_116  0.004901961423456669)
(X_117  0.012745101936161518)
(X_118  0.01666666939854622)
(X_119  0.020588237792253494)
(X_120  0.08921568840742111)
(X_121  0.09313725680112839)
(X_122  -0.0029411755967885256)
(X_123  0.0009803927969187498)
(X_124  0.10098039358854294)
(X_125  0.0009803927969187498)
(X_126  0.0009803927969187498)
(X_127  0.0009803927969187498)
(X_128  0.08921568840742111)
(X_129  0.08921568840742111)
(X_130  0.08529412001371384)
(X_131  0.08137255162000656)
(X_132  0.07745098322629929)
(X_133  0.07352941483259201)
(X_134  -0.030392156913876534)
(X_135  -0.030392156913876534)
(X_136  0.0009803927969187498)
(X_137  0.0009803927969187498)
(X_138  0.10098039358854294)
(X_139  0.09705882519483566)
(X_140  0.11666666716337204)
(X_141  0.11274509876966476)
(X_142  0.10490196198225021)
(X_143  0.09705882519483566)
(X_144  0.08529412001371384)
(X_145  -0.022549020126461983)
(X_146  -0.030392156913876534)
(X_147  0.06568627804517746)
(X_148  0.09313725680112839)
(X_149  0.09705882519483566)
(X_150  0.10098039358854294)
(X_151  0.10098039358854294)
(X_152  0.10490196198225021)
(X_153  0.10098039358854294)
(X_154  0.10098039358854294)
(X_155  0.09705882519483566)
(X_156  -0.010784312151372433)
(X_157  -0.010784312151372433)
(X_158  0.09313725680112839)
(X_159  0.09705882519483566)
(X_160  0.10490196198225021)
(X_161  0.10882353037595749)
(X_162  0.11274509876966476)
(X_163  0.11274509876966476)
(X_164  0.08137255162000656)
(X_165  0.08137255162000656)
(X_166  0.07745098322629929)
(X_167  0.07745098322629929)
(X_168  -0.018627449870109558)
(X_169  -0.014705880545079708)
(X_170  -0.010784312151372433)
(X_171  -0.0029411755967885256)
(X_172  0.004901961423456669)
(X_173  0.008823529817163944)
(X_174  0.11666666716337204)
(X_175  0.11666666716337204)
(X_176  0.10882353037595749)
(X_177  0.10882353037595749)
(X_178  0.10882353037595749)
(X_179  0.10490196198225021)
(X_180  0.10098039358854294)
(X_181  0.09705882519483566)
(X_182  -0.010784312151372433)
(X_183  -0.014705880545079708)
(X_184  0.07352941483259201)
(X_185  0.07745098322629929)
(X_186  0.08137255162000656)
(X_187  0.08921568840742111)
(X_188  0.09313725680112839)
(X_189  0.0009803927969187498)
(X_190  0.004901961423456669)
(X_191  0.10490196198225021)
(X_192  0.10098039358854294)
(X_193  0.10098039358854294)
(X_194  0.10098039358854294)
(X_195  0.10098039358854294)
(X_196  0.0009803927969187498)
(X_197  0.10098039358854294)
(X_198  0.10098039358854294)
(X_199  0.0009803927969187498)
(X_200  0.0009803927969187498)
(X_201  0.0009803927969187498)
(X_202  0.10098039358854294)
(X_203  0.10098039358854294)
(X_204  -0.010784312151372433)
(X_205  0.08921568840742111)
(X_206  0.09705882519483566)
(X_207  0.10098039358854294)
(X_208  0.004901961423456669)
(X_209  0.008823529817163944)
(X_210  0.008823529817163944)
(X_211  0.008823529817163944)
(X_212  0.10490196198225021)
(X_213  0.10490196198225021)
(X_214  0.10490196198225021)
(X_215  0.10098039358854294)
(X_216  0.09705882519483566)
(X_217  -0.0029411755967885256)
(X_218  0.09313725680112839)
(X_219  0.09313725680112839)
(X_220  0.10882353037595749)
(X_221  0.008823529817163944)
(X_222  0.004901961423456669)
(X_223  0.10098039358854294)
(X_224  0.008823529817163944)
(X_225  0.004901961423456669)
(X_226  0.004901961423456669)
(X_227  0.0009803927969187498)
(X_228  0.0009803927969187498)
(X_229  0.004901961423456669)
(X_230  0.004901961423456669)
(X_231  0.008823529817163944)
(X_232  0.11666666716337204)
(X_233  0.11274509876966476)
(X_234  0.10882353037595749)
(X_235  0.10490196198225021)
(X_236  0.10098039358854294)
(X_237  -0.0029411755967885256)
(X_238  -0.0029411755967885256)
(X_239  -0.006862743757665157)
(X_240  0.004901961423456669)
(X_241  0.10098039358854294)
(X_242  0.10098039358854294)
(X_243  0.11274509876966476)
(X_244  0.12450980395078659)
(X_245  0.12450980395078659)
(X_246  0.10490196198225021)
(X_247  0.08921568840742111)
(X_248  0.004901961423456669)
(X_249  0.008823529817163944)
(X_250  0.012745101936161518)
(X_251  0.12058823555707932)
(X_252  0.02450980618596077)
(X_253  0.02450980618596077)
(X_254  0.01666666939854622)
(X_255  0.11274509876966476)
(X_256  0.10882353037595749)
(X_257  0.10882353037595749)
(X_258  0.10882353037595749)
(X_259  0.10882353037595749)
(X_260  0.01666666939854622)
(X_261  0.01666666939854622)
(X_262  0.11666666716337204)
(X_263  0.11666666716337204)
(X_264  0.11274509876966476)
(X_265  0.10882353037595749)
(X_266  0.10490196198225021)
(X_267  0.10098039358854294)
(X_268  0.02450980618596077)
(X_269  0.11274509876966476)
(X_270  0.10490196198225021)
(X_271  0.10098039358854294)
(X_272  0.004901961423456669)
(X_273  0.11274509876966476)
(X_274  0.11274509876966476)
(X_275  0.11274509876966476)
(X_276  0.08921568840742111)
(X_277  -0.006862743757665157)
(X_278  -0.0029411755967885256)
(X_279  0.10098039358854294)
(X_280  0.028431374579668045)
(X_281  0.028431374579668045)
(X_282  0.02450980618596077)
(X_283  0.020588237792253494)
(X_284  0.020588237792253494)
(X_285  0.12058823555707932)
(X_286  0.12058823555707932)
(X_287  0.12058823555707932)
(X_288  0.012745101936161518)
(X_289  0.01666666939854622)
(X_290  0.020588237792253494)
(X_291  0.02450980618596077)
(X_292  0.12450980395078659)
(X_293  0.020588237792253494)
(X_294  0.012745101936161518)
(X_295  0.008823529817163944)
(X_296  0.10882353037595749)
(X_297  0.012745101936161518)
(X_298  0.012745101936161518)
(X_299  0.008823529817163944)
(X_300  0.10490196198225021)
(X_301  0.10490196198225021)
(X_302  0.11274509876966476)
(X_303  0.020588237792253494)
(X_304  0.11666666716337204)
(X_305  0.020588237792253494)
(X_306  0.02450980618596077)
(X_307  0.02450980618596077)
(X_308  0.01666666939854622)
(X_309  0.11666666716337204)
(X_310  0.01666666939854622)
(X_311  0.01666666939854622)
(X_312  0.020588237792253494)
(X_313  0.02450980618596077)
(X_314  0.028431374579668045)
(X_315  0.03235294297337532)
(X_316  0.008823529817163944)
(X_317  0.01666666939854622)
(X_318  0.02450980618596077)
(X_319  0.12843137979507446)
(X_320  0.12843137979507446)
(X_321  0.12450980395078659)
(X_322  0.020588237792253494)
(X_323  0.01666666939854622)
(X_324  -0.0029411755967885256)
(X_325  0.012745101936161518)
(X_326  0.03235294297337532)
(X_327  0.036274511367082596)
(X_328  0.12450980395078659)
(X_329  0.11666666716337204)
(X_330  0.11666666716337204)
(X_331  0.12058823555707932)
(X_332  0.0009803927969187498)
(X_333  0.0009803927969187498)
(X_334  0.0009803927969187498)
(X_335  0.0009803927969187498)
(X_336  0.01666666939854622)
(X_337  0.11666666716337204)
(X_338  0.11666666716337204)
(X_339  0.11274509876966476)
(X_340  0.11666666716337204)
(X_341  0.11666666716337204)
(X_342  0.020588237792253494)
(X_343  0.02450980618596077)
(X_344  0.11274509876966476)
(X_345  0.11666666716337204)
(X_346  0.12058823555707932)
(X_347  0.02450980618596077)
(X_348  0.02450980618596077)
(X_349  0.02450980618596077)
(X_350  0.12058823555707932)
(X_351  0.11666666716337204)
(X_352  0.12058823555707932)
(X_353  0.13235294818878174)
(X_354  0.036274511367082596)
(X_355  0.03235294297337532)
(X_356  0.01666666939854622)
(X_357  0.008823529817163944)
(X_358  0.01666666939854622)
(X_359  0.12843137979507446)
(X_360  0.028431374579668045)
(X_361  0.028431374579668045)
(X_362  0.02450980618596077)
(X_363  0.020588237792253494)
(X_364  0.03235294297337532)
(X_365  0.03235294297337532)
(X_366  0.02450980618596077)
(X_367  0.020588237792253494)
(X_368  0.11666666716337204)
(X_369  0.11666666716337204)
(X_370  0.01666666939854622)
(X_371  0.01666666939854622)
(X_372  0.02450980618596077)
(X_373  0.02450980618596077)
(X_374  0.02450980618596077)
(X_375  0.12058823555707932)
(X_376  0.12058823555707932)
(X_377  0.020588237792253494)
(X_378  0.020588237792253494)
(X_379  0.020588237792253494)
(X_380  0.13235294818878174)
(X_381  0.12450980395078659)
(X_382  0.10882353037595749)
(X_383  0.09705882519483566)
(X_384  -0.0029411755967885256)
(X_385  0.012745101936161518)
(X_386  0.04019607976078987)
(X_387  0.05980392172932625)
(X_388  0.13235294818878174)
(X_389  0.12843137979507446)
(X_390  0.02450980618596077)
(X_391  0.020588237792253494)
(X_392  0.136274516582489)
(X_393  0.13235294818878174)
(X_394  0.13235294818878174)
(X_395  0.13235294818878174)
(X_396  0.136274516582489)
(X_397  0.1401960849761963)
(X_398  0.14411765336990356)
(X_399  0.14803922176361084)
(X_400  0.14411765336990356)
(X_401  0.1401960849761963)
(X_402  0.03235294297337532)
(X_403  0.12450980395078659)
(X_404  0.12058823555707932)
(X_405  0.02450980618596077)
(X_406  0.028431374579668045)
(X_407  0.03235294297337532)
(X_408  0.020588237792253494)
(X_409  0.020588237792253494)
(X_410  0.028431374579668045)
(X_411  0.15196079015731812)
(X_412  0.1872549057006836)
(X_413  0.22254902124404907)
(X_414  0.25)
(X_415  0.2617647051811218)
(X_416  0.24411766231060028)
(X_417  0.3401961028575897)
(X_418  0.23235295712947845)
(X_419  0.2245098203420639)
(X_420  0.020588237792253494)
(X_421  0.02450980618596077)
(X_422  0.03235294297337532)
(X_423  0.14411765336990356)
(X_424  0.05588235333561897)
(X_425  0.07156863063573837)
(X_426  0.1872549057006836)
(X_427  0.19117647409439087)
(X_428  0.15980392694473267)
(X_429  0.15196079015731812)
(X_430  0.036274511367082596)
(X_431  0.02450980618596077)
(X_432  0.12058823555707932)
(X_433  0.12450980395078659)
(X_434  0.13235294818878174)
(X_435  0.04019607976078987)
(X_436  0.11666666716337204)
(X_437  0.1401960849761963)
(X_438  0.19901961088180542)
(X_439  0.2696078419685364)
(X_440  0.240196093916893)
(X_441  0.28333333134651184)
(X_442  0.29509803652763367)
(X_443  0.2872548997402191)
(X_444  0.2872548997402191)
(X_445  0.27941176295280457)
(X_446  0.27156862616539)
(X_447  0.3637255132198334)
(X_448  0.1872549057006836)
(X_449  0.2186274528503418)
(X_450  0.2617647051811218)
(X_451  0.2970588207244873)
(X_452  0.22058825194835663)
(X_453  0.240196093916893)
(X_454  0.3598039448261261)
(X_455  0.3715686500072479)
(X_456  0.35196080803871155)
(X_457  0.3401961028575897)
(X_458  0.30098041892051697)
(X_459  0.23823529481887817)
(X_460  0.17549020051956177)
(X_461  0.15196079015731812)
(X_462  0.1715686321258545)
(X_463  0.19901961088180542)
(X_464  0.1460784375667572)
(X_465  0.18529412150382996)
(X_466  0.24411766231060028)
(X_467  0.3754902184009552)
(X_468  0.25196078419685364)
(X_469  0.3127451241016388)
(X_470  0.30490198731422424)
(X_471  0.3245098292827606)
(X_472  0.3284313976764679)
(X_473  0.3401961028575897)
(X_474  0.35196080803871155)
(X_475  0.2598039209842682)
(X_476  0.27156862616539)
(X_477  0.28333333134651184)
(X_478  0.29901960492134094)
(X_479  0.3068627417087555)
(X_480  0.29901960492134094)
(X_481  0.2872548997402191)
(X_482  0.2754901945590973)
(X_483  0.27156862616539)
(X_484  0.28333333134651184)
(X_485  0.27941176295280457)
(X_486  0.26372548937797546)
(X_487  0.240196093916893)
(X_488  0.21274511516094208)
(X_489  0.19705882668495178)
(X_490  0.1931372582912445)
(X_491  0.1931372582912445)
(X_492  0.15392157435417175)
(X_493  0.2088235467672348)
(X_494  0.33235296607017517)
(X_495  0.30490198731422424)
(X_496  0.29313725233078003)
(X_497  0.3401961028575897)
(X_498  0.4107843339443207)
(X_499  0.3539215624332428)
(X_500  0.3578431308269501)
(X_501  0.3656862676143646)
(X_502  0.37745097279548645)
(X_503  0.37745097279548645)
(X_504  0.240196093916893)
(X_505  0.3480392396450043)
(X_506  0.3598039448261261)
(X_507  0.3715686500072479)
(X_508  0.3754902184009552)
(X_509  0.387254923582077)
(X_510  0.40294119715690613)
(X_511  0.31078431010246277)
(X_512  0.26372548937797546)
(X_513  0.2598039209842682)
(X_514  0.2558823525905609)
(X_515  0.2598039209842682)
(X_516  0.2598039209842682)
(X_517  0.24803923070430756)
(X_518  0.22058825194835663)
(X_519  0.20098040997982025)
(X_520  0.2598039209842682)
(X_521  0.2872548997402191)
(X_522  0.2598039209842682)
(X_523  0.19705882668495178)
(X_524  0.21274511516094208)
(X_525  0.4107843339443207)
(X_526  0.48137256503105164)
(X_527  0.385294109582901)
(X_528  0.3735294044017792)
(X_529  0.3813725411891937)
(X_530  0.39313724637031555)
(X_531  0.39313724637031555)
(X_532  0.49313727021217346)
(X_533  0.49705883860588074)
(X_534  0.4852941334247589)
(X_535  0.4539215862751007)
(X_536  0.41862747073173523)
(X_537  0.4068627655506134)
(X_538  0.3225490152835846)
(X_539  0.4421568810939789)
(X_540  0.3539215624332428)
(X_541  0.3499999940395355)
(X_542  0.34607842564582825)
(X_543  0.3539215624332428)
(X_544  0.3696078360080719)
(X_545  0.37745097279548645)
(X_546  0.37745097279548645)
(X_547  0.3735294044017792)
(X_548  0.44607844948768616)
(X_549  0.4264706075191498)
(X_550  0.28333333134651184)
(X_551  0.27156862616539)
(X_552  0.3186274468898773)
(X_553  0.46568629145622253)
(X_554  0.45000001788139343)
(X_555  0.29509803652763367)
(X_556  0.3715686500072479)
(X_557  0.28333333134651184)
(X_558  0.29509803652763367)
(X_559  0.29901960492134094)
(X_560  0.2911764681339264)
(X_561  0.32647058367729187)
(X_562  0.3656862676143646)
(X_563  0.3656862676143646)
(X_564  0.34607842564582825)
(X_565  0.3382352888584137)
(X_566  0.3578431308269501)
(X_567  0.3813725411891937)
(X_568  0.3656862676143646)
(X_569  0.457843154668808)
(X_570  0.4539215862751007)
(X_571  0.45000001788139343)
(X_572  0.36176469922065735)
(X_573  0.3970588147640228)
(X_574  0.44411763548851013)
(X_575  0.4754902124404907)
(X_576  0.4382353127002716)
(X_577  0.31078431010246277)
(X_578  0.41470590233802795)
(X_579  0.457843154668808)
(X_580  0.4696078598499298)
(X_581  0.4225490391254425)
(X_582  0.36764708161354065)
(X_583  0.3401961028575897)
(X_584  0.2088235467672348)
(X_585  0.21666668355464935)
(X_586  0.2245098203420639)
(X_587  0.22843138873577118)
(X_588  0.5029411911964417)
(X_589  0.5343137383460999)
(X_590  0.5617647171020508)
(X_591  0.5539215803146362)
(X_592  0.5068627595901489)
(X_593  0.4362744987010956)
(X_594  0.47745099663734436)
(X_595  0.44607844948768616)
(X_596  0.3539215624332428)
(X_597  0.3382352888584137)
(X_598  0.31470587849617004)
(X_599  0.2911764681339264)
(X_600  0.27941176295280457)
(X_601  0.29901960492134094)
(X_602  0.3382352888584137)
(X_603  0.3696078360080719)
(X_604  0.43039217591285706)
(X_605  0.3343137204647064)
(X_606  0.4735294282436371)
(X_607  0.49705883860588074)
(X_608  0.4264706075191498)
(X_609  0.3127451241016388)
(X_610  0.2813725471496582)
(X_611  0.22843138873577118)
(X_612  0.2813725471496582)
(X_613  0.2852941155433655)
(X_614  0.28921568393707275)
(X_615  0.2813725471496582)
(X_616  0.5245097875595093)
(X_617  0.5284313559532166)
(X_618  0.5558823943138123)
(X_619  0.4990196228027344)
(X_620  0.5303921699523926)
(X_621  0.6225490570068359)
(X_622  0.5715686678886414)
(X_623  0.42450979351997375)
(X_624  0.5284313559532166)
(X_625  0.5088235139846802)
(X_626  0.4852941334247589)
(X_627  0.46176472306251526)
(X_628  0.34607842564582825)
(X_629  0.3343137204647064)
(X_630  0.41862747073173523)
(X_631  0.4107843339443207)
(X_632  0.39901962876319885)
(X_633  0.41862747073173523)
(X_634  0.34215685725212097)
(X_635  0.3225490152835846)
(X_636  0.240196093916893)
(X_637  0.2539215683937073)
(X_638  0.24215686321258545)
(X_639  0.2813725471496582)
(X_640  0.2656862735748291)
(X_641  0.2656862735748291)
(X_642  0.2656862735748291)
(X_643  0.25784313678741455)
(X_644  0.39901962876319885)
(X_645  0.3598039448261261)
(X_646  0.344117671251297)
(X_647  0.29509803652763367)
(X_648  0.385294109582901)
(X_649  0.5284313559532166)
(X_650  0.5049019455909729)
(X_651  0.3539215624332428)
(X_652  0.3343137204647064)
(X_653  0.3225490152835846)
(X_654  0.3186274468898773)
(X_655  0.33039215207099915)
(X_656  0.3382352888584137)
(X_657  0.31470587849617004)
(X_658  0.26372548937797546)
(X_659  0.21666668355464935)
(X_660  0.3088235557079315)
(X_661  0.32058826088905334)
(X_662  0.32058826088905334)
(X_663  0.19705882668495178)
(X_664  0.18137255311012268)
(X_665  0.16960784792900085)
(X_666  0.15000000596046448)
(X_667  0.12647059559822083)
(X_668  0.16960784792900085)
(X_669  0.17352941632270813)
(X_670  0.17352941632270813)
(X_671  0.16960784792900085)
(X_672  0.3284313976764679)
(X_673  0.25196078419685364)
(X_674  0.26372548937797546)
(X_675  0.3558823764324188)
(X_676  0.3598039448261261)
(X_677  0.38333335518836975)
(X_678  0.4068627655506134)
(X_679  0.41470590233802795)
(X_680  0.3186274468898773)
(X_681  0.31470587849617004)
(X_682  0.31470587849617004)
(X_683  0.31470587849617004)
(X_684  0.3068627417087555)
(X_685  0.27941176295280457)
(X_686  0.23627452552318573)
(X_687  0.20490197837352753)
(X_688  0.2656862735748291)
(X_689  0.2774509787559509)
(X_690  0.2970588207244873)
(X_691  0.3088235557079315)
(X_692  0.2774509787559509)
(X_693  0.23039215803146362)
(X_694  0.20686274766921997)
(X_695  0.20686274766921997)
(X_696  0.24215686321258545)
(X_697  0.2539215683937073)
(X_698  0.2696078419685364)
(X_699  0.17352941632270813)
(X_700  0.30490198731422424)
(X_701  0.3245098292827606)
(X_702  0.3284313976764679)
(X_703  0.21274511516094208)
(X_704  0.20098040997982025)
(X_705  0.2088235467672348)
(X_706  0.2245098203420639)
(X_707  0.22843138873577118)
(X_708  0.24411766231060028)
(X_709  0.24411766231060028)
(X_710  0.24411766231060028)
(X_711  0.35196080803871155)
(X_712  0.35196080803871155)
(X_713  0.33235296607017517)
(X_714  0.19705882668495178)
(X_715  0.16568627953529358)
(X_716  0.2617647051811218)
(X_717  0.17352941632270813)
(X_718  0.1931372582912445)
(X_719  0.2088235467672348)
(X_720  0.18529412150382996)
(X_721  0.15000000596046448)
(X_722  0.1303921639919281)
(X_723  0.13823530077934265)
(X_724  0.2656862735748291)
(X_725  0.2774509787559509)
(X_726  0.28921568393707275)
(X_727  0.29313725233078003)
(X_728  0.2696078419685364)
(X_729  0.28921568393707275)
(X_730  0.28921568393707275)
(X_731  0.2617647051811218)
(X_732  0.24215686321258545)
(X_733  0.24607843160629272)
(X_734  0.25)
(X_735  0.25)
(X_736  0.16568627953529358)
(X_737  0.16568627953529358)
(X_738  0.17352941632270813)
(X_739  0.18921568989753723)
(X_740  0.19705882668495178)
(X_741  0.18529412150382996)
(X_742  0.15392157435417175)
(X_743  0.23039215803146362)
(X_744  0.1460784375667572)
(X_745  0.2539215683937073)
(X_746  0.2774509787559509)
(X_747  0.1931372582912445)
(X_748  0.2813725471496582)
(X_749  0.2539215683937073)
(X_750  0.15000000596046448)
(X_751  0.1617647111415863)
(X_752  0.2539215683937073)
(X_753  0.2656862735748291)
(X_754  0.2774509787559509)
(X_755  0.2813725471496582)
(X_756  0.24215686321258545)
(X_757  0.1617647111415863)
(X_758  0.16568627953529358)
(X_759  0.1460784375667572)
(X_760  0.1303921639919281)
(X_761  0.2343137264251709)
(X_762  0.23823529481887817)
(X_763  0.23823529481887817)
(X_764  0.2343137264251709)
(X_765  0.2343137264251709)
(X_766  0.24215686321258545)
(X_767  0.15784314274787903)
(X_768  0.17352941632270813)
(X_769  0.16568627953529358)
(X_770  0.14215686917304993)
(X_771  0.11862745881080627)
(X_772  0.12647059559822083)
(X_773  0.1303921639919281)
(X_774  0.15000000596046448)
(X_775  0.16568627953529358)
(X_776  0.15784314274787903)
(X_777  0.23823529481887817)
(X_778  0.13823530077934265)
(X_779  0.15784314274787903)
(X_780  0.13431373238563538)
(X_781  0.14215686917304993)
(X_782  0.15392157435417175)
(X_783  0.15392157435417175)
(Y_0 -15.821002006530762)
(Y_1 27.20228385925293)
(Y_2 -12.765348434448242)
(Y_3 -0.3977210521697998))