((X_0  0.8519607782363892)
(X_1  0.8558823466300964)
(X_2  0.8598039150238037)
(X_3  0.9637255072593689)
(X_4  0.863725483417511)
(X_5  0.8598039150238037)
(X_6  0.9519608020782471)
(X_7  0.9480392336845398)
(X_8  0.9519608020782471)
(X_9  0.9558823704719543)
(X_10  0.9558823704719543)
(X_11  0.9598039388656616)
(X_12  0.9598039388656616)
(X_13  0.8558823466300964)
(X_14  0.8558823466300964)
(X_15  0.8519607782363892)
(X_16  0.8598039150238037)
(X_17  0.8598039150238037)
(X_18  0.8598039150238037)
(X_19  0.8598039150238037)
(X_20  0.8598039150238037)
(X_21  0.8558823466300964)
(X_22  0.9558823704719543)
(X_23  0.9558823704719543)
(X_24  0.863725483417511)
(X_25  0.863725483417511)
(X_26  0.9637255072593689)
(X_27  0.9637255072593689)
(X_28  0.23627452552318573)
(X_29  0.23627452552318573)
(X_30  0.240196093916893)
(X_31  0.344117671251297)
(X_32  0.3480392396450043)
(X_33  0.3480392396450043)
(X_34  0.3480392396450043)
(X_35  0.3480392396450043)
(X_36  0.23627452552318573)
(X_37  0.240196093916893)
(X_38  0.3401961028575897)
(X_39  0.344117671251297)
(X_40  0.344117671251297)
(X_41  0.3401961028575897)
(X_42  0.3401961028575897)
(X_43  0.33627453446388245)
(X_44  0.3284313976764679)
(X_45  0.3284313976764679)
(X_46  0.22843138873577118)
(X_47  0.33235296607017517)
(X_48  0.33235296607017517)
(X_49  0.33235296607017517)
(X_50  0.33235296607017517)
(X_51  0.33235296607017517)
(X_52  0.3598039448261261)
(X_53  0.3598039448261261)
(X_54  0.3598039448261261)
(X_55  0.3598039448261261)
(X_56  0.19901961088180542)
(X_57  0.19901961088180542)
(X_58  0.10294118523597717)
(X_59  0.2029411792755127)
(X_60  0.20686274766921997)
(X_61  0.114705890417099)
(X_62  0.11862745881080627)
(X_63  0.12254902720451355)
(X_64  0.19901961088180542)
(X_65  0.19901961088180542)
(X_66  0.2029411792755127)
(X_67  0.2029411792755127)
(X_68  0.2029411792755127)
(X_69  0.2029411792755127)
(X_70  0.19901961088180542)
(X_71  0.19901961088180542)
(X_72  0.10686275362968445)
(X_73  0.10686275362968445)
(X_74  0.11078432202339172)
(X_75  0.11078432202339172)
(X_76  0.114705890417099)
(X_77  0.11862745881080627)
(X_78  0.2186274528503418)
(X_79  0.2186274528503418)
(X_80  0.20686274766921997)
(X_81  0.20686274766921997)
(X_82  0.21078431606292725)
(X_83  0.21078431606292725)
(X_84  0.08725491166114807)
(X_85  0.0833333432674408)
(X_86  0.07941177487373352)
(X_87  0.07941177487373352)
(X_88  0.07941177487373352)
(X_89  0.08725491166114807)
(X_90  0.09509804844856262)
(X_91  0.0990196168422699)
(X_92  0.17549020051956177)
(X_93  0.17941176891326904)
(X_94  0.17941176891326904)
(X_95  0.18333333730697632)
(X_96  0.18333333730697632)
(X_97  0.17941176891326904)
(X_98  0.17941176891326904)
(X_99  0.07549020648002625)
(X_100  0.0519607849419117)
(X_101  0.05588235333561897)
(X_102  0.05588235333561897)
(X_103  0.05980392172932625)
(X_104  0.06372549384832382)
(X_105  0.16764706373214722)
(X_106  0.07156863063573837)
(X_107  0.17549020051956177)
(X_108  0.07941177487373352)
(X_109  0.07941177487373352)
(X_110  0.18333333730697632)
(X_111  0.08725491166114807)
(X_112  0.1872549057006836)
(X_113  0.17941176891326904)
(X_114  0.17549020051956177)
(X_115  0.16764706373214722)
(X_116  0.06372549384832382)
(X_117  0.0676470622420311)
(X_118  0.1715686321258545)
(X_119  0.07549020648002625)
(X_120  0.0676470622420311)
(X_121  0.1715686321258545)
(X_122  0.1715686321258545)
(X_123  0.17549020051956177)
(X_124  0.17549020051956177)
(X_125  0.07156863063573837)
(X_126  0.07156863063573837)
(X_127  0.0676470622420311)
(X_128  0.05588235333561897)
(X_129  0.05980392172932625)
(X_130  0.16372549533843994)
(X_131  0.06372549384832382)
(X_132  0.1715686321258545)
(X_133  0.1715686321258545)
(X_134  0.07549020648002625)
(X_135  0.07941177487373352)
(X_136  0.18333333730697632)
(X_137  0.1872549057006836)
(X_138  0.1872549057006836)
(X_139  0.1872549057006836)
(X_140  0.15980392694473267)
(X_141  0.1558823585510254)
(X_142  0.0519607849419117)
(X_143  0.14411765336990356)
(X_144  0.1401960849761963)
(X_145  0.1401960849761963)
(X_146  0.136274516582489)
(X_147  0.036274511367082596)
(X_148  0.14411765336990356)
(X_149  0.14411765336990356)
(X_150  0.14803922176361084)
(X_151  0.15196079015731812)
(X_152  0.15196079015731812)
(X_153  0.14803922176361084)
(X_154  0.14411765336990356)
(X_155  0.14411765336990356)
(X_156  0.0519607849419117)
(X_157  0.15196079015731812)
(X_158  0.1558823585510254)
(X_159  0.1558823585510254)
(X_160  0.15980392694473267)
(X_161  0.16372549533843994)
(X_162  0.16372549533843994)
(X_163  0.16372549533843994)
(X_164  0.1558823585510254)
(X_165  0.1558823585510254)
(X_166  0.1558823585510254)
(X_167  0.1558823585510254)
(X_168  0.07549020648002625)
(X_169  0.07549020648002625)
(X_170  0.07941177487373352)
(X_171  0.07549020648002625)
(X_172  0.07549020648002625)
(X_173  0.07156863063573837)
(X_174  0.0676470622420311)
(X_175  0.06372549384832382)
(X_176  0.0676470622420311)
(X_177  0.0676470622420311)
(X_178  0.1715686321258545)
(X_179  0.1715686321258545)
(X_180  0.1715686321258545)
(X_181  0.1715686321258545)
(X_182  0.16764706373214722)
(X_183  0.16764706373214722)
(X_184  0.036274511367082596)
(X_185  0.036274511367082596)
(X_186  0.036274511367082596)
(X_187  0.036274511367082596)
(X_188  0.04019607976078987)
(X_189  0.1401960849761963)
(X_190  0.1401960849761963)
(X_191  0.1401960849761963)
(X_192  0.0676470622420311)
(X_193  0.0676470622420311)
(X_194  0.16372549533843994)
(X_195  0.16372549533843994)
(X_196  0.14803922176361084)
(X_197  0.15196079015731812)
(X_198  0.15980392694473267)
(X_199  0.06372549384832382)
(X_200  0.06372549384832382)
(X_201  0.05980392172932625)
(X_202  0.05588235333561897)
(X_203  0.0519607849419117)
(X_204  0.04411764815449715)
(X_205  0.04803921654820442)
(X_206  0.04803921654820442)
(X_207  0.0519607849419117)
(X_208  0.0519607849419117)
(X_209  0.04803921654820442)
(X_210  0.14803922176361084)
(X_211  0.14411765336990356)
(X_212  0.15196079015731812)
(X_213  0.15196079015731812)
(X_214  0.15196079015731812)
(X_215  0.15196079015731812)
(X_216  0.15196079015731812)
(X_217  0.15196079015731812)
(X_218  0.14803922176361084)
(X_219  0.14803922176361084)
(X_220  0.05980392172932625)
(X_221  0.15980392694473267)
(X_222  0.05588235333561897)
(X_223  0.0519607849419117)
(X_224  0.04019607976078987)
(X_225  0.17549020051956177)
(X_226  0.0990196168422699)
(X_227  0.1872549057006836)
(X_228  0.0676470622420311)
(X_229  0.05588235333561897)
(X_230  0.04803921654820442)
(X_231  0.04019607976078987)
(X_232  0.16372549533843994)
(X_233  0.15980392694473267)
(X_234  0.1558823585510254)
(X_235  0.15980392694473267)
(X_236  0.1715686321258545)
(X_237  0.17549020051956177)
(X_238  0.15980392694473267)
(X_239  0.136274516582489)
(X_240  0.1558823585510254)
(X_241  0.14803922176361084)
(X_242  0.04411764815449715)
(X_243  0.0519607849419117)
(X_244  0.0676470622420311)
(X_245  0.07941177487373352)
(X_246  0.07549020648002625)
(X_247  0.0676470622420311)
(X_248  0.0519607849419117)
(X_249  0.05980392172932625)
(X_250  0.0676470622420311)
(X_251  0.17549020051956177)
(X_252  0.39901962876319885)
(X_253  0.4225490391254425)
(X_254  0.3343137204647064)
(X_255  0.4068627655506134)
(X_256  0.36764708161354065)
(X_257  0.344117671251297)
(X_258  0.3245098292827606)
(X_259  0.2088235467672348)
(X_260  0.13431373238563538)
(X_261  0.21470588445663452)
(X_262  0.1872549057006836)
(X_263  0.16372549533843994)
(X_264  0.16372549533843994)
(X_265  0.17941176891326904)
(X_266  0.19509804248809814)
(X_267  0.19901961088180542)
(X_268  0.07156863063573837)
(X_269  0.05980392172932625)
(X_270  0.0519607849419117)
(X_271  0.06372549384832382)
(X_272  0.10294118523597717)
(X_273  0.14215686917304993)
(X_274  0.1774509847164154)
(X_275  0.1931372582912445)
(X_276  0.2598039209842682)
(X_277  0.27156862616539)
(X_278  0.3911764919757843)
(X_279  0.4107843339443207)
(X_280  0.3539215624332428)
(X_281  0.37745097279548645)
(X_282  0.3892156779766083)
(X_283  0.3696078360080719)
(X_284  0.34607842564582825)
(X_285  0.3343137204647064)
(X_286  0.3225490152835846)
(X_287  0.31078431010246277)
(X_288  0.4225490391254425)
(X_289  0.2872548997402191)
(X_290  0.2245098203420639)
(X_291  0.25784313678741455)
(X_292  0.19901961088180542)
(X_293  0.0676470622420311)
(X_294  0.05980392172932625)
(X_295  0.06372549384832382)
(X_296  0.0990196168422699)
(X_297  0.23039215803146362)
(X_298  0.18529412150382996)
(X_299  0.2558823525905609)
(X_300  0.3225490152835846)
(X_301  0.3656862676143646)
(X_302  0.4892157018184662)
(X_303  0.39313724637031555)
(X_304  0.3656862676143646)
(X_305  0.3696078360080719)
(X_306  0.3813725411891937)
(X_307  0.4892157018184662)
(X_308  0.25196078419685364)
(X_309  0.2754901945590973)
(X_310  0.29509803652763367)
(X_311  0.2872548997402191)
(X_312  0.28333333134651184)
(X_313  0.2911764681339264)
(X_314  0.2911764681339264)
(X_315  0.38333335518836975)
(X_316  0.34215685725212097)
(X_317  0.3343137204647064)
(X_318  0.3225490152835846)
(X_319  0.3029411733150482)
(X_320  0.3637255132198334)
(X_321  0.3284313976764679)
(X_322  0.32058826088905334)
(X_323  0.33235296607017517)
(X_324  0.2245098203420639)
(X_325  0.3480392396450043)
(X_326  0.3911764919757843)
(X_327  0.33039215207099915)
(X_328  0.34607842564582825)
(X_329  0.3382352888584137)
(X_330  0.31470587849617004)
(X_331  0.29901960492134094)
(X_332  0.3578431308269501)
(X_333  0.3578431308269501)
(X_334  0.457843154668808)
(X_335  0.4539215862751007)
(X_336  0.22843138873577118)
(X_337  0.344117671251297)
(X_338  0.35196080803871155)
(X_339  0.240196093916893)
(X_340  0.33627453446388245)
(X_341  0.344117671251297)
(X_342  0.24411766231060028)
(X_343  0.23627452552318573)
(X_344  0.2696078419685364)
(X_345  0.27352941036224365)
(X_346  0.29313725233078003)
(X_347  0.31666669249534607)
(X_348  0.3088235557079315)
(X_349  0.2852941155433655)
(X_350  0.28921568393707275)
(X_351  0.3088235557079315)
(X_352  0.2754901945590973)
(X_353  0.3715686500072479)
(X_354  0.3598039448261261)
(X_355  0.24803923070430756)
(X_356  0.24411766231060028)
(X_357  0.24803923070430756)
(X_358  0.2558823525905609)
(X_359  0.26372548937797546)
(X_360  0.33235296607017517)
(X_361  0.33627453446388245)
(X_362  0.3401961028575897)
(X_363  0.344117671251297)
(X_364  0.29509803652763367)
(X_365  0.3068627417087555)
(X_366  0.3068627417087555)
(X_367  0.3950980603694916)
(X_368  0.39901962876319885)
(X_369  0.4107843339443207)
(X_370  0.41470590233802795)
(X_371  0.40294119715690613)
(X_372  0.3578431308269501)
(X_373  0.3343137204647064)
(X_374  0.4225490391254425)
(X_375  0.43039217591285706)
(X_376  0.4107843339443207)
(X_377  0.27941176295280457)
(X_378  0.2754901945590973)
(X_379  0.40294119715690613)
(X_380  0.4264706075191498)
(X_381  0.4382353127002716)
(X_382  0.3539215624332428)
(X_383  0.4696078598499298)
(X_384  0.4852941334247589)
(X_385  0.4009803831577301)
(X_386  0.4205882251262665)
(X_387  0.4362744987010956)
(X_388  0.5715686678886414)
(X_389  0.47156864404678345)
(X_390  0.4754902124404907)
(X_391  0.479411780834198)
(X_392  0.5303921699523926)
(X_393  0.5382353067398071)
(X_394  0.5382353067398071)
(X_395  0.6343137621879578)
(X_396  0.5421568751335144)
(X_397  0.5656862854957581)
(X_398  0.6735294461250305)
(X_399  0.665686309337616)
(X_400  0.593137264251709)
(X_401  0.5539215803146362)
(X_402  0.5421568751335144)
(X_403  0.5656862854957581)
(X_404  0.5735294222831726)
(X_405  0.5539215803146362)
(X_406  0.5617647171020508)
(X_407  0.6931372880935669)
(X_408  0.6049019694328308)
(X_409  0.6284313797950745)
(X_410  0.6558823585510254)
(X_411  0.6637254953384399)
(X_412  0.6441176533699036)
(X_413  0.7166666984558105)
(X_414  0.6892157196998596)
(X_415  0.6774510145187378)
(X_416  0.5382353067398071)
(X_417  0.5382353067398071)
(X_418  0.6343137621879578)
(X_419  0.6303921937942505)
(X_420  0.33039215207099915)
(X_421  0.43431374430656433)
(X_422  0.4264706075191498)
(X_423  0.4107843339443207)
(X_424  0.41470590233802795)
(X_425  0.43431374430656433)
(X_426  0.43431374430656433)
(X_427  0.4225490391254425)
(X_428  0.3343137204647064)
(X_429  0.3950980603694916)
(X_430  0.3911764919757843)
(X_431  0.33039215207099915)
(X_432  0.4421568810939789)
(X_433  0.41470590233802795)
(X_434  0.4068627655506134)
(X_435  0.4225490391254425)
(X_436  0.36176469922065735)
(X_437  0.3656862676143646)
(X_438  0.36176469922065735)
(X_439  0.44607844948768616)
(X_440  0.4225490391254425)
(X_441  0.4068627655506134)
(X_442  0.3029411733150482)
(X_443  0.3068627417087555)
(X_444  0.3715686500072479)
(X_445  0.3715686500072479)
(X_446  0.3715686500072479)
(X_447  0.3754902184009552)
(X_448  0.17352941632270813)
(X_449  0.2774509787559509)
(X_450  0.2852941155433655)
(X_451  0.29313725233078003)
(X_452  0.2970588207244873)
(X_453  0.19705882668495178)
(X_454  0.29313725233078003)
(X_455  0.1931372582912445)
(X_456  0.1460784375667572)
(X_457  0.1460784375667572)
(X_458  0.15000000596046448)
(X_459  0.15392157435417175)
(X_460  0.2696078419685364)
(X_461  0.2852941155433655)
(X_462  0.30098041892051697)
(X_463  0.3127451241016388)
(X_464  0.33627453446388245)
(X_465  0.30490198731422424)
(X_466  0.2656862735748291)
(X_467  0.15000000596046448)
(X_468  0.15784314274787903)
(X_469  0.16568627953529358)
(X_470  0.16568627953529358)
(X_471  0.15784314274787903)
(X_472  0.2813725471496582)
(X_473  0.2852941155433655)
(X_474  0.29313725233078003)
(X_475  0.30490198731422424)
(X_476  0.1303921639919281)
(X_477  0.13431373238563538)
(X_478  0.13823530077934265)
(X_479  0.1460784375667572)
(X_480  0.15000000596046448)
(X_481  0.15000000596046448)
(X_482  0.15000000596046448)
(X_483  0.1460784375667572)
(X_484  0.13431373238563538)
(X_485  0.13431373238563538)
(X_486  0.1303921639919281)
(X_487  0.13431373238563538)
(X_488  0.24215686321258545)
(X_489  0.2539215683937073)
(X_490  0.2656862735748291)
(X_491  0.27352941036224365)
(X_492  0.22647058963775635)
(X_493  0.114705890417099)
(X_494  0.10294118523597717)
(X_495  0.11078432202339172)
(X_496  0.13823530077934265)
(X_497  0.2617647051811218)
(X_498  0.2656862735748291)
(X_499  0.2617647051811218)
(X_500  0.2539215683937073)
(X_501  0.2539215683937073)
(X_502  0.15392157435417175)
(X_503  0.15000000596046448)
(X_504  0.0833333432674408)
(X_505  0.1872549057006836)
(X_506  0.19117647409439087)
(X_507  0.19509804248809814)
(X_508  0.19901961088180542)
(X_509  0.19901961088180542)
(X_510  0.19901961088180542)
(X_511  0.0990196168422699)
(X_512  0.22254902124404907)
(X_513  0.11862745881080627)
(X_514  0.114705890417099)
(X_515  0.11078432202339172)
(X_516  0.114705890417099)
(X_517  0.11862745881080627)
(X_518  0.12647059559822083)
(X_519  0.23039215803146362)
(X_520  0.09509804844856262)
(X_521  0.08725491166114807)
(X_522  0.18333333730697632)
(X_523  0.09509804844856262)
(X_524  0.114705890417099)
(X_525  0.12647059559822083)
(X_526  0.12254902720451355)
(X_527  0.114705890417099)
(X_528  0.10686275362968445)
(X_529  0.2029411792755127)
(X_530  0.0990196168422699)
(X_531  0.09509804844856262)
(X_532  0.05980392172932625)
(X_533  0.05980392172932625)
(X_534  0.06372549384832382)
(X_535  0.06372549384832382)
(X_536  0.16764706373214722)
(X_537  0.16764706373214722)
(X_538  0.16764706373214722)
(X_539  0.16764706373214722)
(X_540  0.18333333730697632)
(X_541  0.07941177487373352)
(X_542  0.07549020648002625)
(X_543  0.07549020648002625)
(X_544  0.07549020648002625)
(X_545  0.07549020648002625)
(X_546  0.07941177487373352)
(X_547  0.18333333730697632)
(X_548  0.19117647409439087)
(X_549  0.17941176891326904)
(X_550  0.1715686321258545)
(X_551  0.16764706373214722)
(X_552  0.07549020648002625)
(X_553  0.07549020648002625)
(X_554  0.07156863063573837)
(X_555  0.06372549384832382)
(X_556  0.06372549384832382)
(X_557  0.06372549384832382)
(X_558  0.06372549384832382)
(X_559  0.06372549384832382)
(X_560  0.04803921654820442)
(X_561  0.14803922176361084)
(X_562  0.04803921654820442)
(X_563  0.04803921654820442)
(X_564  0.04803921654820442)
(X_565  0.04803921654820442)
(X_566  0.0519607849419117)
(X_567  0.0519607849419117)
(X_568  0.13235294818878174)
(X_569  0.03235294297337532)
(X_570  0.03235294297337532)
(X_571  0.03235294297337532)
(X_572  0.136274516582489)
(X_573  0.136274516582489)
(X_574  0.04019607976078987)
(X_575  0.1401960849761963)
(X_576  0.1401960849761963)
(X_577  0.13235294818878174)
(X_578  0.12450980395078659)
(X_579  0.12450980395078659)
(X_580  0.13235294818878174)
(X_581  0.04411764815449715)
(X_582  0.05588235333561897)
(X_583  0.15980392694473267)
(X_584  0.04803921654820442)
(X_585  0.14803922176361084)
(X_586  0.14803922176361084)
(X_587  0.15196079015731812)
(X_588  0.036274511367082596)
(X_589  0.036274511367082596)
(X_590  0.03235294297337532)
(X_591  0.028431374579668045)
(X_592  0.03235294297337532)
(X_593  0.03235294297337532)
(X_594  0.036274511367082596)
(X_595  0.04019607976078987)
(X_596  0.02450980618596077)
(X_597  0.028431374579668045)
(X_598  0.028431374579668045)
(X_599  0.13235294818878174)
(X_600  0.136274516582489)
(X_601  0.136274516582489)
(X_602  0.1401960849761963)
(X_603  0.1401960849761963)
(X_604  0.04019607976078987)
(X_605  0.03235294297337532)
(X_606  0.12450980395078659)
(X_607  0.12058823555707932)
(X_608  0.12450980395078659)
(X_609  0.136274516582489)
(X_610  0.04803921654820442)
(X_611  0.05588235333561897)
(X_612  0.04019607976078987)
(X_613  0.1401960849761963)
(X_614  0.1401960849761963)
(X_615  0.136274516582489)
(X_616  0.136274516582489)
(X_617  0.13235294818878174)
(X_618  0.12843137979507446)
(X_619  0.12450980395078659)
(X_620  0.02450980618596077)
(X_621  0.028431374579668045)
(X_622  0.03235294297337532)
(X_623  0.03235294297337532)
(X_624  0.13235294818878174)
(X_625  0.13235294818878174)
(X_626  0.136274516582489)
(X_627  0.04019607976078987)
(X_628  0.04019607976078987)
(X_629  0.04019607976078987)
(X_630  0.04019607976078987)
(X_631  0.136274516582489)
(X_632  0.0519607849419117)
(X_633  0.0519607849419117)
(X_634  0.14803922176361084)
(X_635  0.14411765336990356)
(X_636  0.136274516582489)
(X_637  0.13235294818878174)
(X_638  0.136274516582489)
(X_639  0.136274516582489)
(X_640  0.12843137979507446)
(X_641  0.12843137979507446)
(X_642  0.12450980395078659)
(X_643  0.12058823555707932)
(X_644  0.1401960849761963)
(X_645  0.136274516582489)
(X_646  0.03235294297337532)
(X_647  0.028431374579668045)
(X_648  0.028431374579668045)
(X_649  0.028431374579668045)
(X_650  0.036274511367082596)
(X_651  0.136274516582489)
(X_652  0.01666666939854622)
(X_653  0.01666666939854622)
(X_654  0.01666666939854622)
(X_655  0.020588237792253494)
(X_656  0.11666666716337204)
(X_657  0.11274509876966476)
(X_658  0.10882353037595749)
(X_659  0.10882353037595749)
(X_660  0.10882353037595749)
(X_661  0.020588237792253494)
(X_662  0.03235294297337532)
(X_663  0.036274511367082596)
(X_664  0.036274511367082596)
(X_665  0.03235294297337532)
(X_666  0.028431374579668045)
(X_667  0.028431374579668045)
(X_668  0.012745101936161518)
(X_669  0.012745101936161518)
(X_670  0.11274509876966476)
(X_671  0.11274509876966476)
(X_672  0.028431374579668045)
(X_673  0.12450980395078659)
(X_674  0.020588237792253494)
(X_675  0.12058823555707932)
(X_676  0.12843137979507446)
(X_677  0.13235294818878174)
(X_678  0.12843137979507446)
(X_679  0.12058823555707932)
(X_680  0.12058823555707932)
(X_681  0.11666666716337204)
(X_682  0.11274509876966476)
(X_683  0.11274509876966476)
(X_684  0.12058823555707932)
(X_685  0.12450980395078659)
(X_686  0.11666666716337204)
(X_687  0.11274509876966476)
(X_688  0.11274509876966476)
(X_689  0.11274509876966476)
(X_690  0.11274509876966476)
(X_691  0.11274509876966476)
(X_692  0.11274509876966476)
(X_693  0.11274509876966476)
(X_694  0.11274509876966476)
(X_695  0.11274509876966476)
(X_696  0.11274509876966476)
(X_697  0.012745101936161518)
(X_698  0.01666666939854622)
(X_699  0.11666666716337204)
(X_700  0.12450980395078659)
(X_701  0.12058823555707932)
(X_702  0.01666666939854622)
(X_703  0.11666666716337204)
(X_704  0.12450980395078659)
(X_705  0.12843137979507446)
(X_706  0.12450980395078659)
(X_707  0.01666666939854622)
(X_708  0.020588237792253494)
(X_709  0.012745101936161518)
(X_710  0.008823529817163944)
(X_711  0.012745101936161518)
(X_712  0.01666666939854622)
(X_713  0.020588237792253494)
(X_714  0.11666666716337204)
(X_715  0.10882353037595749)
(X_716  0.012745101936161518)
(X_717  0.012745101936161518)
(X_718  0.012745101936161518)
(X_719  0.012745101936161518)
(X_720  0.012745101936161518)
(X_721  0.012745101936161518)
(X_722  0.012745101936161518)
(X_723  0.012745101936161518)
(X_724  0.008823529817163944)
(X_725  0.012745101936161518)
(X_726  0.012745101936161518)
(X_727  0.01666666939854622)
(X_728  0.12058823555707932)
(X_729  0.01666666939854622)
(X_730  0.008823529817163944)
(X_731  0.11274509876966476)
(X_732  0.11666666716337204)
(X_733  0.12058823555707932)
(X_734  0.11666666716337204)
(X_735  0.10882353037595749)
(X_736  0.012745101936161518)
(X_737  0.008823529817163944)
(X_738  0.004901961423456669)
(X_739  0.004901961423456669)
(X_740  0.012745101936161518)
(X_741  0.01666666939854622)
(X_742  0.008823529817163944)
(X_743  0.004901961423456669)
(X_744  0.012745101936161518)
(X_745  0.012745101936161518)
(X_746  0.012745101936161518)
(X_747  0.012745101936161518)
(X_748  0.012745101936161518)
(X_749  0.012745101936161518)
(X_750  0.11274509876966476)
(X_751  0.11274509876966476)
(X_752  0.10882353037595749)
(X_753  0.008823529817163944)
(X_754  0.11274509876966476)
(X_755  0.11666666716337204)
(X_756  0.01666666939854622)
(X_757  0.012745101936161518)
(X_758  0.004901961423456669)
(X_759  0.10882353037595749)
(X_760  0.11274509876966476)
(X_761  0.11274509876966476)
(X_762  0.10882353037595749)
(X_763  0.10098039358854294)
(X_764  0.10882353037595749)
(X_765  0.10490196198225021)
(X_766  0.10098039358854294)
(X_767  0.10098039358854294)
(X_768  0.10882353037595749)
(X_769  0.10882353037595749)
(X_770  0.10490196198225021)
(X_771  0.10098039358854294)
(X_772  0.10882353037595749)
(X_773  0.008823529817163944)
(X_774  0.008823529817163944)
(X_775  0.008823529817163944)
(X_776  0.008823529817163944)
(X_777  0.008823529817163944)
(X_778  0.10882353037595749)
(X_779  0.10882353037595749)
(X_780  0.10490196198225021)
(X_781  0.008823529817163944)
(X_782  0.012745101936161518)
(X_783  0.01666666939854622)
(Y_0 21.006099700927734)
(Y_1 8.421753883361816)
(Y_2 -7.628720283508301)
(Y_3 -22.228946685791016))