((X_0  0.9833333492279053)
(X_1  0.8676470518112183)
(X_2  0.8441176414489746)
(X_3  0.8323529362678528)
(X_4  0.820588231086731)
(X_5  0.8049019575119019)
(X_6  0.7813725471496582)
(X_7  0.7656862735748291)
(X_8  0.7696078419685364)
(X_9  0.7578431367874146)
(X_10  0.8303921818733215)
(X_11  0.8029412031173706)
(X_12  0.779411792755127)
(X_13  0.7637255191802979)
(X_14  0.7558823823928833)
(X_15  0.751960813999176)
(X_16  0.6245098114013672)
(X_17  0.6009804010391235)
(X_18  0.5735294222831726)
(X_19  0.5578431487083435)
(X_20  0.6500000357627869)
(X_21  0.6303921937942505)
(X_22  0.595098078250885)
(X_23  0.46764707565307617)
(X_24  0.5558823943138123)
(X_25  0.5284313559532166)
(X_26  0.3970588147640228)
(X_27  0.48137256503105164)
(X_28  0.3754902184009552)
(X_29  0.3558823764324188)
(X_30  0.22843138873577118)
(X_31  0.21274511516094208)
(X_32  0.20490197837352753)
(X_33  0.20098040997982025)
(X_34  0.18921568989753723)
(X_35  0.2813725471496582)
(X_36  0.2696078419685364)
(X_37  0.15784314274787903)
(X_38  0.14215686917304993)
(X_39  0.12254902720451355)
(X_40  0.10686275362968445)
(X_41  0.09509804844856262)
(X_42  0.19117647409439087)
(X_43  0.19117647409439087)
(X_44  0.1872549057006836)
(X_45  0.17549020051956177)
(X_46  0.06372549384832382)
(X_47  0.07156863063573837)
(X_48  0.08725491166114807)
(X_49  0.09117648005485535)
(X_50  0.07549020648002625)
(X_51  0.05980392172932625)
(X_52  0.19509804248809814)
(X_53  0.18333333730697632)
(X_54  0.0676470622420311)
(X_55  0.15980392694473267)
(X_56  0.2617647051811218)
(X_57  0.14215686917304993)
(X_58  0.11862745881080627)
(X_59  0.0990196168422699)
(X_60  0.0990196168422699)
(X_61  0.0990196168422699)
(X_62  0.10294118523597717)
(X_63  0.10294118523597717)
(X_64  0.0990196168422699)
(X_65  0.09117648005485535)
(X_66  0.0833333432674408)
(X_67  0.07156863063573837)
(X_68  0.16764706373214722)
(X_69  0.06372549384832382)
(X_70  0.0676470622420311)
(X_71  0.0676470622420311)
(X_72  0.07156863063573837)
(X_73  0.06372549384832382)
(X_74  0.05588235333561897)
(X_75  0.06372549384832382)
(X_76  0.17941176891326904)
(X_77  0.1872549057006836)
(X_78  0.18333333730697632)
(X_79  0.1715686321258545)
(X_80  0.15196079015731812)
(X_81  0.15196079015731812)
(X_82  0.15196079015731812)
(X_83  0.15980392694473267)
(X_84  0.1872549057006836)
(X_85  0.17549020051956177)
(X_86  0.16372549533843994)
(X_87  0.15196079015731812)
(X_88  0.0519607849419117)
(X_89  0.05588235333561897)
(X_90  0.06372549384832382)
(X_91  0.0676470622420311)
(X_92  0.0676470622420311)
(X_93  0.06372549384832382)
(X_94  0.05980392172932625)
(X_95  0.05588235333561897)
(X_96  0.1558823585510254)
(X_97  0.1558823585510254)
(X_98  0.15980392694473267)
(X_99  0.15980392694473267)
(X_100  0.16764706373214722)
(X_101  0.1558823585510254)
(X_102  0.14803922176361084)
(X_103  0.04803921654820442)
(X_104  0.05588235333561897)
(X_105  0.05588235333561897)
(X_106  0.0519607849419117)
(X_107  0.04411764815449715)
(X_108  0.07549020648002625)
(X_109  0.06372549384832382)
(X_110  0.04803921654820442)
(X_111  0.136274516582489)
(X_112  0.0676470622420311)
(X_113  0.16764706373214722)
(X_114  0.16764706373214722)
(X_115  0.0676470622420311)
(X_116  0.0676470622420311)
(X_117  0.0676470622420311)
(X_118  0.0676470622420311)
(X_119  0.07156863063573837)
(X_120  0.05980392172932625)
(X_121  0.05980392172932625)
(X_122  0.05588235333561897)
(X_123  0.05588235333561897)
(X_124  0.15196079015731812)
(X_125  0.15196079015731812)
(X_126  0.15196079015731812)
(X_127  0.15196079015731812)
(X_128  0.16764706373214722)
(X_129  0.16372549533843994)
(X_130  0.1558823585510254)
(X_131  0.1558823585510254)
(X_132  0.16372549533843994)
(X_133  0.1715686321258545)
(X_134  0.07156863063573837)
(X_135  0.1715686321258545)
(X_136  0.10882353037595749)
(X_137  0.02450980618596077)
(X_138  0.14411765336990356)
(X_139  0.15980392694473267)
(X_140  0.1558823585510254)
(X_141  0.16372549533843994)
(X_142  0.1715686321258545)
(X_143  0.1715686321258545)
(X_144  0.06372549384832382)
(X_145  0.06372549384832382)
(X_146  0.06372549384832382)
(X_147  0.16764706373214722)
(X_148  0.15980392694473267)
(X_149  0.15980392694473267)
(X_150  0.05980392172932625)
(X_151  0.05588235333561897)
(X_152  0.1558823585510254)
(X_153  0.15196079015731812)
(X_154  0.14803922176361084)
(X_155  0.04803921654820442)
(X_156  0.04803921654820442)
(X_157  0.04411764815449715)
(X_158  0.1401960849761963)
(X_159  0.1401960849761963)
(X_160  0.1401960849761963)
(X_161  0.04803921654820442)
(X_162  0.05588235333561897)
(X_163  0.15980392694473267)
(X_164  0.12647059559822083)
(X_165  0.16960784792900085)
(X_166  0.23235295712947845)
(X_167  0.387254923582077)
(X_168  0.04411764815449715)
(X_169  0.14803922176361084)
(X_170  0.15196079015731812)
(X_171  0.14411765336990356)
(X_172  0.136274516582489)
(X_173  0.13235294818878174)
(X_174  0.04411764815449715)
(X_175  0.0519607849419117)
(X_176  0.14803922176361084)
(X_177  0.15196079015731812)
(X_178  0.0519607849419117)
(X_179  0.15196079015731812)
(X_180  0.14803922176361084)
(X_181  0.14803922176361084)
(X_182  0.14411765336990356)
(X_183  0.04411764815449715)
(X_184  0.12843137979507446)
(X_185  0.13235294818878174)
(X_186  0.136274516582489)
(X_187  0.14411765336990356)
(X_188  0.1558823585510254)
(X_189  0.07549020648002625)
(X_190  0.09509804844856262)
(X_191  0.20686274766921997)
(X_192  0.344117671251297)
(X_193  0.3715686500072479)
(X_194  0.3029411733150482)
(X_195  0.41862747073173523)
(X_196  0.06372549384832382)
(X_197  0.16372549533843994)
(X_198  0.05588235333561897)
(X_199  0.04019607976078987)
(X_200  0.028431374579668045)
(X_201  0.13235294818878174)
(X_202  0.14803922176361084)
(X_203  0.16764706373214722)
(X_204  0.04411764815449715)
(X_205  0.04803921654820442)
(X_206  0.04803921654820442)
(X_207  0.15196079015731812)
(X_208  0.0519607849419117)
(X_209  0.0519607849419117)
(X_210  0.04803921654820442)
(X_211  0.04803921654820442)
(X_212  0.14411765336990356)
(X_213  0.15980392694473267)
(X_214  0.08725491166114807)
(X_215  0.12254902720451355)
(X_216  0.1617647111415863)
(X_217  0.3088235557079315)
(X_218  0.35196080803871155)
(X_219  0.3794117867946625)
(X_220  0.344117671251297)
(X_221  0.2558823525905609)
(X_222  0.26764705777168274)
(X_223  0.3754902184009552)
(X_224  0.06372549384832382)
(X_225  0.0676470622420311)
(X_226  0.0676470622420311)
(X_227  0.05588235333561897)
(X_228  0.04019607976078987)
(X_229  0.036274511367082596)
(X_230  0.0519607849419117)
(X_231  0.06372549384832382)
(X_232  0.04803921654820442)
(X_233  0.05588235333561897)
(X_234  0.05980392172932625)
(X_235  0.05980392172932625)
(X_236  0.06372549384832382)
(X_237  0.08725491166114807)
(X_238  0.12647059559822083)
(X_239  0.15784314274787903)
(X_240  0.20098040997982025)
(X_241  0.30098041892051697)
(X_242  0.3558823764324188)
(X_243  0.3911764919757843)
(X_244  0.36764708161354065)
(X_245  0.3558823764324188)
(X_246  0.3558823764324188)
(X_247  0.3284313976764679)
(X_248  0.3068627417087555)
(X_249  0.4009803831577301)
(X_250  0.4911764860153198)
(X_251  0.6225490570068359)
(X_252  0.0833333432674408)
(X_253  0.05980392172932625)
(X_254  0.1401960849761963)
(X_255  0.14803922176361084)
(X_256  0.16764706373214722)
(X_257  0.16764706373214722)
(X_258  0.14411765336990356)
(X_259  0.012745101936161518)
(X_260  0.08725491166114807)
(X_261  0.06372549384832382)
(X_262  0.07549020648002625)
(X_263  0.1460784375667572)
(X_264  0.24411766231060028)
(X_265  0.29509803652763367)
(X_266  0.38333335518836975)
(X_267  0.344117671251297)
(X_268  0.3637255132198334)
(X_269  0.3598039448261261)
(X_270  0.3754902184009552)
(X_271  0.36764708161354065)
(X_272  0.3401961028575897)
(X_273  0.38333335518836975)
(X_274  0.37745097279548645)
(X_275  0.4362744987010956)
(X_276  0.4598039388656616)
(X_277  0.4833333492279053)
(X_278  0.4950980544090271)
(X_279  0.4754902124404907)
(X_280  0.14411765336990356)
(X_281  0.16372549533843994)
(X_282  0.07941177487373352)
(X_283  0.06372549384832382)
(X_284  0.036274511367082596)
(X_285  0.136274516582489)
(X_286  0.1715686321258545)
(X_287  0.20686274766921997)
(X_288  0.17352941632270813)
(X_289  0.240196093916893)
(X_290  0.31078431010246277)
(X_291  0.31470587849617004)
(X_292  0.2558823525905609)
(X_293  0.1931372582912445)
(X_294  0.16960784792900085)
(X_295  0.16960784792900085)
(X_296  0.36764708161354065)
(X_297  0.26372548937797546)
(X_298  0.2872548997402191)
(X_299  0.4539215862751007)
(X_300  0.5441176295280457)
(X_301  0.6186274886131287)
(X_302  0.6460784673690796)
(X_303  0.5421568751335144)
(X_304  0.4598039388656616)
(X_305  0.44019606709480286)
(X_306  0.40882351994514465)
(X_307  0.48137256503105164)
(X_308  0.136274516582489)
(X_309  0.15980392694473267)
(X_310  0.07156863063573837)
(X_311  0.0519607849419117)
(X_312  0.03235294297337532)
(X_313  0.07156863063573837)
(X_314  0.1617647111415863)
(X_315  0.240196093916893)
(X_316  0.3029411733150482)
(X_317  0.29509803652763367)
(X_318  0.38333335518836975)
(X_319  0.3911764919757843)
(X_320  0.3225490152835846)
(X_321  0.37745097279548645)
(X_322  0.4362744987010956)
(X_323  0.4754902124404907)
(X_324  0.4049019515514374)
(X_325  0.42843136191368103)
(X_326  0.4480392038822174)
(X_327  0.6029412150382996)
(X_328  0.6617647409439087)
(X_329  0.6303921937942505)
(X_330  0.41274508833885193)
(X_331  0.3225490152835846)
(X_332  0.3068627417087555)
(X_333  0.2911764681339264)
(X_334  0.27941176295280457)
(X_335  0.28333333134651184)
(X_336  0.07549020648002625)
(X_337  0.1401960849761963)
(X_338  0.11274509876966476)
(X_339  0.1401960849761963)
(X_340  0.22254902124404907)
(X_341  0.3088235557079315)
(X_342  0.3598039448261261)
(X_343  0.27941176295280457)
(X_344  0.22058825194835663)
(X_345  0.31470587849617004)
(X_346  0.4480392038822174)
(X_347  0.5460784435272217)
(X_348  0.5696078538894653)
(X_349  0.5460784435272217)
(X_350  0.5107843279838562)
(X_351  0.48725491762161255)
(X_352  0.5558823943138123)
(X_353  0.6343137621879578)
(X_354  0.6303921937942505)
(X_355  0.5676470994949341)
(X_356  0.5088235139846802)
(X_357  0.4068627655506134)
(X_358  0.3127451241016388)
(X_359  0.29313725233078003)
(X_360  0.30098041892051697)
(X_361  0.1931372582912445)
(X_362  0.1931372582912445)
(X_363  0.20098040997982025)
(X_364  0.05588235333561897)
(X_365  0.05980392172932625)
(X_366  0.17941176891326904)
(X_367  0.2343137264251709)
(X_368  0.3127451241016388)
(X_369  0.38333335518836975)
(X_370  0.32647058367729187)
(X_371  0.34215685725212097)
(X_372  0.48725491762161255)
(X_373  0.5578431487083435)
(X_374  0.6049019694328308)
(X_375  0.6539216041564941)
(X_376  0.4323529303073883)
(X_377  0.34607842564582825)
(X_378  0.34607842564582825)
(X_379  0.385294109582901)
(X_380  0.3343137204647064)
(X_381  0.41274508833885193)
(X_382  0.4696078598499298)
(X_383  0.2911764681339264)
(X_384  0.27941176295280457)
(X_385  0.22843138873577118)
(X_386  0.2656862735748291)
(X_387  0.2813725471496582)
(X_388  0.25)
(X_389  0.23823529481887817)
(X_390  0.1303921639919281)
(X_391  0.23039215803146362)
(X_392  0.15196079015731812)
(X_393  0.21470588445663452)
(X_394  0.19705882668495178)
(X_395  0.25196078419685364)
(X_396  0.387254923582077)
(X_397  0.43431374430656433)
(X_398  0.5088235139846802)
(X_399  0.5676470994949341)
(X_400  0.6578431725502014)
(X_401  0.6186274886131287)
(X_402  0.5833333730697632)
(X_403  0.479411780834198)
(X_404  0.47156864404678345)
(X_405  0.4205882251262665)
(X_406  0.3225490152835846)
(X_407  0.3401961028575897)
(X_408  0.3558823764324188)
(X_409  0.4107843339443207)
(X_410  0.33627453446388245)
(X_411  0.2696078419685364)
(X_412  0.32058826088905334)
(X_413  0.18921568989753723)
(X_414  0.08725491166114807)
(X_415  0.16764706373214722)
(X_416  0.0990196168422699)
(X_417  0.07941177487373352)
(X_418  0.0676470622420311)
(X_419  0.17941176891326904)
(X_420  0.1303921639919281)
(X_421  0.15784314274787903)
(X_422  0.2088235467672348)
(X_423  0.2754901945590973)
(X_424  0.3578431308269501)
(X_425  0.4362744987010956)
(X_426  0.4990196228027344)
(X_427  0.5382353067398071)
(X_428  0.522549033164978)
(X_429  0.48725491762161255)
(X_430  0.4323529303073883)
(X_431  0.37745097279548645)
(X_432  0.32647058367729187)
(X_433  0.3754902184009552)
(X_434  0.22058825194835663)
(X_435  0.18137255311012268)
(X_436  0.24215686321258545)
(X_437  0.344117671251297)
(X_438  0.28921568393707275)
(X_439  0.2029411792755127)
(X_440  0.22647058963775635)
(X_441  0.19901961088180542)
(X_442  0.04411764815449715)
(X_443  0.0833333432674408)
(X_444  0.0676470622420311)
(X_445  0.04411764815449715)
(X_446  0.036274511367082596)
(X_447  0.15980392694473267)
(X_448  0.29313725233078003)
(X_449  0.21666668355464935)
(X_450  0.4068627655506134)
(X_451  0.5480391979217529)
(X_452  0.6500000357627869)
(X_453  0.665686309337616)
(X_454  0.6147059202194214)
(X_455  0.5637255311012268)
(X_456  0.5362744927406311)
(X_457  0.5049019455909729)
(X_458  0.4735294282436371)
(X_459  0.3068627417087555)
(X_460  0.22058825194835663)
(X_461  0.28921568393707275)
(X_462  0.2656862735748291)
(X_463  0.2029411792755127)
(X_464  0.10294118523597717)
(X_465  0.0990196168422699)
(X_466  0.09509804844856262)
(X_467  0.1872549057006836)
(X_468  0.17549020051956177)
(X_469  0.16372549533843994)
(X_470  0.1558823585510254)
(X_471  0.14803922176361084)
(X_472  0.136274516582489)
(X_473  0.136274516582489)
(X_474  0.136274516582489)
(X_475  0.13235294818878174)
(X_476  0.23235295712947845)
(X_477  0.3696078360080719)
(X_478  0.5911765098571777)
(X_479  0.595098078250885)
(X_480  0.4323529303073883)
(X_481  0.3892156779766083)
(X_482  0.3813725411891937)
(X_483  0.3813725411891937)
(X_484  0.39901962876319885)
(X_485  0.3715686500072479)
(X_486  0.35196080803871155)
(X_487  0.19705882668495178)
(X_488  0.1303921639919281)
(X_489  0.114705890417099)
(X_490  0.10686275362968445)
(X_491  0.05588235333561897)
(X_492  0.07549020648002625)
(X_493  0.07156863063573837)
(X_494  0.16764706373214722)
(X_495  0.16372549533843994)
(X_496  0.1558823585510254)
(X_497  0.14803922176361084)
(X_498  0.136274516582489)
(X_499  0.03235294297337532)
(X_500  0.036274511367082596)
(X_501  0.036274511367082596)
(X_502  0.03235294297337532)
(X_503  0.03235294297337532)
(X_504  0.49705883860588074)
(X_505  0.47156864404678345)
(X_506  0.479411780834198)
(X_507  0.385294109582901)
(X_508  0.29901960492134094)
(X_509  0.27156862616539)
(X_510  0.24411766231060028)
(X_511  0.30098041892051697)
(X_512  0.19705882668495178)
(X_513  0.16960784792900085)
(X_514  0.15784314274787903)
(X_515  0.12254902720451355)
(X_516  0.07156863063573837)
(X_517  0.07156863063573837)
(X_518  0.07549020648002625)
(X_519  0.036274511367082596)
(X_520  0.04019607976078987)
(X_521  0.04019607976078987)
(X_522  0.036274511367082596)
(X_523  0.036274511367082596)
(X_524  0.028431374579668045)
(X_525  0.02450980618596077)
(X_526  0.11666666716337204)
(X_527  0.11274509876966476)
(X_528  0.03235294297337532)
(X_529  0.03235294297337532)
(X_530  0.028431374579668045)
(X_531  0.12843137979507446)
(X_532  0.6186274886131287)
(X_533  0.5362744927406311)
(X_534  0.4068627655506134)
(X_535  0.2970588207244873)
(X_536  0.2696078419685364)
(X_537  0.18137255311012268)
(X_538  0.15392157435417175)
(X_539  0.0990196168422699)
(X_540  0.1617647111415863)
(X_541  0.23039215803146362)
(X_542  0.22254902124404907)
(X_543  0.0990196168422699)
(X_544  0.1558823585510254)
(X_545  0.1558823585510254)
(X_546  0.16372549533843994)
(X_547  0.036274511367082596)
(X_548  0.11666666716337204)
(X_549  0.11666666716337204)
(X_550  0.020588237792253494)
(X_551  0.020588237792253494)
(X_552  0.11666666716337204)
(X_553  0.11274509876966476)
(X_554  0.10882353037595749)
(X_555  0.10882353037595749)
(X_556  0.12843137979507446)
(X_557  0.028431374579668045)
(X_558  0.12450980395078659)
(X_559  0.12450980395078659)
(X_560  0.5715686678886414)
(X_561  0.3539215624332428)
(X_562  0.21274511516094208)
(X_563  0.11862745881080627)
(X_564  0.0676470622420311)
(X_565  0.14411765336990356)
(X_566  0.07156863063573837)
(X_567  0.11862745881080627)
(X_568  0.11078432202339172)
(X_569  0.17549020051956177)
(X_570  0.1715686321258545)
(X_571  0.0676470622420311)
(X_572  0.028431374579668045)
(X_573  0.12450980395078659)
(X_574  0.1401960849761963)
(X_575  0.020588237792253494)
(X_576  0.012745101936161518)
(X_577  0.012745101936161518)
(X_578  0.01666666939854622)
(X_579  0.11666666716337204)
(X_580  0.11666666716337204)
(X_581  0.11666666716337204)
(X_582  0.11274509876966476)
(X_583  0.11274509876966476)
(X_584  0.12058823555707932)
(X_585  0.020588237792253494)
(X_586  0.020588237792253494)
(X_587  0.020588237792253494)
(X_588  0.4735294282436371)
(X_589  0.2558823525905609)
(X_590  0.15392157435417175)
(X_591  0.10294118523597717)
(X_592  0.05588235333561897)
(X_593  0.0009803927969187498)
(X_594  0.020588237792253494)
(X_595  0.18333333730697632)
(X_596  0.14803922176361084)
(X_597  0.11274509876966476)
(X_598  0.02450980618596077)
(X_599  0.04019607976078987)
(X_600  0.012745101936161518)
(X_601  0.004901961423456669)
(X_602  0.020588237792253494)
(X_603  0.008823529817163944)
(X_604  0.11274509876966476)
(X_605  0.11274509876966476)
(X_606  0.11666666716337204)
(X_607  0.12058823555707932)
(X_608  0.12058823555707932)
(X_609  0.11666666716337204)
(X_610  0.11666666716337204)
(X_611  0.11274509876966476)
(X_612  0.01666666939854622)
(X_613  0.01666666939854622)
(X_614  0.11666666716337204)
(X_615  0.11274509876966476)
(X_616  0.35196080803871155)
(X_617  0.2539215683937073)
(X_618  0.0676470622420311)
(X_619  0.04411764815449715)
(X_620  0.04803921654820442)
(X_621  0.13235294818878174)
(X_622  0.11274509876966476)
(X_623  0.10882353037595749)
(X_624  0.12843137979507446)
(X_625  0.09313725680112839)
(X_626  0.11274509876966476)
(X_627  0.1401960849761963)
(X_628  0.01666666939854622)
(X_629  0.004901961423456669)
(X_630  0.01666666939854622)
(X_631  0.008823529817163944)
(X_632  0.10882353037595749)
(X_633  0.11274509876966476)
(X_634  0.012745101936161518)
(X_635  0.01666666939854622)
(X_636  0.012745101936161518)
(X_637  0.11274509876966476)
(X_638  0.10882353037595749)
(X_639  0.008823529817163944)
(X_640  0.012745101936161518)
(X_641  0.012745101936161518)
(X_642  0.11274509876966476)
(X_643  0.11274509876966476)
(X_644  0.21078431606292725)
(X_645  0.0833333432674408)
(X_646  0.13235294818878174)
(X_647  0.08921568840742111)
(X_648  0.09313725680112839)
(X_649  0.11666666716337204)
(X_650  0.12450980395078659)
(X_651  0.10882353037595749)
(X_652  0.12843137979507446)
(X_653  -0.006862743757665157)
(X_654  0.01666666939854622)
(X_655  0.04411764815449715)
(X_656  0.020588237792253494)
(X_657  0.0009803927969187498)
(X_658  0.008823529817163944)
(X_659  -0.0029411755967885256)
(X_660  0.10490196198225021)
(X_661  0.10490196198225021)
(X_662  0.10882353037595749)
(X_663  0.10882353037595749)
(X_664  0.008823529817163944)
(X_665  0.10490196198225021)
(X_666  0.0009803927969187498)
(X_667  -0.0029411755967885256)
(X_668  0.012745101936161518)
(X_669  0.012745101936161518)
(X_670  0.008823529817163944)
(X_671  0.008823529817163944)
(X_672  0.12450980395078659)
(X_673  0.01666666939854622)
(X_674  0.008823529817163944)
(X_675  0.004901961423456669)
(X_676  0.008823529817163944)
(X_677  0.10882353037595749)
(X_678  0.10490196198225021)
(X_679  0.10098039358854294)
(X_680  0.004901961423456669)
(X_681  0.10490196198225021)
(X_682  0.10490196198225021)
(X_683  0.10098039358854294)
(X_684  0.10098039358854294)
(X_685  -0.0029411755967885256)
(X_686  -0.0029411755967885256)
(X_687  -0.0029411755967885256)
(X_688  0.09705882519483566)
(X_689  0.09705882519483566)
(X_690  -0.0029411755967885256)
(X_691  -0.0029411755967885256)
(X_692  0.09705882519483566)
(X_693  -0.0029411755967885256)
(X_694  -0.0029411755967885256)
(X_695  -0.0029411755967885256)
(X_696  0.0009803927969187498)
(X_697  0.10098039358854294)
(X_698  0.10098039358854294)
(X_699  0.10098039358854294)
(X_700  0.12058823555707932)
(X_701  0.012745101936161518)
(X_702  0.004901961423456669)
(X_703  0.0009803927969187498)
(X_704  0.004901961423456669)
(X_705  0.004901961423456669)
(X_706  0.0009803927969187498)
(X_707  -0.0029411755967885256)
(X_708  0.004901961423456669)
(X_709  0.004901961423456669)
(X_710  0.0009803927969187498)
(X_711  0.10098039358854294)
(X_712  0.10098039358854294)
(X_713  0.09705882519483566)
(X_714  -0.0029411755967885256)
(X_715  -0.0029411755967885256)
(X_716  0.09705882519483566)
(X_717  -0.0029411755967885256)
(X_718  -0.0029411755967885256)
(X_719  -0.0029411755967885256)
(X_720  -0.0029411755967885256)
(X_721  0.09705882519483566)
(X_722  -0.0029411755967885256)
(X_723  0.09705882519483566)
(X_724  0.09705882519483566)
(X_725  0.09705882519483566)
(X_726  0.09705882519483566)
(X_727  0.09705882519483566)
(X_728  0.11666666716337204)
(X_729  0.008823529817163944)
(X_730  0.10098039358854294)
(X_731  0.09705882519483566)
(X_732  0.10098039358854294)
(X_733  0.10098039358854294)
(X_734  -0.0029411755967885256)
(X_735  -0.006862743757665157)
(X_736  0.10490196198225021)
(X_737  0.10098039358854294)
(X_738  0.0009803927969187498)
(X_739  0.0009803927969187498)
(X_740  0.09705882519483566)
(X_741  0.09705882519483566)
(X_742  0.09705882519483566)
(X_743  0.09705882519483566)
(X_744  -0.0029411755967885256)
(X_745  -0.0029411755967885256)
(X_746  -0.0029411755967885256)
(X_747  -0.0029411755967885256)
(X_748  -0.0029411755967885256)
(X_749  0.09705882519483566)
(X_750  -0.0029411755967885256)
(X_751  -0.0029411755967885256)
(X_752  0.09313725680112839)
(X_753  0.09313725680112839)
(X_754  0.09313725680112839)
(X_755  0.09313725680112839)
(X_756  0.11274509876966476)
(X_757  0.004901961423456669)
(X_758  -0.0029411755967885256)
(X_759  -0.006862743757665157)
(X_760  -0.0029411755967885256)
(X_761  -0.0029411755967885256)
(X_762  0.09313725680112839)
(X_763  0.08921568840742111)
(X_764  0.10098039358854294)
(X_765  0.0009803927969187498)
(X_766  0.0009803927969187498)
(X_767  -0.0029411755967885256)
(X_768  -0.0029411755967885256)
(X_769  -0.0029411755967885256)
(X_770  -0.006862743757665157)
(X_771  -0.006862743757665157)
(X_772  -0.0029411755967885256)
(X_773  -0.0029411755967885256)
(X_774  -0.0029411755967885256)
(X_775  -0.0029411755967885256)
(X_776  -0.0029411755967885256)
(X_777  -0.0029411755967885256)
(X_778  -0.0029411755967885256)
(X_779  -0.0029411755967885256)
(X_780  -0.010784312151372433)
(X_781  -0.010784312151372433)
(X_782  -0.010784312151372433)
(X_783  -0.010784312151372433)
(Y_0 -32.210548400878906)
(Y_1 34.751644134521484)
(Y_2 -24.994792938232422)
(Y_3 23.06472396850586))