((X_0  1.0499999523162842)
(X_1  0.949999988079071)
(X_2  0.949999988079071)
(X_3  0.949999988079071)
(X_4  0.949999988079071)
(X_5  0.949999988079071)
(X_6  0.949999988079071)
(X_7  0.949999988079071)
(X_8  1.0421568155288696)
(X_9  1.0460784435272217)
(X_10  1.0499999523162842)
(X_11  1.0499999523162842)
(X_12  1.0499999523162842)
(X_13  1.0499999523162842)
(X_14  1.0499999523162842)
(X_15  0.949999988079071)
(X_16  0.949999988079071)
(X_17  0.9421568512916565)
(X_18  0.9382352828979492)
(X_19  0.9421568512916565)
(X_20  1.0460784435272217)
(X_21  1.0499999523162842)
(X_22  1.0460784435272217)
(X_23  1.0421568155288696)
(X_24  1.0499999523162842)
(X_25  1.0499999523162842)
(X_26  0.949999988079071)
(X_27  0.949999988079071)
(X_28  1.0421568155288696)
(X_29  1.0421568155288696)
(X_30  0.9421568512916565)
(X_31  0.9421568512916565)
(X_32  0.9421568512916565)
(X_33  0.9421568512916565)
(X_34  1.0421568155288696)
(X_35  1.0421568155288696)
(X_36  1.0460784435272217)
(X_37  1.0460784435272217)
(X_38  0.9460784196853638)
(X_39  0.949999988079071)
(X_40  0.949999988079071)
(X_41  1.0499999523162842)
(X_42  1.0499999523162842)
(X_43  0.949999988079071)
(X_44  1.0499999523162842)
(X_45  1.0499999523162842)
(X_46  1.0499999523162842)
(X_47  1.0499999523162842)
(X_48  0.949999988079071)
(X_49  0.949999988079071)
(X_50  0.949999988079071)
(X_51  0.949999988079071)
(X_52  1.0499999523162842)
(X_53  0.949999988079071)
(X_54  0.949999988079071)
(X_55  1.0499999523162842)
(X_56  0.9166666865348816)
(X_57  0.820588231086731)
(X_58  0.8245097994804382)
(X_59  0.8284313678741455)
(X_60  0.8284313678741455)
(X_61  0.8245097994804382)
(X_62  0.820588231086731)
(X_63  0.8166666626930237)
(X_64  0.9598039388656616)
(X_65  0.8598039150238037)
(X_66  0.8558823466300964)
(X_67  0.9519608020782471)
(X_68  0.9558823704719543)
(X_69  0.8598039150238037)
(X_70  0.863725483417511)
(X_71  0.9676470756530762)
(X_72  0.8794117569923401)
(X_73  0.8754901885986328)
(X_74  0.8754901885986328)
(X_75  0.8833333253860474)
(X_76  0.8911764621734619)
(X_77  0.9990196228027344)
(X_78  0.9990196228027344)
(X_79  0.9950980544090271)
(X_80  0.9950980544090271)
(X_81  1.0029411315917969)
(X_82  0.906862735748291)
(X_83  1.0147058963775635)
(X_84  0.24607843160629272)
(X_85  0.2539215683937073)
(X_86  0.2617647051811218)
(X_87  0.2656862735748291)
(X_88  0.2656862735748291)
(X_89  0.1617647111415863)
(X_90  0.2539215683937073)
(X_91  0.24607843160629272)
(X_92  0.19705882668495178)
(X_93  0.1931372582912445)
(X_94  0.18529412150382996)
(X_95  0.18137255311012268)
(X_96  0.2813725471496582)
(X_97  0.18921568989753723)
(X_98  0.20098040997982025)
(X_99  0.30490198731422424)
(X_100  0.3088235557079315)
(X_101  0.30490198731422424)
(X_102  0.30490198731422424)
(X_103  0.31666669249534607)
(X_104  0.23235295712947845)
(X_105  0.240196093916893)
(X_106  0.24411766231060028)
(X_107  0.240196093916893)
(X_108  0.24803923070430756)
(X_109  0.2558823525905609)
(X_110  0.26764705777168274)
(X_111  0.3754902184009552)
(X_112  0.028431374579668045)
(X_113  0.136274516582489)
(X_114  0.14411765336990356)
(X_115  0.15196079015731812)
(X_116  0.15196079015731812)
(X_117  0.04411764815449715)
(X_118  0.036274511367082596)
(X_119  0.028431374579668045)
(X_120  0.04411764815449715)
(X_121  0.04019607976078987)
(X_122  0.03235294297337532)
(X_123  0.028431374579668045)
(X_124  0.028431374579668045)
(X_125  0.036274511367082596)
(X_126  0.04411764815449715)
(X_127  0.0519607849419117)
(X_128  0.14803922176361084)
(X_129  0.1401960849761963)
(X_130  0.1401960849761963)
(X_131  0.14411765336990356)
(X_132  0.15196079015731812)
(X_133  0.1558823585510254)
(X_134  0.1558823585510254)
(X_135  0.14803922176361084)
(X_136  0.15196079015731812)
(X_137  0.05588235333561897)
(X_138  0.15980392694473267)
(X_139  0.16764706373214722)
(X_140  0.14803922176361084)
(X_141  0.15196079015731812)
(X_142  0.15980392694473267)
(X_143  0.15980392694473267)
(X_144  0.05980392172932625)
(X_145  0.05980392172932625)
(X_146  0.0519607849419117)
(X_147  0.14803922176361084)
(X_148  0.14411765336990356)
(X_149  0.1401960849761963)
(X_150  0.136274516582489)
(X_151  0.136274516582489)
(X_152  0.136274516582489)
(X_153  0.1401960849761963)
(X_154  0.14803922176361084)
(X_155  0.15196079015731812)
(X_156  0.14411765336990356)
(X_157  0.136274516582489)
(X_158  0.13235294818878174)
(X_159  0.13235294818878174)
(X_160  0.13235294818878174)
(X_161  0.03235294297337532)
(X_162  0.02450980618596077)
(X_163  0.12058823555707932)
(X_164  0.12843137979507446)
(X_165  0.028431374579668045)
(X_166  0.02450980618596077)
(X_167  0.12450980395078659)
(X_168  0.04019607976078987)
(X_169  0.1401960849761963)
(X_170  0.04019607976078987)
(X_171  0.04019607976078987)
(X_172  0.04019607976078987)
(X_173  0.04019607976078987)
(X_174  0.04019607976078987)
(X_175  0.04019607976078987)
(X_176  0.136274516582489)
(X_177  0.136274516582489)
(X_178  0.04019607976078987)
(X_179  0.1401960849761963)
(X_180  0.1401960849761963)
(X_181  0.04411764815449715)
(X_182  0.04411764815449715)
(X_183  0.04411764815449715)
(X_184  0.13235294818878174)
(X_185  0.12843137979507446)
(X_186  0.12843137979507446)
(X_187  0.136274516582489)
(X_188  0.14803922176361084)
(X_189  0.05588235333561897)
(X_190  0.05588235333561897)
(X_191  0.15196079015731812)
(X_192  0.17549020051956177)
(X_193  0.16764706373214722)
(X_194  0.05588235333561897)
(X_195  0.04411764815449715)
(X_196  0.04411764815449715)
(X_197  0.1401960849761963)
(X_198  0.1401960849761963)
(X_199  0.036274511367082596)
(X_200  0.036274511367082596)
(X_201  0.04019607976078987)
(X_202  0.04019607976078987)
(X_203  0.04411764815449715)
(X_204  0.036274511367082596)
(X_205  0.036274511367082596)
(X_206  0.04019607976078987)
(X_207  0.14411765336990356)
(X_208  0.04803921654820442)
(X_209  0.04411764815449715)
(X_210  0.04411764815449715)
(X_211  0.14411765336990356)
(X_212  0.12450980395078659)
(X_213  0.12450980395078659)
(X_214  0.136274516582489)
(X_215  0.1558823585510254)
(X_216  0.18333333730697632)
(X_217  0.2029411792755127)
(X_218  0.21470588445663452)
(X_219  0.2186274528503418)
(X_220  0.23039215803146362)
(X_221  0.2186274528503418)
(X_222  0.0990196168422699)
(X_223  0.18333333730697632)
(X_224  0.03235294297337532)
(X_225  0.13235294818878174)
(X_226  0.13235294818878174)
(X_227  0.12843137979507446)
(X_228  0.02450980618596077)
(X_229  0.02450980618596077)
(X_230  0.028431374579668045)
(X_231  0.03235294297337532)
(X_232  0.04019607976078987)
(X_233  0.028431374579668045)
(X_234  0.036274511367082596)
(X_235  0.1558823585510254)
(X_236  0.0519607849419117)
(X_237  0.028431374579668045)
(X_238  0.028431374579668045)
(X_239  0.04411764815449715)
(X_240  0.01666666939854622)
(X_241  0.16372549533843994)
(X_242  0.30490198731422424)
(X_243  0.387254923582077)
(X_244  0.3637255132198334)
(X_245  0.3911764919757843)
(X_246  0.4539215862751007)
(X_247  0.44607844948768616)
(X_248  0.3225490152835846)
(X_249  0.3186274468898773)
(X_250  0.3068627417087555)
(X_251  0.3950980603694916)
(X_252  0.05588235333561897)
(X_253  0.05980392172932625)
(X_254  0.15980392694473267)
(X_255  0.16372549533843994)
(X_256  0.16372549533843994)
(X_257  0.16764706373214722)
(X_258  0.1715686321258545)
(X_259  0.17941176891326904)
(X_260  0.08725491166114807)
(X_261  0.05588235333561897)
(X_262  0.028431374579668045)
(X_263  0.02450980618596077)
(X_264  0.12843137979507446)
(X_265  0.036274511367082596)
(X_266  0.17549020051956177)
(X_267  0.21470588445663452)
(X_268  0.35196080803871155)
(X_269  0.3480392396450043)
(X_270  0.387254923582077)
(X_271  0.32647058367729187)
(X_272  0.32647058367729187)
(X_273  0.4225490391254425)
(X_274  0.39901962876319885)
(X_275  0.35196080803871155)
(X_276  0.3950980603694916)
(X_277  0.2911764681339264)
(X_278  0.2872548997402191)
(X_279  0.2872548997402191)
(X_280  0.387254923582077)
(X_281  0.38333335518836975)
(X_282  0.3794117867946625)
(X_283  0.2754901945590973)
(X_284  0.27156862616539)
(X_285  0.36764708161354065)
(X_286  0.36764708161354065)
(X_287  0.3637255132198334)
(X_288  0.24803923070430756)
(X_289  0.23627452552318573)
(X_290  0.22843138873577118)
(X_291  0.23627452552318573)
(X_292  0.23627452552318573)
(X_293  0.22843138873577118)
(X_294  0.23235295712947845)
(X_295  0.24411766231060028)
(X_296  0.32058826088905334)
(X_297  0.2598039209842682)
(X_298  0.27156862616539)
(X_299  0.27156862616539)
(X_300  0.3794117867946625)
(X_301  0.3754902184009552)
(X_302  0.27941176295280457)
(X_303  0.3186274468898773)
(X_304  0.33039215207099915)
(X_305  0.32647058367729187)
(X_306  0.3225490152835846)
(X_307  0.3186274468898773)
(X_308  0.39901962876319885)
(X_309  0.3950980603694916)
(X_310  0.3911764919757843)
(X_311  0.2911764681339264)
(X_312  0.29509803652763367)
(X_313  0.2911764681339264)
(X_314  0.2872548997402191)
(X_315  0.27941176295280457)
(X_316  0.4068627655506134)
(X_317  0.3754902184009552)
(X_318  0.3401961028575897)
(X_319  0.3127451241016388)
(X_320  0.2970588207244873)
(X_321  0.1931372582912445)
(X_322  0.19705882668495178)
(X_323  0.20490197837352753)
(X_324  0.15784314274787903)
(X_325  0.2088235467672348)
(X_326  0.18921568989753723)
(X_327  0.2774509787559509)
(X_328  0.33235296607017517)
(X_329  0.25196078419685364)
(X_330  0.3754902184009552)
(X_331  0.457843154668808)
(X_332  0.520588219165802)
(X_333  0.4205882251262665)
(X_334  0.4166666567325592)
(X_335  0.4166666567325592)
(X_336  0.344117671251297)
(X_337  0.3401961028575897)
(X_338  0.344117671251297)
(X_339  0.2598039209842682)
(X_340  0.3754902184009552)
(X_341  0.38333335518836975)
(X_342  0.28333333134651184)
(X_343  0.2754901945590973)
(X_344  0.33627453446388245)
(X_345  0.344117671251297)
(X_346  0.3558823764324188)
(X_347  0.35196080803871155)
(X_348  0.23235295712947845)
(X_349  0.18921568989753723)
(X_350  0.1303921639919281)
(X_351  0.18333333730697632)
(X_352  0.1872549057006836)
(X_353  0.18333333730697632)
(X_354  0.036274511367082596)
(X_355  0.07941177487373352)
(X_356  0.23627452552318573)
(X_357  0.3911764919757843)
(X_358  0.35196080803871155)
(X_359  0.35196080803871155)
(X_360  0.2539215683937073)
(X_361  0.2617647051811218)
(X_362  0.17352941632270813)
(X_363  0.18529412150382996)
(X_364  0.38333335518836975)
(X_365  0.3754902184009552)
(X_366  0.3715686500072479)
(X_367  0.3794117867946625)
(X_368  0.2872548997402191)
(X_369  0.2872548997402191)
(X_370  0.27156862616539)
(X_371  0.2558823525905609)
(X_372  0.29509803652763367)
(X_373  0.3186274468898773)
(X_374  0.4382353127002716)
(X_375  0.4421568810939789)
(X_376  0.4382353127002716)
(X_377  0.3029411733150482)
(X_378  0.240196093916893)
(X_379  0.18137255311012268)
(X_380  0.12254902720451355)
(X_381  0.23039215803146362)
(X_382  0.23039215803146362)
(X_383  0.2696078419685364)
(X_384  0.240196093916893)
(X_385  0.240196093916893)
(X_386  0.1774509847164154)
(X_387  0.14215686917304993)
(X_388  0.08725491166114807)
(X_389  0.09509804844856262)
(X_390  0.10686275362968445)
(X_391  0.11862745881080627)
(X_392  0.5088235139846802)
(X_393  0.49705883860588074)
(X_394  0.4852941334247589)
(X_395  0.4892157018184662)
(X_396  0.49313727021217346)
(X_397  0.4852941334247589)
(X_398  0.36176469922065735)
(X_399  0.3382352888584137)
(X_400  0.34215685725212097)
(X_401  0.3029411733150482)
(X_402  0.22843138873577118)
(X_403  0.27352941036224365)
(X_404  0.2852941155433655)
(X_405  0.3401961028575897)
(X_406  0.28333333134651184)
(X_407  0.3950980603694916)
(X_408  0.4264706075191498)
(X_409  0.4421568810939789)
(X_410  0.4735294282436371)
(X_411  0.45000001788139343)
(X_412  0.3558823764324188)
(X_413  0.28921568393707275)
(X_414  0.2656862735748291)
(X_415  0.24215686321258545)
(X_416  0.15784314274787903)
(X_417  0.1617647111415863)
(X_418  0.1617647111415863)
(X_419  0.16568627953529358)
(X_420  0.2598039209842682)
(X_421  0.35196080803871155)
(X_422  0.35196080803871155)
(X_423  0.27156862616539)
(X_424  0.29509803652763367)
(X_425  0.3029411733150482)
(X_426  0.2872548997402191)
(X_427  0.36764708161354065)
(X_428  0.21666668355464935)
(X_429  0.3245098292827606)
(X_430  0.22843138873577118)
(X_431  0.2245098203420639)
(X_432  0.24411766231060028)
(X_433  0.3637255132198334)
(X_434  0.24411766231060028)
(X_435  0.20490197837352753)
(X_436  0.387254923582077)
(X_437  0.35196080803871155)
(X_438  0.2872548997402191)
(X_439  0.29509803652763367)
(X_440  0.240196093916893)
(X_441  0.24803923070430756)
(X_442  0.27941176295280457)
(X_443  0.24411766231060028)
(X_444  0.15000000596046448)
(X_445  0.15392157435417175)
(X_446  0.1617647111415863)
(X_447  0.2656862735748291)
(X_448  0.24607843160629272)
(X_449  0.16568627953529358)
(X_450  0.18137255311012268)
(X_451  0.18921568989753723)
(X_452  0.17352941632270813)
(X_453  0.1460784375667572)
(X_454  0.22647058963775635)
(X_455  0.21078431606292725)
(X_456  0.2343137264251709)
(X_457  0.23039215803146362)
(X_458  0.22647058963775635)
(X_459  0.22647058963775635)
(X_460  0.2343137264251709)
(X_461  0.24607843160629272)
(X_462  0.15784314274787903)
(X_463  0.16568627953529358)
(X_464  0.19705882668495178)
(X_465  0.1931372582912445)
(X_466  0.18529412150382996)
(X_467  0.1617647111415863)
(X_468  0.23823529481887817)
(X_469  0.21470588445663452)
(X_470  0.20686274766921997)
(X_471  0.2029411792755127)
(X_472  0.19117647409439087)
(X_473  0.19509804248809814)
(X_474  0.20686274766921997)
(X_475  0.21470588445663452)
(X_476  0.12254902720451355)
(X_477  0.13431373238563538)
(X_478  0.24607843160629272)
(X_479  0.24215686321258545)
(X_480  0.12254902720451355)
(X_481  0.09509804844856262)
(X_482  0.07549020648002625)
(X_483  0.06372549384832382)
(X_484  0.1872549057006836)
(X_485  0.1872549057006836)
(X_486  0.18333333730697632)
(X_487  0.07941177487373352)
(X_488  0.1872549057006836)
(X_489  0.19509804248809814)
(X_490  0.2029411792755127)
(X_491  0.21078431606292725)
(X_492  0.15784314274787903)
(X_493  0.15784314274787903)
(X_494  0.15392157435417175)
(X_495  0.14215686917304993)
(X_496  0.22647058963775635)
(X_497  0.21078431606292725)
(X_498  0.20686274766921997)
(X_499  0.11078432202339172)
(X_500  0.19901961088180542)
(X_501  0.19901961088180542)
(X_502  0.2029411792755127)
(X_503  0.10686275362968445)
(X_504  0.20686274766921997)
(X_505  0.21470588445663452)
(X_506  0.2186274528503418)
(X_507  0.21470588445663452)
(X_508  0.19509804248809814)
(X_509  0.07549020648002625)
(X_510  0.06372549384832382)
(X_511  0.05980392172932625)
(X_512  0.0676470622420311)
(X_513  0.06372549384832382)
(X_514  0.05980392172932625)
(X_515  0.05980392172932625)
(X_516  0.05980392172932625)
(X_517  0.0676470622420311)
(X_518  0.07156863063573837)
(X_519  0.07941177487373352)
(X_520  0.10294118523597717)
(X_521  0.10686275362968445)
(X_522  0.11078432202339172)
(X_523  0.11078432202339172)
(X_524  0.10294118523597717)
(X_525  0.19901961088180542)
(X_526  0.2029411792755127)
(X_527  0.20686274766921997)
(X_528  0.19117647409439087)
(X_529  0.08725491166114807)
(X_530  0.08725491166114807)
(X_531  0.08725491166114807)
(X_532  0.18333333730697632)
(X_533  0.1872549057006836)
(X_534  0.19117647409439087)
(X_535  0.1872549057006836)
(X_536  0.17941176891326904)
(X_537  0.07156863063573837)
(X_538  0.07156863063573837)
(X_539  0.17549020051956177)
(X_540  0.05980392172932625)
(X_541  0.05980392172932625)
(X_542  0.1558823585510254)
(X_543  0.15196079015731812)
(X_544  0.0519607849419117)
(X_545  0.0519607849419117)
(X_546  0.05588235333561897)
(X_547  0.05980392172932625)
(X_548  0.1558823585510254)
(X_549  0.06372549384832382)
(X_550  0.07156863063573837)
(X_551  0.07549020648002625)
(X_552  0.1715686321258545)
(X_553  0.17549020051956177)
(X_554  0.0833333432674408)
(X_555  0.09117648005485535)
(X_556  0.16764706373214722)
(X_557  0.16372549533843994)
(X_558  0.1558823585510254)
(X_559  0.15196079015731812)
(X_560  0.14411765336990356)
(X_561  0.04803921654820442)
(X_562  0.0519607849419117)
(X_563  0.04803921654820442)
(X_564  0.04019607976078987)
(X_565  0.04019607976078987)
(X_566  0.04411764815449715)
(X_567  0.0519607849419117)
(X_568  0.036274511367082596)
(X_569  0.03235294297337532)
(X_570  0.03235294297337532)
(X_571  0.028431374579668045)
(X_572  0.028431374579668045)
(X_573  0.028431374579668045)
(X_574  0.028431374579668045)
(X_575  0.028431374579668045)
(X_576  0.03235294297337532)
(X_577  0.036274511367082596)
(X_578  0.04411764815449715)
(X_579  0.14411765336990356)
(X_580  0.14411765336990356)
(X_581  0.04411764815449715)
(X_582  0.0519607849419117)
(X_583  0.1558823585510254)
(X_584  0.0519607849419117)
(X_585  0.04411764815449715)
(X_586  0.036274511367082596)
(X_587  0.03235294297337532)
(X_588  0.136274516582489)
(X_589  0.036274511367082596)
(X_590  0.036274511367082596)
(X_591  0.12843137979507446)
(X_592  0.11666666716337204)
(X_593  0.11274509876966476)
(X_594  0.01666666939854622)
(X_595  0.02450980618596077)
(X_596  0.12058823555707932)
(X_597  0.12058823555707932)
(X_598  0.01666666939854622)
(X_599  0.01666666939854622)
(X_600  0.01666666939854622)
(X_601  0.01666666939854622)
(X_602  0.01666666939854622)
(X_603  0.01666666939854622)
(X_604  0.11666666716337204)
(X_605  0.12450980395078659)
(X_606  0.12843137979507446)
(X_607  0.12450980395078659)
(X_608  0.12058823555707932)
(X_609  0.01666666939854622)
(X_610  0.12058823555707932)
(X_611  0.12843137979507446)
(X_612  0.036274511367082596)
(X_613  0.036274511367082596)
(X_614  0.13235294818878174)
(X_615  0.12843137979507446)
(X_616  0.12450980395078659)
(X_617  0.12843137979507446)
(X_618  0.12843137979507446)
(X_619  0.02450980618596077)
(X_620  0.11666666716337204)
(X_621  0.11274509876966476)
(X_622  0.01666666939854622)
(X_623  0.020588237792253494)
(X_624  0.008823529817163944)
(X_625  0.012745101936161518)
(X_626  0.11274509876966476)
(X_627  0.11666666716337204)
(X_628  0.11666666716337204)
(X_629  0.01666666939854622)
(X_630  0.01666666939854622)
(X_631  0.012745101936161518)
(X_632  0.008823529817163944)
(X_633  0.012745101936161518)
(X_634  0.01666666939854622)
(X_635  0.11274509876966476)
(X_636  0.10490196198225021)
(X_637  0.10098039358854294)
(X_638  0.10490196198225021)
(X_639  0.10882353037595749)
(X_640  0.01666666939854622)
(X_641  0.11666666716337204)
(X_642  0.12058823555707932)
(X_643  0.12058823555707932)
(X_644  0.08921568840742111)
(X_645  -0.0029411755967885256)
(X_646  0.10490196198225021)
(X_647  0.10882353037595749)
(X_648  0.10882353037595749)
(X_649  0.10882353037595749)
(X_650  0.11666666716337204)
(X_651  0.12450980395078659)
(X_652  0.09313725680112839)
(X_653  0.09313725680112839)
(X_654  -0.0029411755967885256)
(X_655  0.0009803927969187498)
(X_656  0.004901961423456669)
(X_657  0.004901961423456669)
(X_658  0.0009803927969187498)
(X_659  0.0009803927969187498)
(X_660  0.10098039358854294)
(X_661  0.10490196198225021)
(X_662  0.10882353037595749)
(X_663  0.004901961423456669)
(X_664  0.0009803927969187498)
(X_665  0.09705882519483566)
(X_666  0.10098039358854294)
(X_667  0.004901961423456669)
(X_668  -0.0029411755967885256)
(X_669  0.0009803927969187498)
(X_670  0.10490196198225021)
(X_671  0.008823529817163944)
(X_672  0.0009803927969187498)
(X_673  0.0009803927969187498)
(X_674  0.0009803927969187498)
(X_675  0.0009803927969187498)
(X_676  0.0009803927969187498)
(X_677  0.0009803927969187498)
(X_678  0.10098039358854294)
(X_679  0.0009803927969187498)
(X_680  -0.006862743757665157)
(X_681  0.09313725680112839)
(X_682  -0.006862743757665157)
(X_683  -0.0029411755967885256)
(X_684  -0.0029411755967885256)
(X_685  0.0009803927969187498)
(X_686  0.0009803927969187498)
(X_687  0.0009803927969187498)
(X_688  0.10490196198225021)
(X_689  0.10098039358854294)
(X_690  -0.0029411755967885256)
(X_691  -0.006862743757665157)
(X_692  -0.006862743757665157)
(X_693  -0.006862743757665157)
(X_694  -0.006862743757665157)
(X_695  0.09705882519483566)
(X_696  0.10882353037595749)
(X_697  0.10490196198225021)
(X_698  0.10098039358854294)
(X_699  0.10098039358854294)
(X_700  0.10098039358854294)
(X_701  0.0009803927969187498)
(X_702  0.10098039358854294)
(X_703  0.10098039358854294)
(X_704  0.0009803927969187498)
(X_705  0.0009803927969187498)
(X_706  0.0009803927969187498)
(X_707  0.0009803927969187498)
(X_708  0.09313725680112839)
(X_709  0.09313725680112839)
(X_710  0.09313725680112839)
(X_711  -0.0029411755967885256)
(X_712  -0.0029411755967885256)
(X_713  0.0009803927969187498)
(X_714  0.0009803927969187498)
(X_715  0.0009803927969187498)
(X_716  0.10490196198225021)
(X_717  0.10098039358854294)
(X_718  -0.0029411755967885256)
(X_719  -0.006862743757665157)
(X_720  -0.006862743757665157)
(X_721  0.09313725680112839)
(X_722  0.09313725680112839)
(X_723  0.09705882519483566)
(X_724  0.10490196198225021)
(X_725  0.10490196198225021)
(X_726  0.10098039358854294)
(X_727  0.09705882519483566)
(X_728  0.10098039358854294)
(X_729  0.10098039358854294)
(X_730  0.10098039358854294)
(X_731  0.10098039358854294)
(X_732  0.10098039358854294)
(X_733  0.10098039358854294)
(X_734  0.10098039358854294)
(X_735  0.10098039358854294)
(X_736  -0.006862743757665157)
(X_737  -0.006862743757665157)
(X_738  -0.006862743757665157)
(X_739  -0.0029411755967885256)
(X_740  -0.0029411755967885256)
(X_741  0.0009803927969187498)
(X_742  0.0009803927969187498)
(X_743  0.0009803927969187498)
(X_744  0.004901961423456669)
(X_745  0.0009803927969187498)
(X_746  -0.0029411755967885256)
(X_747  -0.006862743757665157)
(X_748  -0.006862743757665157)
(X_749  -0.006862743757665157)
(X_750  -0.006862743757665157)
(X_751  -0.0029411755967885256)
(X_752  0.10098039358854294)
(X_753  0.09705882519483566)
(X_754  0.09313725680112839)
(X_755  0.09313725680112839)
(X_756  0.09705882519483566)
(X_757  -0.0029411755967885256)
(X_758  0.09705882519483566)
(X_759  0.09705882519483566)
(X_760  -0.0029411755967885256)
(X_761  -0.0029411755967885256)
(X_762  0.09705882519483566)
(X_763  0.09705882519483566)
(X_764  0.09313725680112839)
(X_765  0.09313725680112839)
(X_766  0.09313725680112839)
(X_767  -0.0029411755967885256)
(X_768  -0.0029411755967885256)
(X_769  0.0009803927969187498)
(X_770  0.0009803927969187498)
(X_771  0.0009803927969187498)
(X_772  0.004901961423456669)
(X_773  0.0009803927969187498)
(X_774  -0.0029411755967885256)
(X_775  -0.006862743757665157)
(X_776  0.09313725680112839)
(X_777  0.09313725680112839)
(X_778  0.09313725680112839)
(X_779  0.09705882519483566)
(X_780  -0.0029411755967885256)
(X_781  -0.006862743757665157)
(X_782  -0.010784312151372433)
(X_783  -0.014705880545079708)
(Y_0 -18.037078857421875)
(Y_1 5.993825435638428)
(Y_2 -7.567549705505371)
(Y_3 19.578447341918945))