((X_0  0.2754901945590973)
(X_1  0.25196078419685364)
(X_2  0.23235295712947845)
(X_3  0.22058825194835663)
(X_4  0.22843138873577118)
(X_5  0.23235295712947845)
(X_6  0.3284313976764679)
(X_7  0.32058826088905334)
(X_8  0.28921568393707275)
(X_9  0.29313725233078003)
(X_10  0.2970588207244873)
(X_11  0.29313725233078003)
(X_12  0.2852941155433655)
(X_13  0.1774509847164154)
(X_14  0.17352941632270813)
(X_15  0.17352941632270813)
(X_16  0.1617647111415863)
(X_17  0.15392157435417175)
(X_18  0.14215686917304993)
(X_19  0.1303921639919281)
(X_20  0.22254902124404907)
(X_21  0.2186274528503418)
(X_22  0.22254902124404907)
(X_23  0.22647058963775635)
(X_24  0.08725491166114807)
(X_25  0.0833333432674408)
(X_26  0.07549020648002625)
(X_27  0.07156863063573837)
(X_28  0.14803922176361084)
(X_29  0.14411765336990356)
(X_30  0.14411765336990356)
(X_31  0.14803922176361084)
(X_32  0.1558823585510254)
(X_33  0.06372549384832382)
(X_34  0.05980392172932625)
(X_35  0.05980392172932625)
(X_36  0.15980392694473267)
(X_37  0.16372549533843994)
(X_38  0.16372549533843994)
(X_39  0.15980392694473267)
(X_40  0.15980392694473267)
(X_41  0.15980392694473267)
(X_42  0.16372549533843994)
(X_43  0.16764706373214722)
(X_44  0.07941177487373352)
(X_45  0.07156863063573837)
(X_46  0.06372549384832382)
(X_47  0.1558823585510254)
(X_48  0.0519607849419117)
(X_49  0.15196079015731812)
(X_50  0.15980392694473267)
(X_51  0.16372549533843994)
(X_52  0.16764706373214722)
(X_53  0.06372549384832382)
(X_54  0.05980392172932625)
(X_55  0.0519607849419117)
(X_56  0.04019607976078987)
(X_57  0.0519607849419117)
(X_58  0.05980392172932625)
(X_59  0.15980392694473267)
(X_60  0.1558823585510254)
(X_61  0.14411765336990356)
(X_62  0.036274511367082596)
(X_63  0.036274511367082596)
(X_64  0.04803921654820442)
(X_65  0.14411765336990356)
(X_66  0.136274516582489)
(X_67  0.136274516582489)
(X_68  0.136274516582489)
(X_69  0.1401960849761963)
(X_70  0.14803922176361084)
(X_71  0.15196079015731812)
(X_72  0.05980392172932625)
(X_73  0.05588235333561897)
(X_74  0.0519607849419117)
(X_75  0.04803921654820442)
(X_76  0.04803921654820442)
(X_77  0.15196079015731812)
(X_78  0.15980392694473267)
(X_79  0.16372549533843994)
(X_80  0.136274516582489)
(X_81  0.13235294818878174)
(X_82  0.12843137979507446)
(X_83  0.02450980618596077)
(X_84  0.03235294297337532)
(X_85  0.04803921654820442)
(X_86  0.05980392172932625)
(X_87  0.05588235333561897)
(X_88  0.136274516582489)
(X_89  0.12450980395078659)
(X_90  0.12450980395078659)
(X_91  0.12843137979507446)
(X_92  0.04019607976078987)
(X_93  0.136274516582489)
(X_94  0.13235294818878174)
(X_95  0.13235294818878174)
(X_96  0.03235294297337532)
(X_97  0.036274511367082596)
(X_98  0.03235294297337532)
(X_99  0.028431374579668045)
(X_100  0.03235294297337532)
(X_101  0.028431374579668045)
(X_102  0.028431374579668045)
(X_103  0.12450980395078659)
(X_104  0.12450980395078659)
(X_105  0.12843137979507446)
(X_106  0.13235294818878174)
(X_107  0.136274516582489)
(X_108  0.03235294297337532)
(X_109  0.028431374579668045)
(X_110  0.02450980618596077)
(X_111  0.02450980618596077)
(X_112  0.10882353037595749)
(X_113  0.12058823555707932)
(X_114  0.13235294818878174)
(X_115  0.13235294818878174)
(X_116  0.12450980395078659)
(X_117  0.12450980395078659)
(X_118  0.1401960849761963)
(X_119  0.0519607849419117)
(X_120  0.020588237792253494)
(X_121  0.020588237792253494)
(X_122  0.020588237792253494)
(X_123  0.03235294297337532)
(X_124  0.1401960849761963)
(X_125  0.04019607976078987)
(X_126  0.03235294297337532)
(X_127  0.020588237792253494)
(X_128  0.136274516582489)
(X_129  0.136274516582489)
(X_130  0.13235294818878174)
(X_131  0.03235294297337532)
(X_132  0.03235294297337532)
(X_133  0.03235294297337532)
(X_134  0.03235294297337532)
(X_135  0.03235294297337532)
(X_136  0.1401960849761963)
(X_137  0.1401960849761963)
(X_138  0.136274516582489)
(X_139  0.03235294297337532)
(X_140  0.16764706373214722)
(X_141  0.0676470622420311)
(X_142  0.06372549384832382)
(X_143  0.15196079015731812)
(X_144  0.036274511367082596)
(X_145  0.12843137979507446)
(X_146  0.12843137979507446)
(X_147  0.03235294297337532)
(X_148  0.12450980395078659)
(X_149  0.020588237792253494)
(X_150  0.020588237792253494)
(X_151  0.13235294818878174)
(X_152  0.15196079015731812)
(X_153  0.1558823585510254)
(X_154  0.04803921654820442)
(X_155  0.136274516582489)
(X_156  0.14803922176361084)
(X_157  0.14803922176361084)
(X_158  0.14803922176361084)
(X_159  0.04803921654820442)
(X_160  0.14411765336990356)
(X_161  0.14411765336990356)
(X_162  0.14411765336990356)
(X_163  0.14411765336990356)
(X_164  0.12843137979507446)
(X_165  0.12843137979507446)
(X_166  0.12450980395078659)
(X_167  0.12058823555707932)
(X_168  0.1774509847164154)
(X_169  0.2656862735748291)
(X_170  0.14215686917304993)
(X_171  0.11862745881080627)
(X_172  0.09509804844856262)
(X_173  0.06372549384832382)
(X_174  0.13235294818878174)
(X_175  0.11274509876966476)
(X_176  0.036274511367082596)
(X_177  0.01666666939854622)
(X_178  -0.0029411755967885256)
(X_179  0.09705882519483566)
(X_180  0.10882353037595749)
(X_181  0.12058823555707932)
(X_182  0.11274509876966476)
(X_183  0.10490196198225021)
(X_184  0.0009803927969187498)
(X_185  0.004901961423456669)
(X_186  0.008823529817163944)
(X_187  0.012745101936161518)
(X_188  0.01666666939854622)
(X_189  0.01666666939854622)
(X_190  0.11666666716337204)
(X_191  0.11666666716337204)
(X_192  0.136274516582489)
(X_193  0.13235294818878174)
(X_194  0.12843137979507446)
(X_195  0.12450980395078659)
(X_196  0.5049019455909729)
(X_197  0.49313727021217346)
(X_198  0.47745099663734436)
(X_199  0.46176472306251526)
(X_200  0.34215685725212097)
(X_201  0.3068627417087555)
(X_202  0.2598039209842682)
(X_203  0.2245098203420639)
(X_204  0.11862745881080627)
(X_205  0.0833333432674408)
(X_206  0.04411764815449715)
(X_207  0.020588237792253494)
(X_208  0.02450980618596077)
(X_209  0.028431374579668045)
(X_210  0.028431374579668045)
(X_211  0.12058823555707932)
(X_212  0.12450980395078659)
(X_213  0.12843137979507446)
(X_214  0.136274516582489)
(X_215  0.14411765336990356)
(X_216  0.15196079015731812)
(X_217  0.05588235333561897)
(X_218  0.05980392172932625)
(X_219  0.05980392172932625)
(X_220  0.07941177487373352)
(X_221  0.17549020051956177)
(X_222  0.07156863063573837)
(X_223  0.06372549384832382)
(X_224  0.43431374430656433)
(X_225  0.43431374430656433)
(X_226  0.3343137204647064)
(X_227  0.43431374430656433)
(X_228  0.3343137204647064)
(X_229  0.33039215207099915)
(X_230  0.33039215207099915)
(X_231  0.33039215207099915)
(X_232  0.39901962876319885)
(X_233  0.387254923582077)
(X_234  0.3480392396450043)
(X_235  0.29313725233078003)
(X_236  0.23039215803146362)
(X_237  0.18333333730697632)
(X_238  0.16764706373214722)
(X_239  0.16764706373214722)
(X_240  0.0676470622420311)
(X_241  0.0990196168422699)
(X_242  0.15392157435417175)
(X_243  0.2088235467672348)
(X_244  0.2598039209842682)
(X_245  0.29509803652763367)
(X_246  0.3186274468898773)
(X_247  0.32647058367729187)
(X_248  0.43039217591285706)
(X_249  0.3382352888584137)
(X_250  0.34607842564582825)
(X_251  0.45000001788139343)
(X_252  0.31666669249534607)
(X_253  0.32058826088905334)
(X_254  0.3284313976764679)
(X_255  0.33627453446388245)
(X_256  0.344117671251297)
(X_257  0.35196080803871155)
(X_258  0.3558823764324188)
(X_259  0.2598039209842682)
(X_260  0.3558823764324188)
(X_261  0.3558823764324188)
(X_262  0.35196080803871155)
(X_263  0.344117671251297)
(X_264  0.33235296607017517)
(X_265  0.3284313976764679)
(X_266  0.3284313976764679)
(X_267  0.22843138873577118)
(X_268  0.24411766231060028)
(X_269  0.2558823525905609)
(X_270  0.2754901945590973)
(X_271  0.29509803652763367)
(X_272  0.3068627417087555)
(X_273  0.3068627417087555)
(X_274  0.3029411733150482)
(X_275  0.29901960492134094)
(X_276  0.3186274468898773)
(X_277  0.3186274468898773)
(X_278  0.41862747073173523)
(X_279  0.41862747073173523)
(X_280  0.4637255072593689)
(X_281  0.4480392038822174)
(X_282  0.4166666567325592)
(X_283  0.37745097279548645)
(X_284  0.3343137204647064)
(X_285  0.3911764919757843)
(X_286  0.3598039448261261)
(X_287  0.24411766231060028)
(X_288  0.21666668355464935)
(X_289  0.3127451241016388)
(X_290  0.3088235557079315)
(X_291  0.3088235557079315)
(X_292  0.30490198731422424)
(X_293  0.29313725233078003)
(X_294  0.1774509847164154)
(X_295  0.16568627953529358)
(X_296  0.2813725471496582)
(X_297  0.29313725233078003)
(X_298  0.31666669249534607)
(X_299  0.240196093916893)
(X_300  0.2598039209842682)
(X_301  0.2754901945590973)
(X_302  0.28333333134651184)
(X_303  0.387254923582077)
(X_304  0.3794117867946625)
(X_305  0.3715686500072479)
(X_306  0.26372548937797546)
(X_307  0.25196078419685364)
(X_308  0.45196080207824707)
(X_309  0.4598039388656616)
(X_310  0.4754902124404907)
(X_311  0.4990196228027344)
(X_312  0.522549033164978)
(X_313  0.5460784435272217)
(X_314  0.5617647171020508)
(X_315  0.6696078777313232)
(X_316  0.5617647171020508)
(X_317  0.5460784435272217)
(X_318  0.522549033164978)
(X_319  0.5107843279838562)
(X_320  0.5029411911964417)
(X_321  0.5872549414634705)
(X_322  0.5637255311012268)
(X_323  0.5441176295280457)
(X_324  0.4205882251262665)
(X_325  0.5049019455909729)
(X_326  0.4735294282436371)
(X_327  0.3382352888584137)
(X_328  0.29509803652763367)
(X_329  0.2558823525905609)
(X_330  0.2245098203420639)
(X_331  0.2088235467672348)
(X_332  0.36764708161354065)
(X_333  0.3598039448261261)
(X_334  0.35196080803871155)
(X_335  0.240196093916893)
(X_336  0.23235295712947845)
(X_337  0.33235296607017517)
(X_338  0.23627452552318573)
(X_339  0.23627452552318573)
(X_340  0.3401961028575897)
(X_341  0.344117671251297)
(X_342  0.24411766231060028)
(X_343  0.24411766231060028)
(X_344  0.4264706075191498)
(X_345  0.41470590233802795)
(X_346  0.40294119715690613)
(X_347  0.3068627417087555)
(X_348  0.4264706075191498)
(X_349  0.4421568810939789)
(X_350  0.44607844948768616)
(X_351  0.34215685725212097)
(X_352  0.4049019515514374)
(X_353  0.41274508833885193)
(X_354  0.42450979351997375)
(X_355  0.44019606709480286)
(X_356  0.4598039388656616)
(X_357  0.479411780834198)
(X_358  0.4950980544090271)
(X_359  0.5029411911964417)
(X_360  0.5323529243469238)
(X_361  0.5323529243469238)
(X_362  0.5362744927406311)
(X_363  0.5362744927406311)
(X_364  0.07549020648002625)
(X_365  0.07941177487373352)
(X_366  0.08725491166114807)
(X_367  0.0990196168422699)
(X_368  0.21078431606292725)
(X_369  0.2186274528503418)
(X_370  0.22647058963775635)
(X_371  0.23039215803146362)
(X_372  0.13431373238563538)
(X_373  0.12647059559822083)
(X_374  0.11862745881080627)
(X_375  0.12254902720451355)
(X_376  0.23823529481887817)
(X_377  0.25784313678741455)
(X_378  0.27352941036224365)
(X_379  0.2813725471496582)
(X_380  0.2539215683937073)
(X_381  0.2617647051811218)
(X_382  0.17352941632270813)
(X_383  0.28921568393707275)
(X_384  0.3088235557079315)
(X_385  0.2245098203420639)
(X_386  0.23627452552318573)
(X_387  0.24411766231060028)
(X_388  0.36764708161354065)
(X_389  0.3754902184009552)
(X_390  0.3911764919757843)
(X_391  0.40294119715690613)
(X_392  0.05588235333561897)
(X_393  0.05588235333561897)
(X_394  0.1558823585510254)
(X_395  0.1558823585510254)
(X_396  0.1558823585510254)
(X_397  0.1558823585510254)
(X_398  0.1558823585510254)
(X_399  0.1558823585510254)
(X_400  0.18333333730697632)
(X_401  0.18333333730697632)
(X_402  0.17941176891326904)
(X_403  0.07156863063573837)
(X_404  0.06372549384832382)
(X_405  0.05980392172932625)
(X_406  0.16372549533843994)
(X_407  0.1715686321258545)
(X_408  0.07549020648002625)
(X_409  0.07941177487373352)
(X_410  0.08725491166114807)
(X_411  0.0990196168422699)
(X_412  0.10686275362968445)
(X_413  0.21078431606292725)
(X_414  0.21078431606292725)
(X_415  0.21470588445663452)
(X_416  0.10686275362968445)
(X_417  0.11078432202339172)
(X_418  0.21470588445663452)
(X_419  0.22254902124404907)
(X_420  0.028431374579668045)
(X_421  0.028431374579668045)
(X_422  0.12450980395078659)
(X_423  0.12450980395078659)
(X_424  0.12058823555707932)
(X_425  0.12058823555707932)
(X_426  0.020588237792253494)
(X_427  0.01666666939854622)
(X_428  0.008823529817163944)
(X_429  0.12843137979507446)
(X_430  0.14411765336990356)
(X_431  0.04803921654820442)
(X_432  0.14411765336990356)
(X_433  0.14411765336990356)
(X_434  0.15196079015731812)
(X_435  0.06372549384832382)
(X_436  0.03235294297337532)
(X_437  0.036274511367082596)
(X_438  0.04803921654820442)
(X_439  0.05588235333561897)
(X_440  0.05980392172932625)
(X_441  0.05980392172932625)
(X_442  0.05980392172932625)
(X_443  0.05588235333561897)
(X_444  0.1715686321258545)
(X_445  0.16764706373214722)
(X_446  0.15980392694473267)
(X_447  0.1558823585510254)
(X_448  0.012745101936161518)
(X_449  0.11274509876966476)
(X_450  0.11274509876966476)
(X_451  0.11274509876966476)
(X_452  0.11274509876966476)
(X_453  0.11274509876966476)
(X_454  0.11274509876966476)
(X_455  0.012745101936161518)
(X_456  0.008823529817163944)
(X_457  0.008823529817163944)
(X_458  0.008823529817163944)
(X_459  0.10882353037595749)
(X_460  0.10882353037595749)
(X_461  0.10882353037595749)
(X_462  0.10882353037595749)
(X_463  0.10882353037595749)
(X_464  0.11666666716337204)
(X_465  0.11666666716337204)
(X_466  0.01666666939854622)
(X_467  0.01666666939854622)
(X_468  0.01666666939854622)
(X_469  0.01666666939854622)
(X_470  0.01666666939854622)
(X_471  0.01666666939854622)
(X_472  0.020588237792253494)
(X_473  0.02450980618596077)
(X_474  0.028431374579668045)
(X_475  0.13235294818878174)
(X_476  0.012745101936161518)
(X_477  0.012745101936161518)
(X_478  0.012745101936161518)
(X_479  0.012745101936161518)
(X_480  0.012745101936161518)
(X_481  0.012745101936161518)
(X_482  0.012745101936161518)
(X_483  0.012745101936161518)
(X_484  0.008823529817163944)
(X_485  0.008823529817163944)
(X_486  0.008823529817163944)
(X_487  0.10882353037595749)
(X_488  0.10882353037595749)
(X_489  0.10882353037595749)
(X_490  0.10882353037595749)
(X_491  0.10882353037595749)
(X_492  0.11666666716337204)
(X_493  0.11666666716337204)
(X_494  0.01666666939854622)
(X_495  0.01666666939854622)
(X_496  0.11666666716337204)
(X_497  0.11666666716337204)
(X_498  0.11666666716337204)
(X_499  0.01666666939854622)
(X_500  0.01666666939854622)
(X_501  0.12058823555707932)
(X_502  0.020588237792253494)
(X_503  0.02450980618596077)
(X_504  0.008823529817163944)
(X_505  0.10882353037595749)
(X_506  0.10882353037595749)
(X_507  0.10882353037595749)
(X_508  0.10882353037595749)
(X_509  0.008823529817163944)
(X_510  0.008823529817163944)
(X_511  0.008823529817163944)
(X_512  0.10490196198225021)
(X_513  0.004901961423456669)
(X_514  0.004901961423456669)
(X_515  0.10490196198225021)
(X_516  0.10490196198225021)
(X_517  0.10490196198225021)
(X_518  0.10490196198225021)
(X_519  0.10490196198225021)
(X_520  0.11274509876966476)
(X_521  0.11274509876966476)
(X_522  0.11274509876966476)
(X_523  0.012745101936161518)
(X_524  0.012745101936161518)
(X_525  0.012745101936161518)
(X_526  0.012745101936161518)
(X_527  0.012745101936161518)
(X_528  0.012745101936161518)
(X_529  0.012745101936161518)
(X_530  0.012745101936161518)
(X_531  0.012745101936161518)
(X_532  0.004901961423456669)
(X_533  0.004901961423456669)
(X_534  0.004901961423456669)
(X_535  0.004901961423456669)
(X_536  0.004901961423456669)
(X_537  0.004901961423456669)
(X_538  0.004901961423456669)
(X_539  0.004901961423456669)
(X_540  0.10098039358854294)
(X_541  0.10098039358854294)
(X_542  0.10098039358854294)
(X_543  0.10098039358854294)
(X_544  0.10098039358854294)
(X_545  0.0009803927969187498)
(X_546  0.0009803927969187498)
(X_547  0.10098039358854294)
(X_548  0.008823529817163944)
(X_549  0.10882353037595749)
(X_550  0.10882353037595749)
(X_551  0.008823529817163944)
(X_552  0.008823529817163944)
(X_553  0.008823529817163944)
(X_554  0.008823529817163944)
(X_555  0.008823529817163944)
(X_556  0.10490196198225021)
(X_557  0.10490196198225021)
(X_558  0.0009803927969187498)
(X_559  0.0009803927969187498)
(X_560  0.004901961423456669)
(X_561  0.004901961423456669)
(X_562  0.004901961423456669)
(X_563  0.004901961423456669)
(X_564  0.004901961423456669)
(X_565  0.004901961423456669)
(X_566  0.004901961423456669)
(X_567  0.004901961423456669)
(X_568  0.10098039358854294)
(X_569  0.0009803927969187498)
(X_570  0.0009803927969187498)
(X_571  0.0009803927969187498)
(X_572  0.0009803927969187498)
(X_573  0.0009803927969187498)
(X_574  0.0009803927969187498)
(X_575  0.0009803927969187498)
(X_576  0.0009803927969187498)
(X_577  0.10098039358854294)
(X_578  0.0009803927969187498)
(X_579  0.0009803927969187498)
(X_580  0.0009803927969187498)
(X_581  0.0009803927969187498)
(X_582  0.0009803927969187498)
(X_583  0.0009803927969187498)
(X_584  0.0009803927969187498)
(X_585  0.09705882519483566)
(X_586  0.09705882519483566)
(X_587  0.09313725680112839)
(X_588  0.10098039358854294)
(X_589  0.10098039358854294)
(X_590  0.10098039358854294)
(X_591  0.0009803927969187498)
(X_592  0.0009803927969187498)
(X_593  0.0009803927969187498)
(X_594  0.0009803927969187498)
(X_595  0.0009803927969187498)
(X_596  -0.0029411755967885256)
(X_597  -0.0029411755967885256)
(X_598  0.09705882519483566)
(X_599  0.09705882519483566)
(X_600  0.09705882519483566)
(X_601  0.09705882519483566)
(X_602  0.09705882519483566)
(X_603  0.09705882519483566)
(X_604  0.09705882519483566)
(X_605  -0.0029411755967885256)
(X_606  -0.0029411755967885256)
(X_607  0.09705882519483566)
(X_608  0.09705882519483566)
(X_609  0.09705882519483566)
(X_610  -0.0029411755967885256)
(X_611  -0.0029411755967885256)
(X_612  -0.0029411755967885256)
(X_613  0.09313725680112839)
(X_614  0.09313725680112839)
(X_615  0.08921568840742111)
(X_616  -0.0029411755967885256)
(X_617  0.09705882519483566)
(X_618  0.09705882519483566)
(X_619  -0.0029411755967885256)
(X_620  -0.0029411755967885256)
(X_621  -0.0029411755967885256)
(X_622  -0.0029411755967885256)
(X_623  -0.0029411755967885256)
(X_624  0.09313725680112839)
(X_625  0.09313725680112839)
(X_626  0.09313725680112839)
(X_627  0.09313725680112839)
(X_628  0.09313725680112839)
(X_629  0.09313725680112839)
(X_630  0.09313725680112839)
(X_631  0.09313725680112839)
(X_632  0.09313725680112839)
(X_633  0.09313725680112839)
(X_634  0.09313725680112839)
(X_635  0.09313725680112839)
(X_636  0.09313725680112839)
(X_637  0.09313725680112839)
(X_638  0.09313725680112839)
(X_639  0.09313725680112839)
(X_640  0.09313725680112839)
(X_641  0.09313725680112839)
(X_642  -0.006862743757665157)
(X_643  -0.006862743757665157)
(X_644  0.09705882519483566)
(X_645  0.09705882519483566)
(X_646  -0.0029411755967885256)
(X_647  -0.0029411755967885256)
(X_648  -0.0029411755967885256)
(X_649  -0.0029411755967885256)
(X_650  0.09705882519483566)
(X_651  -0.0029411755967885256)
(X_652  -0.006862743757665157)
(X_653  -0.006862743757665157)
(X_654  -0.006862743757665157)
(X_655  -0.006862743757665157)
(X_656  0.09313725680112839)
(X_657  0.09313725680112839)
(X_658  0.09313725680112839)
(X_659  0.09313725680112839)
(X_660  0.09313725680112839)
(X_661  0.09313725680112839)
(X_662  -0.006862743757665157)
(X_663  -0.006862743757665157)
(X_664  -0.006862743757665157)
(X_665  -0.006862743757665157)
(X_666  -0.006862743757665157)
(X_667  -0.006862743757665157)
(X_668  -0.006862743757665157)
(X_669  -0.006862743757665157)
(X_670  -0.006862743757665157)
(X_671  0.09313725680112839)
(X_672  -0.006862743757665157)
(X_673  0.08921568840742111)
(X_674  0.08921568840742111)
(X_675  0.08529412001371384)
(X_676  0.08529412001371384)
(X_677  0.08921568840742111)
(X_678  0.08921568840742111)
(X_679  0.09313725680112839)
(X_680  0.08921568840742111)
(X_681  0.09313725680112839)
(X_682  0.09705882519483566)
(X_683  -0.0029411755967885256)
(X_684  -0.0029411755967885256)
(X_685  0.09705882519483566)
(X_686  0.09313725680112839)
(X_687  0.08921568840742111)
(X_688  0.09313725680112839)
(X_689  0.09313725680112839)
(X_690  0.09313725680112839)
(X_691  0.08921568840742111)
(X_692  0.08921568840742111)
(X_693  0.08529412001371384)
(X_694  0.08529412001371384)
(X_695  0.08529412001371384)
(X_696  0.08921568840742111)
(X_697  -0.010784312151372433)
(X_698  -0.010784312151372433)
(X_699  -0.010784312151372433)
(X_700  0.09313725680112839)
(X_701  0.08921568840742111)
(X_702  0.08921568840742111)
(X_703  0.08529412001371384)
(X_704  0.08529412001371384)
(X_705  0.08921568840742111)
(X_706  -0.010784312151372433)
(X_707  -0.006862743757665157)
(X_708  -0.014705880545079708)
(X_709  -0.010784312151372433)
(X_710  -0.006862743757665157)
(X_711  -0.006862743757665157)
(X_712  -0.006862743757665157)
(X_713  -0.006862743757665157)
(X_714  0.08921568840742111)
(X_715  0.08529412001371384)
(X_716  -0.006862743757665157)
(X_717  -0.006862743757665157)
(X_718  -0.010784312151372433)
(X_719  -0.010784312151372433)
(X_720  -0.010784312151372433)
(X_721  -0.014705880545079708)
(X_722  -0.014705880545079708)
(X_723  -0.014705880545079708)
(X_724  -0.014705880545079708)
(X_725  -0.014705880545079708)
(X_726  -0.014705880545079708)
(X_727  -0.014705880545079708)
(X_728  0.08921568840742111)
(X_729  0.08921568840742111)
(X_730  -0.014705880545079708)
(X_731  0.08529412001371384)
(X_732  0.08529412001371384)
(X_733  0.08529412001371384)
(X_734  0.08921568840742111)
(X_735  0.08921568840742111)
(X_736  -0.018627449870109558)
(X_737  -0.018627449870109558)
(X_738  -0.014705880545079708)
(X_739  -0.010784312151372433)
(X_740  -0.010784312151372433)
(X_741  -0.014705880545079708)
(X_742  -0.018627449870109558)
(X_743  -0.018627449870109558)
(X_744  -0.006862743757665157)
(X_745  -0.010784312151372433)
(X_746  -0.010784312151372433)
(X_747  -0.010784312151372433)
(X_748  -0.014705880545079708)
(X_749  0.08529412001371384)
(X_750  0.08529412001371384)
(X_751  0.08529412001371384)
(X_752  0.08137255162000656)
(X_753  0.08137255162000656)
(X_754  0.08137255162000656)
(X_755  0.08137255162000656)
(X_756  -0.010784312151372433)
(X_757  -0.010784312151372433)
(X_758  -0.014705880545079708)
(X_759  0.08137255162000656)
(X_760  0.08137255162000656)
(X_761  0.08529412001371384)
(X_762  0.08921568840742111)
(X_763  -0.010784312151372433)
(X_764  0.07352941483259201)
(X_765  0.07745098322629929)
(X_766  0.08137255162000656)
(X_767  0.08137255162000656)
(X_768  0.08137255162000656)
(X_769  0.08137255162000656)
(X_770  0.07745098322629929)
(X_771  0.07352941483259201)
(X_772  0.08921568840742111)
(X_773  -0.010784312151372433)
(X_774  -0.010784312151372433)
(X_775  -0.014705880545079708)
(X_776  -0.014705880545079708)
(X_777  -0.014705880545079708)
(X_778  0.08137255162000656)
(X_779  0.08137255162000656)
(X_780  0.07745098322629929)
(X_781  -0.022549020126461983)
(X_782  -0.022549020126461983)
(X_783  0.07745098322629929)
(Y_0 40.2518424987793)
(Y_1 -11.432905197143555)
(Y_2 12.101729393005371)
(Y_3 -41.74687576293945))