((X_0  0.19117647409439087)
(X_1  0.19117647409439087)
(X_2  0.09117648005485535)
(X_3  0.0833333432674408)
(X_4  0.07549020648002625)
(X_5  0.1715686321258545)
(X_6  0.1715686321258545)
(X_7  0.07549020648002625)
(X_8  0.1872549057006836)
(X_9  0.18333333730697632)
(X_10  0.17941176891326904)
(X_11  0.18333333730697632)
(X_12  0.1872549057006836)
(X_13  0.1872549057006836)
(X_14  0.17941176891326904)
(X_15  0.07156863063573837)
(X_16  0.07549020648002625)
(X_17  0.07941177487373352)
(X_18  0.0833333432674408)
(X_19  0.0833333432674408)
(X_20  0.18333333730697632)
(X_21  0.17941176891326904)
(X_22  0.07156863063573837)
(X_23  0.0676470622420311)
(X_24  0.1558823585510254)
(X_25  0.1558823585510254)
(X_26  0.15980392694473267)
(X_27  0.16764706373214722)
(X_28  0.15980392694473267)
(X_29  0.15980392694473267)
(X_30  0.06372549384832382)
(X_31  0.16372549533843994)
(X_32  0.0676470622420311)
(X_33  0.07156863063573837)
(X_34  0.07941177487373352)
(X_35  0.0833333432674408)
(X_36  0.07549020648002625)
(X_37  0.0676470622420311)
(X_38  0.05980392172932625)
(X_39  0.05980392172932625)
(X_40  0.07156863063573837)
(X_41  0.08725491166114807)
(X_42  0.09509804844856262)
(X_43  0.09509804844856262)
(X_44  0.1715686321258545)
(X_45  0.07549020648002625)
(X_46  0.07549020648002625)
(X_47  0.0676470622420311)
(X_48  0.06372549384832382)
(X_49  0.0676470622420311)
(X_50  0.07941177487373352)
(X_51  0.09117648005485535)
(X_52  0.17549020051956177)
(X_53  0.17549020051956177)
(X_54  0.17549020051956177)
(X_55  0.17941176891326904)
(X_56  0.14803922176361084)
(X_57  0.05980392172932625)
(X_58  0.07156863063573837)
(X_59  0.0833333432674408)
(X_60  0.0833333432674408)
(X_61  0.07549020648002625)
(X_62  0.06372549384832382)
(X_63  0.0519607849419117)
(X_64  0.0519607849419117)
(X_65  0.05980392172932625)
(X_66  0.07549020648002625)
(X_67  0.09509804844856262)
(X_68  0.0990196168422699)
(X_69  0.09117648005485535)
(X_70  0.0676470622420311)
(X_71  0.04803921654820442)
(X_72  0.0676470622420311)
(X_73  0.07549020648002625)
(X_74  0.0833333432674408)
(X_75  0.07941177487373352)
(X_76  0.1715686321258545)
(X_77  0.16764706373214722)
(X_78  0.17941176891326904)
(X_79  0.19117647409439087)
(X_80  0.18333333730697632)
(X_81  0.18333333730697632)
(X_82  0.17941176891326904)
(X_83  0.17941176891326904)
(X_84  0.21470588445663452)
(X_85  0.24215686321258545)
(X_86  0.18921568989753723)
(X_87  0.3401961028575897)
(X_88  0.3754902184009552)
(X_89  0.38333335518836975)
(X_90  0.2754901945590973)
(X_91  0.2598039209842682)
(X_92  0.3480392396450043)
(X_93  0.2088235467672348)
(X_94  0.15784314274787903)
(X_95  0.11078432202339172)
(X_96  0.17941176891326904)
(X_97  0.16764706373214722)
(X_98  0.16372549533843994)
(X_99  0.16372549533843994)
(X_100  0.16764706373214722)
(X_101  0.1715686321258545)
(X_102  0.18333333730697632)
(X_103  0.19117647409439087)
(X_104  0.19509804248809814)
(X_105  0.08725491166114807)
(X_106  0.07156863063573837)
(X_107  0.05980392172932625)
(X_108  0.1715686321258545)
(X_109  0.07156863063573837)
(X_110  0.0676470622420311)
(X_111  0.16764706373214722)
(X_112  0.2872548997402191)
(X_113  0.2872548997402191)
(X_114  0.29901960492134094)
(X_115  0.3186274468898773)
(X_116  0.34215685725212097)
(X_117  0.3499999940395355)
(X_118  0.34607842564582825)
(X_119  0.4382353127002716)
(X_120  0.3343137204647064)
(X_121  0.3225490152835846)
(X_122  0.29901960492134094)
(X_123  0.26372548937797546)
(X_124  0.21666668355464935)
(X_125  0.15784314274787903)
(X_126  0.09509804844856262)
(X_127  0.05588235333561897)
(X_128  0.17549020051956177)
(X_129  0.1558823585510254)
(X_130  0.14411765336990356)
(X_131  0.15196079015731812)
(X_132  0.1715686321258545)
(X_133  0.17941176891326904)
(X_134  0.06372549384832382)
(X_135  0.14411765336990356)
(X_136  0.05980392172932625)
(X_137  0.05980392172932625)
(X_138  0.15980392694473267)
(X_139  0.15980392694473267)
(X_140  0.44607844948768616)
(X_141  0.4107843339443207)
(X_142  0.36764708161354065)
(X_143  0.3401961028575897)
(X_144  0.23627452552318573)
(X_145  0.24411766231060028)
(X_146  0.24803923070430756)
(X_147  0.3480392396450043)
(X_148  0.24411766231060028)
(X_149  0.3637255132198334)
(X_150  0.3911764919757843)
(X_151  0.4107843339443207)
(X_152  0.40294119715690613)
(X_153  0.3598039448261261)
(X_154  0.30098041892051697)
(X_155  0.25784313678741455)
(X_156  0.114705890417099)
(X_157  0.07549020648002625)
(X_158  0.13235294818878174)
(X_159  0.12058823555707932)
(X_160  0.036274511367082596)
(X_161  0.05588235333561897)
(X_162  0.06372549384832382)
(X_163  0.1558823585510254)
(X_164  0.05588235333561897)
(X_165  0.05980392172932625)
(X_166  0.15980392694473267)
(X_167  0.16372549533843994)
(X_168  0.26764705777168274)
(X_169  0.344117671251297)
(X_170  0.31666669249534607)
(X_171  0.31666669249534607)
(X_172  0.33627453446388245)
(X_173  0.3598039448261261)
(X_174  0.27156862616539)
(X_175  0.3715686500072479)
(X_176  0.344117671251297)
(X_177  0.3127451241016388)
(X_178  0.2774509787559509)
(X_179  0.2617647051811218)
(X_180  0.2852941155433655)
(X_181  0.33627453446388245)
(X_182  0.387254923582077)
(X_183  0.41862747073173523)
(X_184  0.29313725233078003)
(X_185  0.2696078419685364)
(X_186  0.2343137264251709)
(X_187  0.19509804248809814)
(X_188  0.0676470622420311)
(X_189  0.05980392172932625)
(X_190  0.05980392172932625)
(X_191  0.16372549533843994)
(X_192  0.1558823585510254)
(X_193  0.15980392694473267)
(X_194  0.15980392694473267)
(X_195  0.16372549533843994)
(X_196  0.28333333134651184)
(X_197  0.3715686500072479)
(X_198  0.3598039448261261)
(X_199  0.3598039448261261)
(X_200  0.3558823764324188)
(X_201  0.33235296607017517)
(X_202  0.28921568393707275)
(X_203  0.2539215683937073)
(X_204  0.18921568989753723)
(X_205  0.29313725233078003)
(X_206  0.30490198731422424)
(X_207  0.31666669249534607)
(X_208  0.22843138873577118)
(X_209  0.22058825194835663)
(X_210  0.20490197837352753)
(X_211  0.1931372582912445)
(X_212  0.3598039448261261)
(X_213  0.3715686500072479)
(X_214  0.3637255132198334)
(X_215  0.31666669249534607)
(X_216  0.24215686321258545)
(X_217  0.17941176891326904)
(X_218  0.1558823585510254)
(X_219  0.15196079015731812)
(X_220  0.15196079015731812)
(X_221  0.0519607849419117)
(X_222  0.0519607849419117)
(X_223  0.1558823585510254)
(X_224  0.23235295712947845)
(X_225  0.24411766231060028)
(X_226  0.24411766231060028)
(X_227  0.3245098292827606)
(X_228  0.1931372582912445)
(X_229  0.18137255311012268)
(X_230  0.19705882668495178)
(X_231  0.22058825194835663)
(X_232  0.2696078419685364)
(X_233  0.2813725471496582)
(X_234  0.1931372582912445)
(X_235  0.21274511516094208)
(X_236  0.2598039209842682)
(X_237  0.29901960492134094)
(X_238  0.3029411733150482)
(X_239  0.28333333134651184)
(X_240  0.22058825194835663)
(X_241  0.3284313976764679)
(X_242  0.3284313976764679)
(X_243  0.36764708161354065)
(X_244  0.4225490391254425)
(X_245  0.38333335518836975)
(X_246  0.30490198731422424)
(X_247  0.18137255311012268)
(X_248  0.114705890417099)
(X_249  0.10686275362968445)
(X_250  0.09117648005485535)
(X_251  0.07941177487373352)
(X_252  0.27941176295280457)
(X_253  0.27941176295280457)
(X_254  0.26764705777168274)
(X_255  0.24411766231060028)
(X_256  0.32058826088905334)
(X_257  0.3127451241016388)
(X_258  0.3284313976764679)
(X_259  0.3480392396450043)
(X_260  0.27941176295280457)
(X_261  0.29509803652763367)
(X_262  0.41862747073173523)
(X_263  0.44607844948768616)
(X_264  0.3892156779766083)
(X_265  0.42450979351997375)
(X_266  0.4205882251262665)
(X_267  0.3970588147640228)
(X_268  0.34607842564582825)
(X_269  0.3578431308269501)
(X_270  0.39901962876319885)
(X_271  0.3401961028575897)
(X_272  0.3637255132198334)
(X_273  0.3911764919757843)
(X_274  0.3950980603694916)
(X_275  0.3029411733150482)
(X_276  0.3186274468898773)
(X_277  0.3186274468898773)
(X_278  0.31470587849617004)
(X_279  0.31470587849617004)
(X_280  0.3068627417087555)
(X_281  0.3911764919757843)
(X_282  0.26372548937797546)
(X_283  0.240196093916893)
(X_284  0.22843138873577118)
(X_285  0.33235296607017517)
(X_286  0.3480392396450043)
(X_287  0.3598039448261261)
(X_288  0.34215685725212097)
(X_289  0.3539215624332428)
(X_290  0.46176472306251526)
(X_291  0.48137256503105164)
(X_292  0.5245097875595093)
(X_293  0.4754902124404907)
(X_294  0.4950980544090271)
(X_295  0.48725491762161255)
(X_296  0.47745099663734436)
(X_297  0.5284313559532166)
(X_298  0.48137256503105164)
(X_299  0.38333335518836975)
(X_300  0.3715686500072479)
(X_301  0.4068627655506134)
(X_302  0.41470590233802795)
(X_303  0.3186274468898773)
(X_304  0.3343137204647064)
(X_305  0.4382353127002716)
(X_306  0.34607842564582825)
(X_307  0.3539215624332428)
(X_308  0.4068627655506134)
(X_309  0.3794117867946625)
(X_310  0.24411766231060028)
(X_311  0.2245098203420639)
(X_312  0.22843138873577118)
(X_313  0.24411766231060028)
(X_314  0.2598039209842682)
(X_315  0.26764705777168274)
(X_316  0.3029411733150482)
(X_317  0.3911764919757843)
(X_318  0.3715686500072479)
(X_319  0.36764708161354065)
(X_320  0.40294119715690613)
(X_321  0.3735294044017792)
(X_322  0.42450979351997375)
(X_323  0.44411763548851013)
(X_324  0.37745097279548645)
(X_325  0.42450979351997375)
(X_326  0.49313727021217346)
(X_327  0.43039217591285706)
(X_328  0.4225490391254425)
(X_329  0.41862747073173523)
(X_330  0.4107843339443207)
(X_331  0.32647058367729187)
(X_332  0.31078431010246277)
(X_333  0.41470590233802795)
(X_334  0.3186274468898773)
(X_335  0.3186274468898773)
(X_336  0.27941176295280457)
(X_337  0.35196080803871155)
(X_338  0.31666669249534607)
(X_339  0.3088235557079315)
(X_340  0.32058826088905334)
(X_341  0.344117671251297)
(X_342  0.2598039209842682)
(X_343  0.26372548937797546)
(X_344  0.33627453446388245)
(X_345  0.2245098203420639)
(X_346  0.19705882668495178)
(X_347  0.1774509847164154)
(X_348  0.19705882668495178)
(X_349  0.24803923070430756)
(X_350  0.2872548997402191)
(X_351  0.40294119715690613)
(X_352  0.5166666507720947)
(X_353  0.48137256503105164)
(X_354  0.41862747073173523)
(X_355  0.40294119715690613)
(X_356  0.43039217591285706)
(X_357  0.43431374430656433)
(X_358  0.46568629145622253)
(X_359  0.5401960611343384)
(X_360  0.595098078250885)
(X_361  0.5911765098571777)
(X_362  0.479411780834198)
(X_363  0.47156864404678345)
(X_364  0.20490197837352753)
(X_365  0.18529412150382996)
(X_366  0.1617647111415863)
(X_367  0.25784313678741455)
(X_368  0.27352941036224365)
(X_369  0.28921568393707275)
(X_370  0.2970588207244873)
(X_371  0.19705882668495178)
(X_372  0.18921568989753723)
(X_373  0.20098040997982025)
(X_374  0.19705882668495178)
(X_375  0.18529412150382996)
(X_376  0.1774509847164154)
(X_377  0.18529412150382996)
(X_378  0.18137255311012268)
(X_379  0.16568627953529358)
(X_380  0.41470590233802795)
(X_381  0.3598039448261261)
(X_382  0.31666669249534607)
(X_383  0.2558823525905609)
(X_384  0.3225490152835846)
(X_385  0.32647058367729187)
(X_386  0.3539215624332428)
(X_387  0.5401960611343384)
(X_388  0.46176472306251526)
(X_389  0.45000001788139343)
(X_390  0.43431374430656433)
(X_391  0.3225490152835846)
(X_392  0.22647058963775635)
(X_393  0.2186274528503418)
(X_394  0.21078431606292725)
(X_395  0.20686274766921997)
(X_396  0.21078431606292725)
(X_397  0.21470588445663452)
(X_398  0.21470588445663452)
(X_399  0.21078431606292725)
(X_400  0.12647059559822083)
(X_401  0.15392157435417175)
(X_402  0.16960784792900085)
(X_403  0.2656862735748291)
(X_404  0.2539215683937073)
(X_405  0.23823529481887817)
(X_406  0.114705890417099)
(X_407  0.1872549057006836)
(X_408  0.12254902720451355)
(X_409  0.1303921639919281)
(X_410  0.23823529481887817)
(X_411  0.2970588207244873)
(X_412  0.36764708161354065)
(X_413  0.3637255132198334)
(X_414  0.3480392396450043)
(X_415  0.38333335518836975)
(X_416  0.32058826088905334)
(X_417  0.31666669249534607)
(X_418  0.20490197837352753)
(X_419  0.19705882668495178)
(X_420  0.09509804844856262)
(X_421  0.0990196168422699)
(X_422  0.0990196168422699)
(X_423  0.09509804844856262)
(X_424  0.08725491166114807)
(X_425  0.07941177487373352)
(X_426  0.07156863063573837)
(X_427  0.1715686321258545)
(X_428  0.15980392694473267)
(X_429  0.0833333432674408)
(X_430  0.0990196168422699)
(X_431  0.09509804844856262)
(X_432  0.09117648005485535)
(X_433  0.1872549057006836)
(X_434  0.07549020648002625)
(X_435  0.05588235333561897)
(X_436  0.136274516582489)
(X_437  0.1872549057006836)
(X_438  0.19901961088180542)
(X_439  0.21470588445663452)
(X_440  0.2696078419685364)
(X_441  0.2852941155433655)
(X_442  0.16960784792900085)
(X_443  0.17352941632270813)
(X_444  0.13431373238563538)
(X_445  0.13823530077934265)
(X_446  0.13823530077934265)
(X_447  0.2343137264251709)
(X_448  0.16764706373214722)
(X_449  0.07156863063573837)
(X_450  0.1715686321258545)
(X_451  0.1715686321258545)
(X_452  0.16764706373214722)
(X_453  0.15980392694473267)
(X_454  0.14803922176361084)
(X_455  0.14411765336990356)
(X_456  0.15196079015731812)
(X_457  0.15196079015731812)
(X_458  0.15196079015731812)
(X_459  0.0519607849419117)
(X_460  0.0519607849419117)
(X_461  0.0519607849419117)
(X_462  0.0519607849419117)
(X_463  0.0519607849419117)
(X_464  0.03235294297337532)
(X_465  0.0519607849419117)
(X_466  0.17941176891326904)
(X_467  0.20686274766921997)
(X_468  0.2186274528503418)
(X_469  0.21470588445663452)
(X_470  0.2029411792755127)
(X_471  0.19117647409439087)
(X_472  0.19901961088180542)
(X_473  0.19901961088180542)
(X_474  0.19901961088180542)
(X_475  0.19901961088180542)
(X_476  0.03235294297337532)
(X_477  0.036274511367082596)
(X_478  0.14411765336990356)
(X_479  0.14803922176361084)
(X_480  0.04803921654820442)
(X_481  0.04803921654820442)
(X_482  0.04411764815449715)
(X_483  0.14411765336990356)
(X_484  0.14411765336990356)
(X_485  0.14411765336990356)
(X_486  0.04411764815449715)
(X_487  0.04411764815449715)
(X_488  0.04411764815449715)
(X_489  0.04411764815449715)
(X_490  0.04411764815449715)
(X_491  0.04411764815449715)
(X_492  0.02450980618596077)
(X_493  0.03235294297337532)
(X_494  0.14803922176361084)
(X_495  0.16372549533843994)
(X_496  0.1715686321258545)
(X_497  0.17941176891326904)
(X_498  0.17549020051956177)
(X_499  0.07549020648002625)
(X_500  0.15980392694473267)
(X_501  0.05980392172932625)
(X_502  0.05980392172932625)
(X_503  0.05980392172932625)
(X_504  0.01666666939854622)
(X_505  0.01666666939854622)
(X_506  0.02450980618596077)
(X_507  0.028431374579668045)
(X_508  0.03235294297337532)
(X_509  0.036274511367082596)
(X_510  0.03235294297337532)
(X_511  0.13235294818878174)
(X_512  0.028431374579668045)
(X_513  0.028431374579668045)
(X_514  0.028431374579668045)
(X_515  0.028431374579668045)
(X_516  0.028431374579668045)
(X_517  0.028431374579668045)
(X_518  0.028431374579668045)
(X_519  0.028431374579668045)
(X_520  0.03235294297337532)
(X_521  0.03235294297337532)
(X_522  0.03235294297337532)
(X_523  0.036274511367082596)
(X_524  0.04803921654820442)
(X_525  0.15980392694473267)
(X_526  0.16764706373214722)
(X_527  0.17549020051956177)
(X_528  0.04803921654820442)
(X_529  0.04803921654820442)
(X_530  0.04803921654820442)
(X_531  0.04803921654820442)
(X_532  0.12450980395078659)
(X_533  0.12450980395078659)
(X_534  0.12450980395078659)
(X_535  0.12450980395078659)
(X_536  0.12450980395078659)
(X_537  0.020588237792253494)
(X_538  0.01666666939854622)
(X_539  0.11666666716337204)
(X_540  0.020588237792253494)
(X_541  0.020588237792253494)
(X_542  0.12058823555707932)
(X_543  0.020588237792253494)
(X_544  0.020588237792253494)
(X_545  0.020588237792253494)
(X_546  0.020588237792253494)
(X_547  0.020588237792253494)
(X_548  0.12843137979507446)
(X_549  0.12843137979507446)
(X_550  0.12450980395078659)
(X_551  0.12843137979507446)
(X_552  0.13235294818878174)
(X_553  0.14411765336990356)
(X_554  0.1558823585510254)
(X_555  0.05980392172932625)
(X_556  0.14803922176361084)
(X_557  0.04803921654820442)
(X_558  0.04803921654820442)
(X_559  0.14803922176361084)
(X_560  0.12450980395078659)
(X_561  0.020588237792253494)
(X_562  0.020588237792253494)
(X_563  0.01666666939854622)
(X_564  0.012745101936161518)
(X_565  0.11274509876966476)
(X_566  0.012745101936161518)
(X_567  0.012745101936161518)
(X_568  0.12058823555707932)
(X_569  0.12058823555707932)
(X_570  0.12058823555707932)
(X_571  0.12058823555707932)
(X_572  0.020588237792253494)
(X_573  0.020588237792253494)
(X_574  0.020588237792253494)
(X_575  0.020588237792253494)
(X_576  0.008823529817163944)
(X_577  0.008823529817163944)
(X_578  0.11274509876966476)
(X_579  0.11666666716337204)
(X_580  0.12058823555707932)
(X_581  0.12058823555707932)
(X_582  0.12450980395078659)
(X_583  0.12450980395078659)
(X_584  0.12450980395078659)
(X_585  0.02450980618596077)
(X_586  0.02450980618596077)
(X_587  0.02450980618596077)
(X_588  0.10882353037595749)
(X_589  0.008823529817163944)
(X_590  0.10490196198225021)
(X_591  0.004901961423456669)
(X_592  0.004901961423456669)
(X_593  0.008823529817163944)
(X_594  0.11274509876966476)
(X_595  0.11666666716337204)
(X_596  0.11666666716337204)
(X_597  0.11666666716337204)
(X_598  0.11666666716337204)
(X_599  0.11666666716337204)
(X_600  0.01666666939854622)
(X_601  0.01666666939854622)
(X_602  0.01666666939854622)
(X_603  0.01666666939854622)
(X_604  0.008823529817163944)
(X_605  0.11274509876966476)
(X_606  0.11666666716337204)
(X_607  0.12450980395078659)
(X_608  0.12450980395078659)
(X_609  0.12058823555707932)
(X_610  0.11666666716337204)
(X_611  0.11274509876966476)
(X_612  0.012745101936161518)
(X_613  0.012745101936161518)
(X_614  0.012745101936161518)
(X_615  0.11274509876966476)
(X_616  0.12450980395078659)
(X_617  0.020588237792253494)
(X_618  0.01666666939854622)
(X_619  0.012745101936161518)
(X_620  0.008823529817163944)
(X_621  0.11274509876966476)
(X_622  0.11274509876966476)
(X_623  0.11666666716337204)
(X_624  0.10882353037595749)
(X_625  0.10882353037595749)
(X_626  0.10882353037595749)
(X_627  0.10882353037595749)
(X_628  0.008823529817163944)
(X_629  0.008823529817163944)
(X_630  0.008823529817163944)
(X_631  0.10882353037595749)
(X_632  0.12058823555707932)
(X_633  0.12058823555707932)
(X_634  0.02450980618596077)
(X_635  0.02450980618596077)
(X_636  0.02450980618596077)
(X_637  0.12058823555707932)
(X_638  0.11666666716337204)
(X_639  0.11666666716337204)
(X_640  0.11666666716337204)
(X_641  0.11666666716337204)
(X_642  0.11666666716337204)
(X_643  0.11666666716337204)
(X_644  0.05980392172932625)
(X_645  0.0519607849419117)
(X_646  0.1401960849761963)
(X_647  0.12843137979507446)
(X_648  0.12058823555707932)
(X_649  0.11274509876966476)
(X_650  0.11274509876966476)
(X_651  0.11274509876966476)
(X_652  0.10490196198225021)
(X_653  0.10490196198225021)
(X_654  0.004901961423456669)
(X_655  0.004901961423456669)
(X_656  0.004901961423456669)
(X_657  0.004901961423456669)
(X_658  0.004901961423456669)
(X_659  0.004901961423456669)
(X_660  0.11274509876966476)
(X_661  0.10882353037595749)
(X_662  0.10490196198225021)
(X_663  0.10098039358854294)
(X_664  -0.0029411755967885256)
(X_665  0.0009803927969187498)
(X_666  0.0009803927969187498)
(X_667  0.004901961423456669)
(X_668  0.008823529817163944)
(X_669  0.008823529817163944)
(X_670  0.008823529817163944)
(X_671  0.008823529817163944)
(X_672  0.865686297416687)
(X_673  0.7539215683937073)
(X_674  0.7303921580314636)
(X_675  0.7029411792755127)
(X_676  0.6715686321258545)
(X_677  0.7401961088180542)
(X_678  0.7166666984558105)
(X_679  0.7049019932746887)
(X_680  0.6343137621879578)
(X_681  0.6186274886131287)
(X_682  0.5872549414634705)
(X_683  0.5441176295280457)
(X_684  0.5009803771972656)
(X_685  0.46176472306251526)
(X_686  0.33039215207099915)
(X_687  0.31078431010246277)
(X_688  0.3911764919757843)
(X_689  0.3794117867946625)
(X_690  0.2558823525905609)
(X_691  0.2245098203420639)
(X_692  0.28921568393707275)
(X_693  0.25784313678741455)
(X_694  0.13431373238563538)
(X_695  0.22254902124404907)
(X_696  0.11078432202339172)
(X_697  0.19901961088180542)
(X_698  0.17941176891326904)
(X_699  0.05980392172932625)
(X_700  1.0499999523162842)
(X_701  0.949999988079071)
(X_702  0.949999988079071)
(X_703  0.949999988079071)
(X_704  0.9460784196853638)
(X_705  0.9421568512916565)
(X_706  0.9421568512916565)
(X_707  0.9421568512916565)
(X_708  0.949999988079071)
(X_709  0.949999988079071)
(X_710  0.949999988079071)
(X_711  1.0499999523162842)
(X_712  1.0499999523162842)
(X_713  1.0460784435272217)
(X_714  0.9421568512916565)
(X_715  0.9421568512916565)
(X_716  1.018627405166626)
(X_717  0.9147058725357056)
(X_718  0.9029411673545837)
(X_719  0.8872548937797546)
(X_720  0.8754901885986328)
(X_721  0.8598039150238037)
(X_722  0.8519607782363892)
(X_723  0.9441176652908325)
(X_724  0.8931372761726379)
(X_725  0.8813725709915161)
(X_726  0.8696078658103943)
(X_727  0.8539215922355652)
(X_728  1.0421568155288696)
(X_729  1.0460784435272217)
(X_730  1.0460784435272217)
(X_731  1.0499999523162842)
(X_732  1.0499999523162842)
(X_733  1.0499999523162842)
(X_734  1.0499999523162842)
(X_735  1.0499999523162842)
(X_736  1.0264705419540405)
(X_737  1.0303921699523926)
(X_738  1.034313678741455)
(X_739  0.9421568512916565)
(X_740  1.0499999523162842)
(X_741  0.949999988079071)
(X_742  0.949999988079071)
(X_743  0.949999988079071)
(X_744  0.949999988079071)
(X_745  0.949999988079071)
(X_746  1.0499999523162842)
(X_747  0.949999988079071)
(X_748  1.0499999523162842)
(X_749  1.0499999523162842)
(X_750  1.0499999523162842)
(X_751  1.0499999523162842)
(X_752  1.0499999523162842)
(X_753  1.0499999523162842)
(X_754  1.0499999523162842)
(X_755  1.0499999523162842)
(X_756  1.0499999523162842)
(X_757  0.949999988079071)
(X_758  0.949999988079071)
(X_759  1.0499999523162842)
(X_760  0.949999988079071)
(X_761  1.0499999523162842)
(X_762  1.0499999523162842)
(X_763  1.0499999523162842)
(X_764  1.0499999523162842)
(X_765  1.0499999523162842)
(X_766  0.949999988079071)
(X_767  0.9460784196853638)
(X_768  0.9421568512916565)
(X_769  0.9421568512916565)
(X_770  0.9382352828979492)
(X_771  0.9382352828979492)
(X_772  0.9460784196853638)
(X_773  0.9460784196853638)
(X_774  0.9460784196853638)
(X_775  0.9421568512916565)
(X_776  0.9421568512916565)
(X_777  0.9421568512916565)
(X_778  0.9421568512916565)
(X_779  0.9421568512916565)
(X_780  0.949999988079071)
(X_781  0.949999988079071)
(X_782  0.949999988079071)
(X_783  0.949999988079071)
(Y_0 -19.289031982421875)
(Y_1 35.48737716674805)
(Y_2 -15.476349830627441)
(Y_3 3.620896816253662))