((X_0  1.0421568155288696)
(X_1  0.949999988079071)
(X_2  0.949999988079071)
(X_3  0.9460784196853638)
(X_4  0.9303921461105347)
(X_5  1.0264705419540405)
(X_6  1.0382353067398071)
(X_7  0.949999988079071)
(X_8  1.0499999523162842)
(X_9  1.0499999523162842)
(X_10  1.0460784435272217)
(X_11  1.0499999523162842)
(X_12  1.0499999523162842)
(X_13  1.0499999523162842)
(X_14  1.0499999523162842)
(X_15  0.9421568512916565)
(X_16  0.949999988079071)
(X_17  0.949999988079071)
(X_18  0.949999988079071)
(X_19  0.949999988079071)
(X_20  1.0499999523162842)
(X_21  1.0499999523162842)
(X_22  1.0421568155288696)
(X_23  0.9382352828979492)
(X_24  1.0382353067398071)
(X_25  1.0382353067398071)
(X_26  0.9421568512916565)
(X_27  1.0460784435272217)
(X_28  1.0499999523162842)
(X_29  1.0499999523162842)
(X_30  0.949999988079071)
(X_31  0.949999988079071)
(X_32  0.949999988079071)
(X_33  0.949999988079071)
(X_34  0.949999988079071)
(X_35  1.0499999523162842)
(X_36  0.949999988079071)
(X_37  0.9421568512916565)
(X_38  0.9382352828979492)
(X_39  0.9421568512916565)
(X_40  0.9460784196853638)
(X_41  1.0460784435272217)
(X_42  1.034313678741455)
(X_43  0.9264705777168274)
(X_44  1.0499999523162842)
(X_45  1.0499999523162842)
(X_46  0.9460784196853638)
(X_47  0.9460784196853638)
(X_48  0.949999988079071)
(X_49  0.949999988079071)
(X_50  0.949999988079071)
(X_51  0.9421568512916565)
(X_52  1.0499999523162842)
(X_53  1.0499999523162842)
(X_54  0.949999988079071)
(X_55  1.0499999523162842)
(X_56  0.9421568512916565)
(X_57  0.9382352828979492)
(X_58  0.9382352828979492)
(X_59  0.9460784196853638)
(X_60  0.949999988079071)
(X_61  0.949999988079071)
(X_62  0.949999988079071)
(X_63  0.9421568512916565)
(X_64  0.9460784196853638)
(X_65  0.9460784196853638)
(X_66  0.9460784196853638)
(X_67  0.949999988079071)
(X_68  1.0499999523162842)
(X_69  1.0499999523162842)
(X_70  0.949999988079071)
(X_71  0.949999988079071)
(X_72  0.949999988079071)
(X_73  0.9460784196853638)
(X_74  0.9343137145042419)
(X_75  0.9264705777168274)
(X_76  1.022549033164978)
(X_77  1.018627405166626)
(X_78  1.006862759590149)
(X_79  0.9950980544090271)
(X_80  0.9127451181411743)
(X_81  0.9009804129600525)
(X_82  0.8774510025978088)
(X_83  0.8578431606292725)
(X_84  1.0499999523162842)
(X_85  1.0382353067398071)
(X_86  1.0303921699523926)
(X_87  1.0303921699523926)
(X_88  1.0382353067398071)
(X_89  0.9343137145042419)
(X_90  0.9186274409294128)
(X_91  0.9029411673545837)
(X_92  0.9715686440467834)
(X_93  0.8519607782363892)
(X_94  0.8127450942993164)
(X_95  0.7617647051811218)
(X_96  0.8068627715110779)
(X_97  0.751960813999176)
(X_98  0.7049019932746887)
(X_99  0.6813725829124451)
(X_100  0.6303921937942505)
(X_101  0.6029412150382996)
(X_102  0.551960825920105)
(X_103  0.3970588147640228)
(X_104  0.3382352888584137)
(X_105  0.28333333134651184)
(X_106  0.23235295712947845)
(X_107  0.20490197837352753)
(X_108  0.17352941632270813)
(X_109  0.1617647111415863)
(X_110  0.14215686917304993)
(X_111  0.22647058963775635)
(X_112  0.6852941513061523)
(X_113  0.6500000357627869)
(X_114  0.5990196466445923)
(X_115  0.44411763548851013)
(X_116  0.39313724637031555)
(X_117  0.3343137204647064)
(X_118  0.27941176295280457)
(X_119  0.240196093916893)
(X_120  0.15392157435417175)
(X_121  0.15392157435417175)
(X_122  0.15000000596046448)
(X_123  0.14215686917304993)
(X_124  0.22647058963775635)
(X_125  0.21470588445663452)
(X_126  0.20686274766921997)
(X_127  0.0990196168422699)
(X_128  0.16764706373214722)
(X_129  0.16372549533843994)
(X_130  0.16372549533843994)
(X_131  0.1715686321258545)
(X_132  0.1872549057006836)
(X_133  0.19509804248809814)
(X_134  0.09509804844856262)
(X_135  0.19509804248809814)
(X_136  0.1872549057006836)
(X_137  0.18333333730697632)
(X_138  0.17941176891326904)
(X_139  0.17549020051956177)
(X_140  0.16372549533843994)
(X_141  0.1558823585510254)
(X_142  0.1558823585510254)
(X_143  0.15980392694473267)
(X_144  0.1715686321258545)
(X_145  0.0833333432674408)
(X_146  0.08725491166114807)
(X_147  0.1872549057006836)
(X_148  0.19901961088180542)
(X_149  0.2029411792755127)
(X_150  0.10294118523597717)
(X_151  0.09509804844856262)
(X_152  0.18333333730697632)
(X_153  0.1715686321258545)
(X_154  0.16764706373214722)
(X_155  0.16764706373214722)
(X_156  0.114705890417099)
(X_157  0.10686275362968445)
(X_158  0.19509804248809814)
(X_159  0.19117647409439087)
(X_160  0.1872549057006836)
(X_161  0.18333333730697632)
(X_162  0.07156863063573837)
(X_163  0.16372549533843994)
(X_164  0.16764706373214722)
(X_165  0.0676470622420311)
(X_166  0.07156863063573837)
(X_167  0.17549020051956177)
(X_168  0.114705890417099)
(X_169  0.21078431606292725)
(X_170  0.0990196168422699)
(X_171  0.1872549057006836)
(X_172  0.17941176891326904)
(X_173  0.07941177487373352)
(X_174  0.09117648005485535)
(X_175  0.0990196168422699)
(X_176  0.04803921654820442)
(X_177  0.06372549384832382)
(X_178  0.07549020648002625)
(X_179  0.07941177487373352)
(X_180  0.17941176891326904)
(X_181  0.17941176891326904)
(X_182  0.09117648005485535)
(X_183  0.0990196168422699)
(X_184  0.17549020051956177)
(X_185  0.1715686321258545)
(X_186  0.1715686321258545)
(X_187  0.17549020051956177)
(X_188  0.18333333730697632)
(X_189  0.19117647409439087)
(X_190  0.1872549057006836)
(X_191  0.18333333730697632)
(X_192  0.17941176891326904)
(X_193  0.17549020051956177)
(X_194  0.16764706373214722)
(X_195  0.16372549533843994)
(X_196  0.0676470622420311)
(X_197  0.18333333730697632)
(X_198  0.19901961088180542)
(X_199  0.11078432202339172)
(X_200  0.12647059559822083)
(X_201  0.15784314274787903)
(X_202  0.20098040997982025)
(X_203  0.23235295712947845)
(X_204  0.3225490152835846)
(X_205  0.31470587849617004)
(X_206  0.2911764681339264)
(X_207  0.24411766231060028)
(X_208  0.18529412150382996)
(X_209  0.13431373238563538)
(X_210  0.10686275362968445)
(X_211  0.09509804844856262)
(X_212  0.19117647409439087)
(X_213  0.1872549057006836)
(X_214  0.17941176891326904)
(X_215  0.17941176891326904)
(X_216  0.18333333730697632)
(X_217  0.17941176891326904)
(X_218  0.17549020051956177)
(X_219  0.16764706373214722)
(X_220  0.2029411792755127)
(X_221  0.09117648005485535)
(X_222  0.07549020648002625)
(X_223  0.1558823585510254)
(X_224  0.16960784792900085)
(X_225  0.21274511516094208)
(X_226  0.387254923582077)
(X_227  0.4696078598499298)
(X_228  0.44019606709480286)
(X_229  0.48725491762161255)
(X_230  0.5068627595901489)
(X_231  0.5147058963775635)
(X_232  0.5401960611343384)
(X_233  0.5598039627075195)
(X_234  0.5480391979217529)
(X_235  0.3970588147640228)
(X_236  0.36176469922065735)
(X_237  0.34607842564582825)
(X_238  0.3950980603694916)
(X_239  0.23235295712947845)
(X_240  0.10686275362968445)
(X_241  0.19117647409439087)
(X_242  0.17941176891326904)
(X_243  0.17941176891326904)
(X_244  0.19117647409439087)
(X_245  0.19901961088180542)
(X_246  0.19901961088180542)
(X_247  0.19509804248809814)
(X_248  0.15000000596046448)
(X_249  0.1460784375667572)
(X_250  0.1460784375667572)
(X_251  0.2539215683937073)
(X_252  0.4637255072593689)
(X_253  0.45588237047195435)
(X_254  0.4598039388656616)
(X_255  0.5833333730697632)
(X_256  0.5990196466445923)
(X_257  0.5754902362823486)
(X_258  0.5166666507720947)
(X_259  0.46568629145622253)
(X_260  0.34607842564582825)
(X_261  0.37745097279548645)
(X_262  0.48137256503105164)
(X_263  0.4421568810939789)
(X_264  0.4225490391254425)
(X_265  0.43431374430656433)
(X_266  0.43039217591285706)
(X_267  0.3068627417087555)
(X_268  0.31078431010246277)
(X_269  0.3911764919757843)
(X_270  0.36764708161354065)
(X_271  0.26764705777168274)
(X_272  0.29509803652763367)
(X_273  0.3382352888584137)
(X_274  0.47745099663734436)
(X_275  0.49705883860588074)
(X_276  0.3656862676143646)
(X_277  0.3539215624332428)
(X_278  0.3382352888584137)
(X_279  0.32647058367729187)
(X_280  0.5401960611343384)
(X_281  0.5088235139846802)
(X_282  0.36176469922065735)
(X_283  0.3186274468898773)
(X_284  0.2911764681339264)
(X_285  0.3794117867946625)
(X_286  0.3754902184009552)
(X_287  0.3754902184009552)
(X_288  0.33039215207099915)
(X_289  0.3578431308269501)
(X_290  0.34215685725212097)
(X_291  0.3754902184009552)
(X_292  0.31666669249534607)
(X_293  0.2088235467672348)
(X_294  0.22058825194835663)
(X_295  0.2245098203420639)
(X_296  0.3754902184009552)
(X_297  0.3029411733150482)
(X_298  0.3499999940395355)
(X_299  0.39313724637031555)
(X_300  0.5127450823783875)
(X_301  0.49705883860588074)
(X_302  0.46176472306251526)
(X_303  0.3343137204647064)
(X_304  0.33039215207099915)
(X_305  0.31078431010246277)
(X_306  0.2872548997402191)
(X_307  0.2598039209842682)
(X_308  0.3088235557079315)
(X_309  0.33235296607017517)
(X_310  0.33235296607017517)
(X_311  0.18529412150382996)
(X_312  0.1303921639919281)
(X_313  0.13823530077934265)
(X_314  0.22058825194835663)
(X_315  0.3029411733150482)
(X_316  0.27156862616539)
(X_317  0.3068627417087555)
(X_318  0.40294119715690613)
(X_319  0.3401961028575897)
(X_320  0.17352941632270813)
(X_321  0.15784314274787903)
(X_322  0.18921568989753723)
(X_323  0.21274511516094208)
(X_324  0.26372548937797546)
(X_325  0.26764705777168274)
(X_326  0.27156862616539)
(X_327  0.3794117867946625)
(X_328  0.387254923582077)
(X_329  0.387254923582077)
(X_330  0.28333333134651184)
(X_331  0.38333335518836975)
(X_332  0.28333333134651184)
(X_333  0.2754901945590973)
(X_334  0.2558823525905609)
(X_335  0.23627452552318573)
(X_336  0.114705890417099)
(X_337  0.2852941155433655)
(X_338  0.35196080803871155)
(X_339  0.35196080803871155)
(X_340  0.30490198731422424)
(X_341  0.28921568393707275)
(X_342  0.23235295712947845)
(X_343  0.28333333134651184)
(X_344  0.41862747073173523)
(X_345  0.45000001788139343)
(X_346  0.3539215624332428)
(X_347  0.29509803652763367)
(X_348  0.22058825194835663)
(X_349  0.18921568989753723)
(X_350  0.20490197837352753)
(X_351  0.3284313976764679)
(X_352  0.2696078419685364)
(X_353  0.28921568393707275)
(X_354  0.3245098292827606)
(X_355  0.3754902184009552)
(X_356  0.4264706075191498)
(X_357  0.48137256503105164)
(X_358  0.5284313559532166)
(X_359  0.5558823943138123)
(X_360  0.3343137204647064)
(X_361  0.34215685725212097)
(X_362  0.34607842564582825)
(X_363  0.34215685725212097)
(X_364  0.22058825194835663)
(X_365  0.24803923070430756)
(X_366  0.28333333134651184)
(X_367  0.4107843339443207)
(X_368  0.43039217591285706)
(X_369  0.4421568810939789)
(X_370  0.3499999940395355)
(X_371  0.3578431308269501)
(X_372  0.385294109582901)
(X_373  0.4049019515514374)
(X_374  0.4049019515514374)
(X_375  0.46176472306251526)
(X_376  0.39901962876319885)
(X_377  0.2558823525905609)
(X_378  0.24803923070430756)
(X_379  0.2558823525905609)
(X_380  0.43039217591285706)
(X_381  0.44607844948768616)
(X_382  0.4539215862751007)
(X_383  0.4421568810939789)
(X_384  0.31078431010246277)
(X_385  0.26764705777168274)
(X_386  0.23235295712947845)
(X_387  0.21274511516094208)
(X_388  0.3088235557079315)
(X_389  0.3284313976764679)
(X_390  0.2558823525905609)
(X_391  0.26372548937797546)
(X_392  0.4892157018184662)
(X_393  0.47745099663734436)
(X_394  0.4735294282436371)
(X_395  0.4892157018184662)
(X_396  0.520588219165802)
(X_397  0.551960825920105)
(X_398  0.5715686678886414)
(X_399  0.5794118046760559)
(X_400  0.43431374430656433)
(X_401  0.44607844948768616)
(X_402  0.46568629145622253)
(X_403  0.47745099663734436)
(X_404  0.37745097279548645)
(X_405  0.3735294044017792)
(X_406  0.37745097279548645)
(X_407  0.3892156779766083)
(X_408  0.34607842564582825)
(X_409  0.32647058367729187)
(X_410  0.3911764919757843)
(X_411  0.35196080803871155)
(X_412  0.33235296607017517)
(X_413  0.24411766231060028)
(X_414  0.3754902184009552)
(X_415  0.40294119715690613)
(X_416  0.3186274468898773)
(X_417  0.44607844948768616)
(X_418  0.3735294044017792)
(X_419  0.3813725411891937)
(X_420  0.4323529303073883)
(X_421  0.45588237047195435)
(X_422  0.4754902124404907)
(X_423  0.4637255072593689)
(X_424  0.4323529303073883)
(X_425  0.4049019515514374)
(X_426  0.3970588147640228)
(X_427  0.5009803771972656)
(X_428  0.3892156779766083)
(X_429  0.48137256503105164)
(X_430  0.385294109582901)
(X_431  0.4009803831577301)
(X_432  0.41274508833885193)
(X_433  0.5088235139846802)
(X_434  0.4049019515514374)
(X_435  0.4049019515514374)
(X_436  0.49705883860588074)
(X_437  0.5049019455909729)
(X_438  0.5049019455909729)
(X_439  0.4892157018184662)
(X_440  0.46176472306251526)
(X_441  0.3343137204647064)
(X_442  0.3225490152835846)
(X_443  0.3225490152835846)
(X_444  0.2754901945590973)
(X_445  0.29901960492134094)
(X_446  0.3225490152835846)
(X_447  0.4264706075191498)
(X_448  0.4264706075191498)
(X_449  0.3578431308269501)
(X_450  0.40882351994514465)
(X_451  0.44411763548851013)
(X_452  0.4166666567325592)
(X_453  0.3499999940395355)
(X_454  0.3950980603694916)
(X_455  0.3715686500072479)
(X_456  0.3950980603694916)
(X_457  0.3911764919757843)
(X_458  0.3950980603694916)
(X_459  0.41470590233802795)
(X_460  0.3343137204647064)
(X_461  0.34215685725212097)
(X_462  0.3343137204647064)
(X_463  0.32647058367729187)
(X_464  0.24803923070430756)
(X_465  0.23627452552318573)
(X_466  0.22058825194835663)
(X_467  0.3127451241016388)
(X_468  0.3245098292827606)
(X_469  0.3480392396450043)
(X_470  0.3794117867946625)
(X_471  0.39901962876319885)
(X_472  0.4107843339443207)
(X_473  0.3950980603694916)
(X_474  0.3715686500072479)
(X_475  0.3598039448261261)
(X_476  0.29901960492134094)
(X_477  0.31470587849617004)
(X_478  0.4539215862751007)
(X_479  0.47745099663734436)
(X_480  0.3539215624332428)
(X_481  0.29901960492134094)
(X_482  0.2558823525905609)
(X_483  0.24411766231060028)
(X_484  0.3480392396450043)
(X_485  0.344117671251297)
(X_486  0.24803923070430756)
(X_487  0.2598039209842682)
(X_488  0.2754901945590973)
(X_489  0.27941176295280457)
(X_490  0.2754901945590973)
(X_491  0.26372548937797546)
(X_492  0.2088235467672348)
(X_493  0.2088235467672348)
(X_494  0.20490197837352753)
(X_495  0.3088235557079315)
(X_496  0.31666669249534607)
(X_497  0.3284313976764679)
(X_498  0.3401961028575897)
(X_499  0.25196078419685364)
(X_500  0.240196093916893)
(X_501  0.2245098203420639)
(X_502  0.20490197837352753)
(X_503  0.1931372582912445)
(X_504  0.24803923070430756)
(X_505  0.25196078419685364)
(X_506  0.3715686500072479)
(X_507  0.38333335518836975)
(X_508  0.26372548937797546)
(X_509  0.2245098203420639)
(X_510  0.19705882668495178)
(X_511  0.1931372582912445)
(X_512  0.16568627953529358)
(X_513  0.1617647111415863)
(X_514  0.1617647111415863)
(X_515  0.16568627953529358)
(X_516  0.17352941632270813)
(X_517  0.17352941632270813)
(X_518  0.16568627953529358)
(X_519  0.15784314274787903)
(X_520  0.15392157435417175)
(X_521  0.1617647111415863)
(X_522  0.1774509847164154)
(X_523  0.18921568989753723)
(X_524  0.1931372582912445)
(X_525  0.28921568393707275)
(X_526  0.2852941155433655)
(X_527  0.2774509787559509)
(X_528  0.1617647111415863)
(X_529  0.15000000596046448)
(X_530  0.1303921639919281)
(X_531  0.12254902720451355)
(X_532  0.28921568393707275)
(X_533  0.2852941155433655)
(X_534  0.2970588207244873)
(X_535  0.3088235557079315)
(X_536  0.2970588207244873)
(X_537  0.1617647111415863)
(X_538  0.14215686917304993)
(X_539  0.13823530077934265)
(X_540  0.11078432202339172)
(X_541  0.11078432202339172)
(X_542  0.20686274766921997)
(X_543  0.10294118523597717)
(X_544  0.10294118523597717)
(X_545  0.0990196168422699)
(X_546  0.09117648005485535)
(X_547  0.08725491166114807)
(X_548  0.21078431606292725)
(X_549  0.12254902720451355)
(X_550  0.13823530077934265)
(X_551  0.15000000596046448)
(X_552  0.25)
(X_553  0.24215686321258545)
(X_554  0.22647058963775635)
(X_555  0.11862745881080627)
(X_556  0.2186274528503418)
(X_557  0.20686274766921997)
(X_558  0.19509804248809814)
(X_559  0.1872549057006836)
(X_560  0.14215686917304993)
(X_561  0.13431373238563538)
(X_562  0.1460784375667572)
(X_563  0.1617647111415863)
(X_564  0.15392157435417175)
(X_565  0.12254902720451355)
(X_566  0.0990196168422699)
(X_567  0.09509804844856262)
(X_568  0.10686275362968445)
(X_569  0.10686275362968445)
(X_570  0.10294118523597717)
(X_571  0.09509804844856262)
(X_572  0.08725491166114807)
(X_573  0.0833333432674408)
(X_574  0.0833333432674408)
(X_575  0.0833333432674408)
(X_576  0.0833333432674408)
(X_577  0.09117648005485535)
(X_578  0.09509804844856262)
(X_579  0.2029411792755127)
(X_580  0.2029411792755127)
(X_581  0.19509804248809814)
(X_582  0.1872549057006836)
(X_583  0.18333333730697632)
(X_584  0.2029411792755127)
(X_585  0.09117648005485535)
(X_586  0.0833333432674408)
(X_587  0.07941177487373352)
(X_588  0.20686274766921997)
(X_589  0.0990196168422699)
(X_590  0.10686275362968445)
(X_591  0.12254902720451355)
(X_592  0.12254902720451355)
(X_593  0.19509804248809814)
(X_594  0.1715686321258545)
(X_595  0.16372549533843994)
(X_596  0.1872549057006836)
(X_597  0.09117648005485535)
(X_598  0.08725491166114807)
(X_599  0.07941177487373352)
(X_600  0.0676470622420311)
(X_601  0.06372549384832382)
(X_602  0.0676470622420311)
(X_603  0.07549020648002625)
(X_604  0.16764706373214722)
(X_605  0.16764706373214722)
(X_606  0.16764706373214722)
(X_607  0.16764706373214722)
(X_608  0.16764706373214722)
(X_609  0.16764706373214722)
(X_610  0.16764706373214722)
(X_611  0.16764706373214722)
(X_612  0.07941177487373352)
(X_613  0.07156863063573837)
(X_614  0.16372549533843994)
(X_615  0.16372549533843994)
(X_616  0.19117647409439087)
(X_617  0.07549020648002625)
(X_618  0.07156863063573837)
(X_619  0.08725491166114807)
(X_620  0.09117648005485535)
(X_621  0.1715686321258545)
(X_622  0.0519607849419117)
(X_623  0.04803921654820442)
(X_624  0.15196079015731812)
(X_625  0.1558823585510254)
(X_626  0.1558823585510254)
(X_627  0.04803921654820442)
(X_628  0.036274511367082596)
(X_629  0.036274511367082596)
(X_630  0.04411764815449715)
(X_631  0.1558823585510254)
(X_632  0.1558823585510254)
(X_633  0.05588235333561897)
(X_634  0.0519607849419117)
(X_635  0.0519607849419117)
(X_636  0.0519607849419117)
(X_637  0.1558823585510254)
(X_638  0.1558823585510254)
(X_639  0.15980392694473267)
(X_640  0.15196079015731812)
(X_641  0.14803922176361084)
(X_642  0.14411765336990356)
(X_643  0.14411765336990356)
(X_644  0.18333333730697632)
(X_645  0.15980392694473267)
(X_646  0.14803922176361084)
(X_647  0.15980392694473267)
(X_648  0.16372549533843994)
(X_649  0.15196079015731812)
(X_650  0.14411765336990356)
(X_651  0.14411765336990356)
(X_652  0.136274516582489)
(X_653  0.04411764815449715)
(X_654  0.04803921654820442)
(X_655  0.04019607976078987)
(X_656  0.028431374579668045)
(X_657  0.028431374579668045)
(X_658  0.04411764815449715)
(X_659  0.05588235333561897)
(X_660  0.14803922176361084)
(X_661  0.14803922176361084)
(X_662  0.14803922176361084)
(X_663  0.15196079015731812)
(X_664  0.0519607849419117)
(X_665  0.0519607849419117)
(X_666  0.0519607849419117)
(X_667  0.0519607849419117)
(X_668  0.036274511367082596)
(X_669  0.03235294297337532)
(X_670  0.12843137979507446)
(X_671  0.03235294297337532)
(X_672  0.14803922176361084)
(X_673  0.04803921654820442)
(X_674  0.0519607849419117)
(X_675  0.0519607849419117)
(X_676  0.15196079015731812)
(X_677  0.15196079015731812)
(X_678  0.14803922176361084)
(X_679  0.14803922176361084)
(X_680  0.14803922176361084)
(X_681  0.1401960849761963)
(X_682  0.03235294297337532)
(X_683  0.028431374579668045)
(X_684  0.028431374579668045)
(X_685  0.03235294297337532)
(X_686  0.04019607976078987)
(X_687  0.04803921654820442)
(X_688  0.13235294818878174)
(X_689  0.12843137979507446)
(X_690  0.028431374579668045)
(X_691  0.028431374579668045)
(X_692  0.136274516582489)
(X_693  0.1401960849761963)
(X_694  0.136274516582489)
(X_695  0.13235294818878174)
(X_696  0.12450980395078659)
(X_697  0.12450980395078659)
(X_698  0.12450980395078659)
(X_699  0.12058823555707932)
(X_700  0.136274516582489)
(X_701  0.036274511367082596)
(X_702  0.1401960849761963)
(X_703  0.1401960849761963)
(X_704  0.04019607976078987)
(X_705  0.04019607976078987)
(X_706  0.036274511367082596)
(X_707  0.036274511367082596)
(X_708  0.036274511367082596)
(X_709  0.03235294297337532)
(X_710  0.02450980618596077)
(X_711  0.020588237792253494)
(X_712  0.020588237792253494)
(X_713  0.02450980618596077)
(X_714  0.03235294297337532)
(X_715  0.036274511367082596)
(X_716  0.02450980618596077)
(X_717  0.020588237792253494)
(X_718  0.020588237792253494)
(X_719  0.02450980618596077)
(X_720  0.028431374579668045)
(X_721  0.028431374579668045)
(X_722  0.028431374579668045)
(X_723  0.028431374579668045)
(X_724  0.12058823555707932)
(X_725  0.12058823555707932)
(X_726  0.12058823555707932)
(X_727  0.12058823555707932)
(X_728  0.12058823555707932)
(X_729  0.12058823555707932)
(X_730  0.12450980395078659)
(X_731  0.12450980395078659)
(X_732  0.12450980395078659)
(X_733  0.12450980395078659)
(X_734  0.12058823555707932)
(X_735  0.12058823555707932)
(X_736  0.02450980618596077)
(X_737  0.020588237792253494)
(X_738  0.01666666939854622)
(X_739  0.012745101936161518)
(X_740  0.012745101936161518)
(X_741  0.01666666939854622)
(X_742  0.020588237792253494)
(X_743  0.02450980618596077)
(X_744  0.012745101936161518)
(X_745  0.012745101936161518)
(X_746  0.012745101936161518)
(X_747  0.01666666939854622)
(X_748  0.01666666939854622)
(X_749  0.11666666716337204)
(X_750  0.12058823555707932)
(X_751  0.12058823555707932)
(X_752  0.11666666716337204)
(X_753  0.11666666716337204)
(X_754  0.11666666716337204)
(X_755  0.11274509876966476)
(X_756  0.11274509876966476)
(X_757  0.012745101936161518)
(X_758  0.01666666939854622)
(X_759  0.11666666716337204)
(X_760  0.01666666939854622)
(X_761  0.01666666939854622)
(X_762  0.11274509876966476)
(X_763  0.11274509876966476)
(X_764  0.020588237792253494)
(X_765  0.01666666939854622)
(X_766  0.012745101936161518)
(X_767  0.008823529817163944)
(X_768  0.008823529817163944)
(X_769  0.012745101936161518)
(X_770  0.01666666939854622)
(X_771  0.020588237792253494)
(X_772  0.008823529817163944)
(X_773  0.012745101936161518)
(X_774  0.01666666939854622)
(X_775  0.01666666939854622)
(X_776  0.012745101936161518)
(X_777  0.012745101936161518)
(X_778  0.01666666939854622)
(X_779  0.020588237792253494)
(X_780  0.012745101936161518)
(X_781  0.012745101936161518)
(X_782  0.012745101936161518)
(X_783  0.008823529817163944)
(Y_0 -5.009910583496094)
(Y_1 0.3209996819496155)
(Y_2 2.0597174167633057)
(Y_3 5.740651607513428))