((X_0  0.2186274528503418)
(X_1  0.21470588445663452)
(X_2  0.2029411792755127)
(X_3  0.19117647409439087)
(X_4  0.18333333730697632)
(X_5  0.17549020051956177)
(X_6  0.07156863063573837)
(X_7  0.07156863063573837)
(X_8  0.07156863063573837)
(X_9  0.19117647409439087)
(X_10  0.19509804248809814)
(X_11  0.07549020648002625)
(X_12  0.07156863063573837)
(X_13  0.19509804248809814)
(X_14  0.20686274766921997)
(X_15  0.19509804248809814)
(X_16  0.0990196168422699)
(X_17  0.09509804844856262)
(X_18  0.08725491166114807)
(X_19  0.08725491166114807)
(X_20  0.19509804248809814)
(X_21  0.20686274766921997)
(X_22  0.11078432202339172)
(X_23  0.11078432202339172)
(X_24  0.20686274766921997)
(X_25  0.10686275362968445)
(X_26  0.10294118523597717)
(X_27  0.19901961088180542)
(X_28  0.2186274528503418)
(X_29  0.21470588445663452)
(X_30  0.21078431606292725)
(X_31  0.2029411792755127)
(X_32  0.0990196168422699)
(X_33  0.0990196168422699)
(X_34  0.09509804844856262)
(X_35  0.19901961088180542)
(X_36  0.08725491166114807)
(X_37  0.11078432202339172)
(X_38  0.114705890417099)
(X_39  0.09509804844856262)
(X_40  0.07941177487373352)
(X_41  0.19509804248809814)
(X_42  0.21078431606292725)
(X_43  0.11078432202339172)
(X_44  0.2343137264251709)
(X_45  0.21470588445663452)
(X_46  0.1872549057006836)
(X_47  0.06372549384832382)
(X_48  0.0519607849419117)
(X_49  0.05588235333561897)
(X_50  0.06372549384832382)
(X_51  0.07156863063573837)
(X_52  0.1872549057006836)
(X_53  0.18333333730697632)
(X_54  0.0833333432674408)
(X_55  0.18333333730697632)
(X_56  0.19509804248809814)
(X_57  0.09509804844856262)
(X_58  0.09509804844856262)
(X_59  0.09117648005485535)
(X_60  0.09509804844856262)
(X_61  0.0990196168422699)
(X_62  0.10294118523597717)
(X_63  0.10686275362968445)
(X_64  0.0676470622420311)
(X_65  0.09117648005485535)
(X_66  0.10294118523597717)
(X_67  0.08725491166114807)
(X_68  0.07156863063573837)
(X_69  0.07941177487373352)
(X_70  0.09117648005485535)
(X_71  0.0990196168422699)
(X_72  0.0519607849419117)
(X_73  0.05980392172932625)
(X_74  0.07156863063573837)
(X_75  0.18333333730697632)
(X_76  0.19117647409439087)
(X_77  0.19509804248809814)
(X_78  0.19509804248809814)
(X_79  0.19509804248809814)
(X_80  0.17549020051956177)
(X_81  0.07549020648002625)
(X_82  0.07156863063573837)
(X_83  0.1715686321258545)
(X_84  0.16764706373214722)
(X_85  0.16764706373214722)
(X_86  0.16764706373214722)
(X_87  0.16764706373214722)
(X_88  0.07156863063573837)
(X_89  0.07549020648002625)
(X_90  0.07941177487373352)
(X_91  0.0833333432674408)
(X_92  0.1558823585510254)
(X_93  0.0676470622420311)
(X_94  0.07941177487373352)
(X_95  0.0833333432674408)
(X_96  0.18333333730697632)
(X_97  0.17941176891326904)
(X_98  0.17549020051956177)
(X_99  0.16764706373214722)
(X_100  0.19901961088180542)
(X_101  0.19901961088180542)
(X_102  0.19117647409439087)
(X_103  0.17941176891326904)
(X_104  0.06372549384832382)
(X_105  0.04803921654820442)
(X_106  0.04019607976078987)
(X_107  0.04019607976078987)
(X_108  0.0990196168422699)
(X_109  0.09509804844856262)
(X_110  0.09117648005485535)
(X_111  0.18333333730697632)
(X_112  0.0676470622420311)
(X_113  0.0676470622420311)
(X_114  0.16372549533843994)
(X_115  0.16372549533843994)
(X_116  0.16372549533843994)
(X_117  0.16764706373214722)
(X_118  0.07156863063573837)
(X_119  0.17549020051956177)
(X_120  0.08725491166114807)
(X_121  0.07941177487373352)
(X_122  0.07941177487373352)
(X_123  0.19509804248809814)
(X_124  0.20686274766921997)
(X_125  0.09509804844856262)
(X_126  0.0676470622420311)
(X_127  0.14411765336990356)
(X_128  0.19901961088180542)
(X_129  0.19117647409439087)
(X_130  0.17549020051956177)
(X_131  0.16372549533843994)
(X_132  0.16372549533843994)
(X_133  0.19117647409439087)
(X_134  0.1303921639919281)
(X_135  0.2617647051811218)
(X_136  0.1617647111415863)
(X_137  0.15784314274787903)
(X_138  0.14215686917304993)
(X_139  0.2343137264251709)
(X_140  0.1872549057006836)
(X_141  0.18333333730697632)
(X_142  0.18333333730697632)
(X_143  0.17941176891326904)
(X_144  0.07941177487373352)
(X_145  0.0833333432674408)
(X_146  0.0833333432674408)
(X_147  0.1872549057006836)
(X_148  0.21078431606292725)
(X_149  0.1872549057006836)
(X_150  0.17549020051956177)
(X_151  0.1872549057006836)
(X_152  0.19509804248809814)
(X_153  0.07941177487373352)
(X_154  0.05980392172932625)
(X_155  0.0519607849419117)
(X_156  0.020588237792253494)
(X_157  0.07156863063573837)
(X_158  0.15000000596046448)
(X_159  0.32058826088905334)
(X_160  0.38333335518836975)
(X_161  0.3382352888584137)
(X_162  0.3813725411891937)
(X_163  0.5127450823783875)
(X_164  0.46764707565307617)
(X_165  0.45588237047195435)
(X_166  0.44019606709480286)
(X_167  0.5245097875595093)
(X_168  0.0833333432674408)
(X_169  0.07941177487373352)
(X_170  0.17941176891326904)
(X_171  0.17941176891326904)
(X_172  0.18333333730697632)
(X_173  0.18333333730697632)
(X_174  0.09117648005485535)
(X_175  0.19117647409439087)
(X_176  0.19117647409439087)
(X_177  0.1715686321258545)
(X_178  0.16372549533843994)
(X_179  0.16764706373214722)
(X_180  0.16372549533843994)
(X_181  0.16764706373214722)
(X_182  0.19509804248809814)
(X_183  0.2343137264251709)
(X_184  0.29313725233078003)
(X_185  0.3558823764324188)
(X_186  0.44607844948768616)
(X_187  0.5127450823783875)
(X_188  0.44019606709480286)
(X_189  0.4362744987010956)
(X_190  0.42843136191368103)
(X_191  0.5245097875595093)
(X_192  0.5754902362823486)
(X_193  0.5637255311012268)
(X_194  0.4480392038822174)
(X_195  0.4323529303073883)
(X_196  0.05588235333561897)
(X_197  0.1558823585510254)
(X_198  0.15980392694473267)
(X_199  0.15980392694473267)
(X_200  0.16764706373214722)
(X_201  0.1715686321258545)
(X_202  0.17941176891326904)
(X_203  0.18333333730697632)
(X_204  0.07549020648002625)
(X_205  0.1715686321258545)
(X_206  0.1715686321258545)
(X_207  0.1715686321258545)
(X_208  0.06372549384832382)
(X_209  0.0833333432674408)
(X_210  0.1617647111415863)
(X_211  0.344117671251297)
(X_212  0.49705883860588074)
(X_213  0.5088235139846802)
(X_214  0.4166666567325592)
(X_215  0.4049019515514374)
(X_216  0.3813725411891937)
(X_217  0.46568629145622253)
(X_218  0.4696078598499298)
(X_219  0.48137256503105164)
(X_220  0.48137256503105164)
(X_221  0.4696078598499298)
(X_222  0.3539215624332428)
(X_223  0.34215685725212097)
(X_224  0.04411764815449715)
(X_225  0.05980392172932625)
(X_226  0.07549020648002625)
(X_227  0.07549020648002625)
(X_228  0.06372549384832382)
(X_229  0.05980392172932625)
(X_230  0.07156863063573837)
(X_231  0.0833333432674408)
(X_232  0.21470588445663452)
(X_233  0.19117647409439087)
(X_234  0.15980392694473267)
(X_235  0.1558823585510254)
(X_236  0.114705890417099)
(X_237  0.22843138873577118)
(X_238  0.3382352888584137)
(X_239  0.4009803831577301)
(X_240  0.3892156779766083)
(X_241  0.43431374430656433)
(X_242  0.39901962876319885)
(X_243  0.41470590233802795)
(X_244  0.43431374430656433)
(X_245  0.4264706075191498)
(X_246  0.4068627655506134)
(X_247  0.3029411733150482)
(X_248  0.3068627417087555)
(X_249  0.41862747073173523)
(X_250  0.3343137204647064)
(X_251  0.34215685725212097)
(X_252  0.20686274766921997)
(X_253  0.10686275362968445)
(X_254  0.11078432202339172)
(X_255  0.12254902720451355)
(X_256  0.23039215803146362)
(X_257  0.2343137264251709)
(X_258  0.2343137264251709)
(X_259  0.23039215803146362)
(X_260  0.10686275362968445)
(X_261  0.2186274528503418)
(X_262  0.2539215683937073)
(X_263  0.30490198731422424)
(X_264  0.35196080803871155)
(X_265  0.2872548997402191)
(X_266  0.31470587849617004)
(X_267  0.32647058367729187)
(X_268  0.27156862616539)
(X_269  0.40294119715690613)
(X_270  0.43431374430656433)
(X_271  0.36176469922065735)
(X_272  0.3970588147640228)
(X_273  0.5166666507720947)
(X_274  0.47745099663734436)
(X_275  0.3225490152835846)
(X_276  0.4421568810939789)
(X_277  0.44607844948768616)
(X_278  0.3539215624332428)
(X_279  0.3656862676143646)
(X_280  0.40294119715690613)
(X_281  0.3911764919757843)
(X_282  0.2911764681339264)
(X_283  0.3029411733150482)
(X_284  0.32647058367729187)
(X_285  0.3382352888584137)
(X_286  0.43039217591285706)
(X_287  0.41470590233802795)
(X_288  0.3343137204647064)
(X_289  0.4107843339443207)
(X_290  0.4107843339443207)
(X_291  0.3382352888584137)
(X_292  0.34215685725212097)
(X_293  0.3225490152835846)
(X_294  0.31470587849617004)
(X_295  0.32647058367729187)
(X_296  0.43039217591285706)
(X_297  0.37745097279548645)
(X_298  0.48137256503105164)
(X_299  0.3499999940395355)
(X_300  0.4735294282436371)
(X_301  0.5323529243469238)
(X_302  0.5362744927406311)
(X_303  0.3892156779766083)
(X_304  0.4205882251262665)
(X_305  0.41274508833885193)
(X_306  0.4049019515514374)
(X_307  0.40882351994514465)
(X_308  0.43431374430656433)
(X_309  0.43039217591285706)
(X_310  0.3343137204647064)
(X_311  0.34607842564582825)
(X_312  0.46176472306251526)
(X_313  0.4696078598499298)
(X_314  0.3656862676143646)
(X_315  0.3578431308269501)
(X_316  0.37745097279548645)
(X_317  0.41862747073173523)
(X_318  0.38333335518836975)
(X_319  0.3911764919757843)
(X_320  0.3911764919757843)
(X_321  0.27156862616539)
(X_322  0.27941176295280457)
(X_323  0.31470587849617004)
(X_324  0.46568629145622253)
(X_325  0.37745097279548645)
(X_326  0.34215685725212097)
(X_327  0.28333333134651184)
(X_328  0.27156862616539)
(X_329  0.3186274468898773)
(X_330  0.45000001788139343)
(X_331  0.4421568810939789)
(X_332  0.4696078598499298)
(X_333  0.44607844948768616)
(X_334  0.3186274468898773)
(X_335  0.41470590233802795)
(X_336  0.2872548997402191)
(X_337  0.39901962876319885)
(X_338  0.4107843339443207)
(X_339  0.4107843339443207)
(X_340  0.4068627655506134)
(X_341  0.40294119715690613)
(X_342  0.4107843339443207)
(X_343  0.3186274468898773)
(X_344  0.26372548937797546)
(X_345  0.240196093916893)
(X_346  0.25196078419685364)
(X_347  0.29901960492134094)
(X_348  0.3382352888584137)
(X_349  0.3382352888584137)
(X_350  0.34215685725212097)
(X_351  0.4539215862751007)
(X_352  0.44607844948768616)
(X_353  0.45000001788139343)
(X_354  0.457843154668808)
(X_355  0.36176469922065735)
(X_356  0.34215685725212097)
(X_357  0.41470590233802795)
(X_358  0.40294119715690613)
(X_359  0.4068627655506134)
(X_360  0.4735294282436371)
(X_361  0.34607842564582825)
(X_362  0.3186274468898773)
(X_363  0.31078431010246277)
(X_364  0.29901960492134094)
(X_365  0.31470587849617004)
(X_366  0.32647058367729187)
(X_367  0.41862747073173523)
(X_368  0.39901962876319885)
(X_369  0.387254923582077)
(X_370  0.3950980603694916)
(X_371  0.3068627417087555)
(X_372  0.29901960492134094)
(X_373  0.29509803652763367)
(X_374  0.29901960492134094)
(X_375  0.3225490152835846)
(X_376  0.3539215624332428)
(X_377  0.36176469922065735)
(X_378  0.3499999940395355)
(X_379  0.43039217591285706)
(X_380  0.48137256503105164)
(X_381  0.4696078598499298)
(X_382  0.48137256503105164)
(X_383  0.4009803831577301)
(X_384  0.37745097279548645)
(X_385  0.3225490152835846)
(X_386  0.3950980603694916)
(X_387  0.40294119715690613)
(X_388  0.3558823764324188)
(X_389  0.3401961028575897)
(X_390  0.2245098203420639)
(X_391  0.22058825194835663)
(X_392  0.5676470994949341)
(X_393  0.5676470994949341)
(X_394  0.46764707565307617)
(X_395  0.4598039388656616)
(X_396  0.5480391979217529)
(X_397  0.5323529243469238)
(X_398  0.5284313559532166)
(X_399  0.5245097875595093)
(X_400  0.4637255072593689)
(X_401  0.4637255072593689)
(X_402  0.5362744927406311)
(X_403  0.5049019455909729)
(X_404  0.5088235139846802)
(X_405  0.5284313559532166)
(X_406  0.4009803831577301)
(X_407  0.34607842564582825)
(X_408  0.28333333134651184)
(X_409  0.26764705777168274)
(X_410  0.33627453446388245)
(X_411  0.30490198731422424)
(X_412  0.28921568393707275)
(X_413  0.18529412150382996)
(X_414  0.18137255311012268)
(X_415  0.2774509787559509)
(X_416  0.18529412150382996)
(X_417  0.18137255311012268)
(X_418  0.1774509847164154)
(X_419  0.2774509787559509)
(X_420  0.3343137204647064)
(X_421  0.3186274468898773)
(X_422  0.3029411733150482)
(X_423  0.29509803652763367)
(X_424  0.29509803652763367)
(X_425  0.2872548997402191)
(X_426  0.3637255132198334)
(X_427  0.344117671251297)
(X_428  0.19705882668495178)
(X_429  0.240196093916893)
(X_430  0.25196078419685364)
(X_431  0.23235295712947845)
(X_432  0.24803923070430756)
(X_433  0.2754901945590973)
(X_434  0.2245098203420639)
(X_435  0.13823530077934265)
(X_436  0.21078431606292725)
(X_437  0.23823529481887817)
(X_438  0.21470588445663452)
(X_439  0.16372549533843994)
(X_440  0.16372549533843994)
(X_441  0.21078431606292725)
(X_442  0.11078432202339172)
(X_443  0.0676470622420311)
(X_444  0.07549020648002625)
(X_445  0.07941177487373352)
(X_446  0.07941177487373352)
(X_447  0.17549020051956177)
(X_448  0.24215686321258545)
(X_449  0.24215686321258545)
(X_450  0.23823529481887817)
(X_451  0.23039215803146362)
(X_452  0.12647059559822083)
(X_453  0.11862745881080627)
(X_454  0.21470588445663452)
(X_455  0.21078431606292725)
(X_456  0.1715686321258545)
(X_457  0.18333333730697632)
(X_458  0.2029411792755127)
(X_459  0.114705890417099)
(X_460  0.2186274528503418)
(X_461  0.21078431606292725)
(X_462  0.19509804248809814)
(X_463  0.1872549057006836)
(X_464  0.07549020648002625)
(X_465  0.0676470622420311)
(X_466  0.15980392694473267)
(X_467  0.14803922176361084)
(X_468  0.14411765336990356)
(X_469  0.14803922176361084)
(X_470  0.15196079015731812)
(X_471  0.1558823585510254)
(X_472  0.1558823585510254)
(X_473  0.1558823585510254)
(X_474  0.1558823585510254)
(X_475  0.15980392694473267)
(X_476  0.0833333432674408)
(X_477  0.0833333432674408)
(X_478  0.17941176891326904)
(X_479  0.17549020051956177)
(X_480  0.07156863063573837)
(X_481  0.0676470622420311)
(X_482  0.06372549384832382)
(X_483  0.06372549384832382)
(X_484  0.0519607849419117)
(X_485  0.15980392694473267)
(X_486  0.07549020648002625)
(X_487  0.08725491166114807)
(X_488  0.08725491166114807)
(X_489  0.07941177487373352)
(X_490  0.06372549384832382)
(X_491  0.05588235333561897)
(X_492  0.0676470622420311)
(X_493  0.06372549384832382)
(X_494  0.15196079015731812)
(X_495  0.14411765336990356)
(X_496  0.1401960849761963)
(X_497  0.14411765336990356)
(X_498  0.14803922176361084)
(X_499  0.0519607849419117)
(X_500  0.14803922176361084)
(X_501  0.04803921654820442)
(X_502  0.04803921654820442)
(X_503  0.0519607849419117)
(X_504  0.1558823585510254)
(X_505  0.05588235333561897)
(X_506  0.05588235333561897)
(X_507  0.0519607849419117)
(X_508  0.0519607849419117)
(X_509  0.0519607849419117)
(X_510  0.04803921654820442)
(X_511  0.14803922176361084)
(X_512  0.04803921654820442)
(X_513  0.05588235333561897)
(X_514  0.16764706373214722)
(X_515  0.07549020648002625)
(X_516  0.07156863063573837)
(X_517  0.06372549384832382)
(X_518  0.0519607849419117)
(X_519  0.04411764815449715)
(X_520  0.05588235333561897)
(X_521  0.0519607849419117)
(X_522  0.04411764815449715)
(X_523  0.04019607976078987)
(X_524  0.036274511367082596)
(X_525  0.136274516582489)
(X_526  0.1401960849761963)
(X_527  0.14411765336990356)
(X_528  0.04019607976078987)
(X_529  0.04019607976078987)
(X_530  0.04019607976078987)
(X_531  0.1401960849761963)
(X_532  0.1558823585510254)
(X_533  0.1558823585510254)
(X_534  0.1558823585510254)
(X_535  0.1558823585510254)
(X_536  0.1558823585510254)
(X_537  0.05588235333561897)
(X_538  0.05980392172932625)
(X_539  0.05980392172932625)
(X_540  0.04803921654820442)
(X_541  0.0519607849419117)
(X_542  0.1558823585510254)
(X_543  0.05980392172932625)
(X_544  0.05588235333561897)
(X_545  0.14803922176361084)
(X_546  0.1401960849761963)
(X_547  0.036274511367082596)
(X_548  0.14411765336990356)
(X_549  0.1401960849761963)
(X_550  0.036274511367082596)
(X_551  0.13235294818878174)
(X_552  0.12843137979507446)
(X_553  0.12843137979507446)
(X_554  0.13235294818878174)
(X_555  0.03235294297337532)
(X_556  0.1401960849761963)
(X_557  0.036274511367082596)
(X_558  0.036274511367082596)
(X_559  0.13235294818878174)
(X_560  0.136274516582489)
(X_561  0.136274516582489)
(X_562  0.136274516582489)
(X_563  0.136274516582489)
(X_564  0.04019607976078987)
(X_565  0.1401960849761963)
(X_566  0.04019607976078987)
(X_567  0.04019607976078987)
(X_568  0.03235294297337532)
(X_569  0.13235294818878174)
(X_570  0.13235294818878174)
(X_571  0.13235294818878174)
(X_572  0.03235294297337532)
(X_573  0.02450980618596077)
(X_574  0.020588237792253494)
(X_575  0.01666666939854622)
(X_576  0.03235294297337532)
(X_577  0.03235294297337532)
(X_578  0.028431374579668045)
(X_579  0.028431374579668045)
(X_580  0.12450980395078659)
(X_581  0.12450980395078659)
(X_582  0.12843137979507446)
(X_583  0.12843137979507446)
(X_584  0.136274516582489)
(X_585  0.036274511367082596)
(X_586  0.036274511367082596)
(X_587  0.03235294297337532)
(X_588  0.12058823555707932)
(X_589  0.020588237792253494)
(X_590  0.12058823555707932)
(X_591  0.12058823555707932)
(X_592  0.02450980618596077)
(X_593  0.02450980618596077)
(X_594  0.02450980618596077)
(X_595  0.12450980395078659)
(X_596  0.03235294297337532)
(X_597  0.13235294818878174)
(X_598  0.028431374579668045)
(X_599  0.028431374579668045)
(X_600  0.028431374579668045)
(X_601  0.028431374579668045)
(X_602  0.028431374579668045)
(X_603  0.028431374579668045)
(X_604  0.12450980395078659)
(X_605  0.12450980395078659)
(X_606  0.12450980395078659)
(X_607  0.12450980395078659)
(X_608  0.12450980395078659)
(X_609  0.12450980395078659)
(X_610  0.12450980395078659)
(X_611  0.12450980395078659)
(X_612  0.03235294297337532)
(X_613  0.03235294297337532)
(X_614  0.13235294818878174)
(X_615  0.13235294818878174)
(X_616  0.12450980395078659)
(X_617  0.12450980395078659)
(X_618  0.02450980618596077)
(X_619  0.02450980618596077)
(X_620  0.02450980618596077)
(X_621  0.12450980395078659)
(X_622  0.02450980618596077)
(X_623  0.12058823555707932)
(X_624  0.136274516582489)
(X_625  0.13235294818878174)
(X_626  0.12843137979507446)
(X_627  0.028431374579668045)
(X_628  0.028431374579668045)
(X_629  0.03235294297337532)
(X_630  0.136274516582489)
(X_631  0.1401960849761963)
(X_632  0.020588237792253494)
(X_633  0.02450980618596077)
(X_634  0.02450980618596077)
(X_635  0.02450980618596077)
(X_636  0.12843137979507446)
(X_637  0.12450980395078659)
(X_638  0.12450980395078659)
(X_639  0.12450980395078659)
(X_640  0.02450980618596077)
(X_641  0.02450980618596077)
(X_642  0.12450980395078659)
(X_643  0.12450980395078659)
(X_644  0.02450980618596077)
(X_645  0.02450980618596077)
(X_646  0.12450980395078659)
(X_647  0.12058823555707932)
(X_648  0.12058823555707932)
(X_649  0.01666666939854622)
(X_650  0.01666666939854622)
(X_651  0.01666666939854622)
(X_652  0.01666666939854622)
(X_653  0.012745101936161518)
(X_654  0.008823529817163944)
(X_655  0.008823529817163944)
(X_656  0.012745101936161518)
(X_657  0.01666666939854622)
(X_658  0.12450980395078659)
(X_659  0.028431374579668045)
(X_660  0.12058823555707932)
(X_661  0.12058823555707932)
(X_662  0.12450980395078659)
(X_663  0.12843137979507446)
(X_664  0.12843137979507446)
(X_665  0.12843137979507446)
(X_666  0.12450980395078659)
(X_667  0.02450980618596077)
(X_668  0.012745101936161518)
(X_669  0.01666666939854622)
(X_670  0.01666666939854622)
(X_671  0.020588237792253494)
(X_672  0.10098039358854294)
(X_673  -0.006862743757665157)
(X_674  -0.0029411755967885256)
(X_675  0.01666666939854622)
(X_676  0.020588237792253494)
(X_677  0.11666666716337204)
(X_678  0.12450980395078659)
(X_679  0.1401960849761963)
(X_680  0.02450980618596077)
(X_681  0.12450980395078659)
(X_682  0.12058823555707932)
(X_683  0.11274509876966476)
(X_684  0.11274509876966476)
(X_685  0.11666666716337204)
(X_686  0.020588237792253494)
(X_687  0.02450980618596077)
(X_688  0.10490196198225021)
(X_689  0.10882353037595749)
(X_690  0.008823529817163944)
(X_691  0.008823529817163944)
(X_692  0.10490196198225021)
(X_693  0.008823529817163944)
(X_694  0.020588237792253494)
(X_695  0.03235294297337532)
(X_696  0.11274509876966476)
(X_697  0.11274509876966476)
(X_698  0.11666666716337204)
(X_699  0.11274509876966476)
(X_700  0.16372549533843994)
(X_701  0.04803921654820442)
(X_702  0.036274511367082596)
(X_703  0.03235294297337532)
(X_704  0.012745101936161518)
(X_705  -0.010784312151372433)
(X_706  -0.018627449870109558)
(X_707  -0.006862743757665157)
(X_708  0.04019607976078987)
(X_709  0.04019607976078987)
(X_710  0.03235294297337532)
(X_711  0.12450980395078659)
(X_712  0.11274509876966476)
(X_713  0.10882353037595749)
(X_714  0.008823529817163944)
(X_715  0.012745101936161518)
(X_716  0.12450980395078659)
(X_717  0.12450980395078659)
(X_718  0.02450980618596077)
(X_719  0.01666666939854622)
(X_720  0.10490196198225021)
(X_721  0.10098039358854294)
(X_722  0.004901961423456669)
(X_723  0.11274509876966476)
(X_724  0.09705882519483566)
(X_725  0.10882353037595749)
(X_726  0.12450980395078659)
(X_727  0.14411765336990356)
(X_728  0.08529412001371384)
(X_729  -0.022549020126461983)
(X_730  -0.018627449870109558)
(X_731  0.09705882519483566)
(X_732  0.09705882519483566)
(X_733  0.09313725680112839)
(X_734  0.10882353037595749)
(X_735  0.13235294818878174)
(X_736  0.07352941483259201)
(X_737  0.08921568840742111)
(X_738  0.10882353037595749)
(X_739  0.03235294297337532)
(X_740  0.15196079015731812)
(X_741  0.17549020051956177)
(X_742  0.19901961088180542)
(X_743  0.21470588445663452)
(X_744  0.11862745881080627)
(X_745  0.15000000596046448)
(X_746  0.30490198731422424)
(X_747  0.26764705777168274)
(X_748  0.3343137204647064)
(X_749  0.3970588147640228)
(X_750  0.45196080207824707)
(X_751  0.4833333492279053)
(X_752  0.7049019932746887)
(X_753  0.7245098352432251)
(X_754  0.751960813999176)
(X_755  0.779411792755127)
(X_756  0.13235294818878174)
(X_757  0.14411765336990356)
(X_758  0.07941177487373352)
(X_759  0.1303921639919281)
(X_760  0.17352941632270813)
(X_761  0.21274511516094208)
(X_762  0.26764705777168274)
(X_763  0.31470587849617004)
(X_764  0.45588237047195435)
(X_765  0.4950980544090271)
(X_766  0.550000011920929)
(X_767  0.6127451062202454)
(X_768  0.6676470637321472)
(X_769  0.7225490212440491)
(X_770  0.7735294103622437)
(X_771  0.8088235259056091)
(X_772  0.863725483417511)
(X_773  0.8754901885986328)
(X_774  0.8950980305671692)
(X_775  0.9107843041419983)
(X_776  0.9186274409294128)
(X_777  0.9303921461105347)
(X_778  0.9421568512916565)
(X_779  0.949999988079071)
(X_780  0.9186274409294128)
(X_781  0.9303921461105347)
(X_782  0.9460784196853638)
(X_783  0.949999988079071)
(Y_0 -13.974394798278809)
(Y_1 29.419523239135742)
(Y_2 -10.914010047912598)
(Y_3 -1.7549071311950684))