((X_0  0.05980392172932625)
(X_1  0.0676470622420311)
(X_2  0.07941177487373352)
(X_3  0.1872549057006836)
(X_4  0.09117648005485535)
(X_5  0.09117648005485535)
(X_6  0.1872549057006836)
(X_7  0.18333333730697632)
(X_8  0.2029411792755127)
(X_9  0.19901961088180542)
(X_10  0.19509804248809814)
(X_11  0.19509804248809814)
(X_12  0.19117647409439087)
(X_13  0.09509804844856262)
(X_14  0.09509804844856262)
(X_15  0.0990196168422699)
(X_16  0.11078432202339172)
(X_17  0.11078432202339172)
(X_18  0.11078432202339172)
(X_19  0.11078432202339172)
(X_20  0.11078432202339172)
(X_21  0.114705890417099)
(X_22  0.22254902124404907)
(X_23  0.22254902124404907)
(X_24  0.12647059559822083)
(X_25  0.12647059559822083)
(X_26  0.22647058963775635)
(X_27  0.22647058963775635)
(X_28  0.05980392172932625)
(X_29  0.06372549384832382)
(X_30  0.07156863063573837)
(X_31  0.17549020051956177)
(X_32  0.17941176891326904)
(X_33  0.17941176891326904)
(X_34  0.17549020051956177)
(X_35  0.1715686321258545)
(X_36  0.07941177487373352)
(X_37  0.07941177487373352)
(X_38  0.18333333730697632)
(X_39  0.18333333730697632)
(X_40  0.1872549057006836)
(X_41  0.1872549057006836)
(X_42  0.1872549057006836)
(X_43  0.1872549057006836)
(X_44  0.16764706373214722)
(X_45  0.16372549533843994)
(X_46  0.06372549384832382)
(X_47  0.06372549384832382)
(X_48  0.16372549533843994)
(X_49  0.16764706373214722)
(X_50  0.1715686321258545)
(X_51  0.17549020051956177)
(X_52  0.17941176891326904)
(X_53  0.17941176891326904)
(X_54  0.17941176891326904)
(X_55  0.17941176891326904)
(X_56  0.15980392694473267)
(X_57  0.05980392172932625)
(X_58  0.05980392172932625)
(X_59  0.16372549533843994)
(X_60  0.16372549533843994)
(X_61  0.06372549384832382)
(X_62  0.06372549384832382)
(X_63  0.06372549384832382)
(X_64  0.1558823585510254)
(X_65  0.15980392694473267)
(X_66  0.16764706373214722)
(X_67  0.1715686321258545)
(X_68  0.17549020051956177)
(X_69  0.17549020051956177)
(X_70  0.1715686321258545)
(X_71  0.16764706373214722)
(X_72  0.0519607849419117)
(X_73  0.04803921654820442)
(X_74  0.04803921654820442)
(X_75  0.04803921654820442)
(X_76  0.04803921654820442)
(X_77  0.15196079015731812)
(X_78  0.1558823585510254)
(X_79  0.1558823585510254)
(X_80  0.16372549533843994)
(X_81  0.16372549533843994)
(X_82  0.15980392694473267)
(X_83  0.15980392694473267)
(X_84  0.0676470622420311)
(X_85  0.06372549384832382)
(X_86  0.05980392172932625)
(X_87  0.05588235333561897)
(X_88  0.0519607849419117)
(X_89  0.0519607849419117)
(X_90  0.05588235333561897)
(X_91  0.1558823585510254)
(X_92  0.14803922176361084)
(X_93  0.15196079015731812)
(X_94  0.16372549533843994)
(X_95  0.0676470622420311)
(X_96  0.16764706373214722)
(X_97  0.16372549533843994)
(X_98  0.1558823585510254)
(X_99  0.0519607849419117)
(X_100  0.05980392172932625)
(X_101  0.1558823585510254)
(X_102  0.05588235333561897)
(X_103  0.0519607849419117)
(X_104  0.0519607849419117)
(X_105  0.1558823585510254)
(X_106  0.05980392172932625)
(X_107  0.15980392694473267)
(X_108  0.06372549384832382)
(X_109  0.06372549384832382)
(X_110  0.15980392694473267)
(X_111  0.1558823585510254)
(X_112  0.1715686321258545)
(X_113  0.16764706373214722)
(X_114  0.16372549533843994)
(X_115  0.15980392694473267)
(X_116  0.05588235333561897)
(X_117  0.1558823585510254)
(X_118  0.1558823585510254)
(X_119  0.1558823585510254)
(X_120  0.05588235333561897)
(X_121  0.15980392694473267)
(X_122  0.16372549533843994)
(X_123  0.16764706373214722)
(X_124  0.16764706373214722)
(X_125  0.05980392172932625)
(X_126  0.04803921654820442)
(X_127  0.04411764815449715)
(X_128  0.05588235333561897)
(X_129  0.05588235333561897)
(X_130  0.15196079015731812)
(X_131  0.04803921654820442)
(X_132  0.14803922176361084)
(X_133  0.15196079015731812)
(X_134  0.0519607849419117)
(X_135  0.05588235333561897)
(X_136  0.05588235333561897)
(X_137  0.15196079015731812)
(X_138  0.14803922176361084)
(X_139  0.14803922176361084)
(X_140  0.16764706373214722)
(X_141  0.16764706373214722)
(X_142  0.06372549384832382)
(X_143  0.16372549533843994)
(X_144  0.15980392694473267)
(X_145  0.15980392694473267)
(X_146  0.05588235333561897)
(X_147  0.05588235333561897)
(X_148  0.1558823585510254)
(X_149  0.15980392694473267)
(X_150  0.16372549533843994)
(X_151  0.16764706373214722)
(X_152  0.16372549533843994)
(X_153  0.15980392694473267)
(X_154  0.15196079015731812)
(X_155  0.14803922176361084)
(X_156  0.06372549384832382)
(X_157  0.15980392694473267)
(X_158  0.1558823585510254)
(X_159  0.1558823585510254)
(X_160  0.15196079015731812)
(X_161  0.1558823585510254)
(X_162  0.1558823585510254)
(X_163  0.1558823585510254)
(X_164  0.1558823585510254)
(X_165  0.1558823585510254)
(X_166  0.1558823585510254)
(X_167  0.15196079015731812)
(X_168  0.05588235333561897)
(X_169  0.05980392172932625)
(X_170  0.06372549384832382)
(X_171  0.0676470622420311)
(X_172  0.06372549384832382)
(X_173  0.05980392172932625)
(X_174  0.05588235333561897)
(X_175  0.0519607849419117)
(X_176  0.04803921654820442)
(X_177  0.0519607849419117)
(X_178  0.0519607849419117)
(X_179  0.1558823585510254)
(X_180  0.15980392694473267)
(X_181  0.16372549533843994)
(X_182  0.16764706373214722)
(X_183  0.16764706373214722)
(X_184  0.07156863063573837)
(X_185  0.0676470622420311)
(X_186  0.06372549384832382)
(X_187  0.05980392172932625)
(X_188  0.05980392172932625)
(X_189  0.05980392172932625)
(X_190  0.15980392694473267)
(X_191  0.15980392694473267)
(X_192  0.0676470622420311)
(X_193  0.0676470622420311)
(X_194  0.16764706373214722)
(X_195  0.16372549533843994)
(X_196  0.14411765336990356)
(X_197  0.15196079015731812)
(X_198  0.15980392694473267)
(X_199  0.0676470622420311)
(X_200  0.0676470622420311)
(X_201  0.05980392172932625)
(X_202  0.0519607849419117)
(X_203  0.04803921654820442)
(X_204  0.036274511367082596)
(X_205  0.036274511367082596)
(X_206  0.04019607976078987)
(X_207  0.04803921654820442)
(X_208  0.05588235333561897)
(X_209  0.0676470622420311)
(X_210  0.07549020648002625)
(X_211  0.18333333730697632)
(X_212  0.1558823585510254)
(X_213  0.1558823585510254)
(X_214  0.15196079015731812)
(X_215  0.14803922176361084)
(X_216  0.04411764815449715)
(X_217  0.04411764815449715)
(X_218  0.14411765336990356)
(X_219  0.14803922176361084)
(X_220  0.05980392172932625)
(X_221  0.05980392172932625)
(X_222  0.05980392172932625)
(X_223  0.05980392172932625)
(X_224  0.18921568989753723)
(X_225  0.17352941632270813)
(X_226  0.15392157435417175)
(X_227  0.2343137264251709)
(X_228  0.11078432202339172)
(X_229  0.0833333432674408)
(X_230  0.05588235333561897)
(X_231  0.036274511367082596)
(X_232  0.16372549533843994)
(X_233  0.14803922176361084)
(X_234  0.13235294818878174)
(X_235  0.13235294818878174)
(X_236  0.14803922176361084)
(X_237  0.16372549533843994)
(X_238  0.17549020051956177)
(X_239  0.17549020051956177)
(X_240  0.18333333730697632)
(X_241  0.16372549533843994)
(X_242  0.04411764815449715)
(X_243  0.1401960849761963)
(X_244  0.14803922176361084)
(X_245  0.05980392172932625)
(X_246  0.05980392172932625)
(X_247  0.05588235333561897)
(X_248  0.15980392694473267)
(X_249  0.06372549384832382)
(X_250  0.0676470622420311)
(X_251  0.1715686321258545)
(X_252  0.5049019455909729)
(X_253  0.4852941334247589)
(X_254  0.3578431308269501)
(X_255  0.43039217591285706)
(X_256  0.4068627655506134)
(X_257  0.38333335518836975)
(X_258  0.3637255132198334)
(X_259  0.24803923070430756)
(X_260  0.11078432202339172)
(X_261  0.19117647409439087)
(X_262  0.16372549533843994)
(X_263  0.14411765336990356)
(X_264  0.1401960849761963)
(X_265  0.14411765336990356)
(X_266  0.1401960849761963)
(X_267  0.136274516582489)
(X_268  0.036274511367082596)
(X_269  0.04019607976078987)
(X_270  0.05588235333561897)
(X_271  0.07941177487373352)
(X_272  0.10686275362968445)
(X_273  0.1303921639919281)
(X_274  0.14215686917304993)
(X_275  0.1460784375667572)
(X_276  0.16568627953529358)
(X_277  0.16960784792900085)
(X_278  0.18529412150382996)
(X_279  0.2970588207244873)
(X_280  0.3539215624332428)
(X_281  0.34607842564582825)
(X_282  0.3382352888584137)
(X_283  0.3382352888584137)
(X_284  0.3499999940395355)
(X_285  0.36176469922065735)
(X_286  0.3696078360080719)
(X_287  0.3696078360080719)
(X_288  0.36176469922065735)
(X_289  0.33039215207099915)
(X_290  0.28333333134651184)
(X_291  0.33627453446388245)
(X_292  0.2970588207244873)
(X_293  0.16568627953529358)
(X_294  0.14215686917304993)
(X_295  0.12647059559822083)
(X_296  0.3127451241016388)
(X_297  0.33235296607017517)
(X_298  0.3558823764324188)
(X_299  0.27941176295280457)
(X_300  0.2911764681339264)
(X_301  0.29509803652763367)
(X_302  0.40294119715690613)
(X_303  0.3068627417087555)
(X_304  0.3186274468898773)
(X_305  0.3225490152835846)
(X_306  0.32647058367729187)
(X_307  0.43431374430656433)
(X_308  0.2754901945590973)
(X_309  0.26764705777168274)
(X_310  0.2598039209842682)
(X_311  0.2598039209842682)
(X_312  0.26764705777168274)
(X_313  0.27156862616539)
(X_314  0.26764705777168274)
(X_315  0.3637255132198334)
(X_316  0.29509803652763367)
(X_317  0.28333333134651184)
(X_318  0.27156862616539)
(X_319  0.2598039209842682)
(X_320  0.3598039448261261)
(X_321  0.3637255132198334)
(X_322  0.36764708161354065)
(X_323  0.3715686500072479)
(X_324  0.2872548997402191)
(X_325  0.40294119715690613)
(X_326  0.41862747073173523)
(X_327  0.31470587849617004)
(X_328  0.29901960492134094)
(X_329  0.2872548997402191)
(X_330  0.28333333134651184)
(X_331  0.2872548997402191)
(X_332  0.3598039448261261)
(X_333  0.2598039209842682)
(X_334  0.3598039448261261)
(X_335  0.3598039448261261)
(X_336  0.19705882668495178)
(X_337  0.2970588207244873)
(X_338  0.20490197837352753)
(X_339  0.31666669249534607)
(X_340  0.3284313976764679)
(X_341  0.3284313976764679)
(X_342  0.21666668355464935)
(X_343  0.20490197837352753)
(X_344  0.2696078419685364)
(X_345  0.2656862735748291)
(X_346  0.2656862735748291)
(X_347  0.2656862735748291)
(X_348  0.2696078419685364)
(X_349  0.2813725471496582)
(X_350  0.29313725233078003)
(X_351  0.30098041892051697)
(X_352  0.18529412150382996)
(X_353  0.2970588207244873)
(X_354  0.30098041892051697)
(X_355  0.2970588207244873)
(X_356  0.18137255311012268)
(X_357  0.18137255311012268)
(X_358  0.18921568989753723)
(X_359  0.20490197837352753)
(X_360  0.2656862735748291)
(X_361  0.2656862735748291)
(X_362  0.16960784792900085)
(X_363  0.2696078419685364)
(X_364  0.5186274647712708)
(X_365  0.5068627595901489)
(X_366  0.4950980544090271)
(X_367  0.5754902362823486)
(X_368  0.5480391979217529)
(X_369  0.5088235139846802)
(X_370  0.46568629145622253)
(X_371  0.4382353127002716)
(X_372  0.3382352888584137)
(X_373  0.33039215207099915)
(X_374  0.4107843339443207)
(X_375  0.38333335518836975)
(X_376  0.3558823764324188)
(X_377  0.23235295712947845)
(X_378  0.22843138873577118)
(X_379  0.3284313976764679)
(X_380  0.3715686500072479)
(X_381  0.36764708161354065)
(X_382  0.3598039448261261)
(X_383  0.35196080803871155)
(X_384  0.3480392396450043)
(X_385  0.25196078419685364)
(X_386  0.26764705777168274)
(X_387  0.27941176295280457)
(X_388  0.457843154668808)
(X_389  0.4539215862751007)
(X_390  0.3499999940395355)
(X_391  0.4421568810939789)
(X_392  0.27941176295280457)
(X_393  0.29509803652763367)
(X_394  0.3343137204647064)
(X_395  0.4852941334247589)
(X_396  0.4362744987010956)
(X_397  0.4754902124404907)
(X_398  0.4950980544090271)
(X_399  0.4990196228027344)
(X_400  0.5343137383460999)
(X_401  0.5382353067398071)
(X_402  0.5421568751335144)
(X_403  0.5382353067398071)
(X_404  0.5303921699523926)
(X_405  0.5303921699523926)
(X_406  0.5421568751335144)
(X_407  0.6539216041564941)
(X_408  0.5539215803146362)
(X_409  0.5382353067398071)
(X_410  0.5147058963775635)
(X_411  0.4990196228027344)
(X_412  0.4950980544090271)
(X_413  0.595098078250885)
(X_414  0.595098078250885)
(X_415  0.595098078250885)
(X_416  0.4362744987010956)
(X_417  0.42843136191368103)
(X_418  0.5166666507720947)
(X_419  0.5049019455909729)
(X_420  0.15392157435417175)
(X_421  0.2539215683937073)
(X_422  0.25784313678741455)
(X_423  0.27352941036224365)
(X_424  0.29313725233078003)
(X_425  0.30490198731422424)
(X_426  0.3088235557079315)
(X_427  0.3088235557079315)
(X_428  0.22843138873577118)
(X_429  0.33627453446388245)
(X_430  0.24803923070430756)
(X_431  0.24803923070430756)
(X_432  0.344117671251297)
(X_433  0.35196080803871155)
(X_434  0.36764708161354065)
(X_435  0.3794117867946625)
(X_436  0.28333333134651184)
(X_437  0.26372548937797546)
(X_438  0.240196093916893)
(X_439  0.3284313976764679)
(X_440  0.3284313976764679)
(X_441  0.3284313976764679)
(X_442  0.21666668355464935)
(X_443  0.2088235467672348)
(X_444  0.18529412150382996)
(X_445  0.2852941155433655)
(X_446  0.18137255311012268)
(X_447  0.2774509787559509)
(X_448  0.10686275362968445)
(X_449  0.21078431606292725)
(X_450  0.21078431606292725)
(X_451  0.21470588445663452)
(X_452  0.22254902124404907)
(X_453  0.22647058963775635)
(X_454  0.22647058963775635)
(X_455  0.1303921639919281)
(X_456  0.12647059559822083)
(X_457  0.11862745881080627)
(X_458  0.11078432202339172)
(X_459  0.10294118523597717)
(X_460  0.10686275362968445)
(X_461  0.21470588445663452)
(X_462  0.22647058963775635)
(X_463  0.2343137264251709)
(X_464  0.2656862735748291)
(X_465  0.2696078419685364)
(X_466  0.27352941036224365)
(X_467  0.16568627953529358)
(X_468  0.1460784375667572)
(X_469  0.12647059559822083)
(X_470  0.114705890417099)
(X_471  0.11078432202339172)
(X_472  0.2656862735748291)
(X_473  0.2656862735748291)
(X_474  0.2696078419685364)
(X_475  0.2696078419685364)
(X_476  0.09509804844856262)
(X_477  0.09509804844856262)
(X_478  0.0990196168422699)
(X_479  0.10294118523597717)
(X_480  0.10686275362968445)
(X_481  0.11078432202339172)
(X_482  0.11078432202339172)
(X_483  0.114705890417099)
(X_484  0.114705890417099)
(X_485  0.11078432202339172)
(X_486  0.10686275362968445)
(X_487  0.10294118523597717)
(X_488  0.2029411792755127)
(X_489  0.21078431606292725)
(X_490  0.2186274528503418)
(X_491  0.22254902124404907)
(X_492  0.23039215803146362)
(X_493  0.13823530077934265)
(X_494  0.14215686917304993)
(X_495  0.13431373238563538)
(X_496  0.11862745881080627)
(X_497  0.2029411792755127)
(X_498  0.19509804248809814)
(X_499  0.19117647409439087)
(X_500  0.10686275362968445)
(X_501  0.20686274766921997)
(X_502  0.10294118523597717)
(X_503  0.10294118523597717)
(X_504  0.06372549384832382)
(X_505  0.16764706373214722)
(X_506  0.16764706373214722)
(X_507  0.1715686321258545)
(X_508  0.1715686321258545)
(X_509  0.17549020051956177)
(X_510  0.17549020051956177)
(X_511  0.07941177487373352)
(X_512  0.18333333730697632)
(X_513  0.0833333432674408)
(X_514  0.0833333432674408)
(X_515  0.0833333432674408)
(X_516  0.0833333432674408)
(X_517  0.08725491166114807)
(X_518  0.08725491166114807)
(X_519  0.19117647409439087)
(X_520  0.0833333432674408)
(X_521  0.09117648005485535)
(X_522  0.19509804248809814)
(X_523  0.09117648005485535)
(X_524  0.07941177487373352)
(X_525  0.0676470622420311)
(X_526  0.06372549384832382)
(X_527  0.05980392172932625)
(X_528  0.06372549384832382)
(X_529  0.16372549533843994)
(X_530  0.05980392172932625)
(X_531  0.05588235333561897)
(X_532  0.036274511367082596)
(X_533  0.036274511367082596)
(X_534  0.036274511367082596)
(X_535  0.036274511367082596)
(X_536  0.136274516582489)
(X_537  0.136274516582489)
(X_538  0.1401960849761963)
(X_539  0.1401960849761963)
(X_540  0.1401960849761963)
(X_541  0.04411764815449715)
(X_542  0.04803921654820442)
(X_543  0.0519607849419117)
(X_544  0.05588235333561897)
(X_545  0.0519607849419117)
(X_546  0.04803921654820442)
(X_547  0.14803922176361084)
(X_548  0.1401960849761963)
(X_549  0.14803922176361084)
(X_550  0.1558823585510254)
(X_551  0.15196079015731812)
(X_552  0.04411764815449715)
(X_553  0.036274511367082596)
(X_554  0.036274511367082596)
(X_555  0.04019607976078987)
(X_556  0.04411764815449715)
(X_557  0.04019607976078987)
(X_558  0.04019607976078987)
(X_559  0.036274511367082596)
(X_560  0.02450980618596077)
(X_561  0.12450980395078659)
(X_562  0.02450980618596077)
(X_563  0.02450980618596077)
(X_564  0.020588237792253494)
(X_565  0.020588237792253494)
(X_566  0.020588237792253494)
(X_567  0.020588237792253494)
(X_568  0.11666666716337204)
(X_569  0.020588237792253494)
(X_570  0.028431374579668045)
(X_571  0.036274511367082596)
(X_572  0.136274516582489)
(X_573  0.13235294818878174)
(X_574  0.028431374579668045)
(X_575  0.12450980395078659)
(X_576  0.11666666716337204)
(X_577  0.12058823555707932)
(X_578  0.12843137979507446)
(X_579  0.12843137979507446)
(X_580  0.12058823555707932)
(X_581  0.020588237792253494)
(X_582  0.020588237792253494)
(X_583  0.12843137979507446)
(X_584  0.01666666939854622)
(X_585  0.11666666716337204)
(X_586  0.01666666939854622)
(X_587  0.11666666716337204)
(X_588  0.03235294297337532)
(X_589  0.03235294297337532)
(X_590  0.028431374579668045)
(X_591  0.028431374579668045)
(X_592  0.02450980618596077)
(X_593  0.020588237792253494)
(X_594  0.020588237792253494)
(X_595  0.020588237792253494)
(X_596  0.012745101936161518)
(X_597  0.01666666939854622)
(X_598  0.02450980618596077)
(X_599  0.12843137979507446)
(X_600  0.13235294818878174)
(X_601  0.12843137979507446)
(X_602  0.12450980395078659)
(X_603  0.12058823555707932)
(X_604  0.10490196198225021)
(X_605  0.012745101936161518)
(X_606  0.11666666716337204)
(X_607  0.11666666716337204)
(X_608  0.11274509876966476)
(X_609  0.11274509876966476)
(X_610  0.01666666939854622)
(X_611  0.02450980618596077)
(X_612  0.012745101936161518)
(X_613  0.11274509876966476)
(X_614  0.11666666716337204)
(X_615  0.11666666716337204)
(X_616  0.13235294818878174)
(X_617  0.13235294818878174)
(X_618  0.12843137979507446)
(X_619  0.12450980395078659)
(X_620  0.020588237792253494)
(X_621  0.01666666939854622)
(X_622  0.01666666939854622)
(X_623  0.012745101936161518)
(X_624  0.11274509876966476)
(X_625  0.11666666716337204)
(X_626  0.12058823555707932)
(X_627  0.12450980395078659)
(X_628  0.02450980618596077)
(X_629  0.02450980618596077)
(X_630  0.02450980618596077)
(X_631  0.12058823555707932)
(X_632  0.004901961423456669)
(X_633  0.008823529817163944)
(X_634  0.11274509876966476)
(X_635  0.11274509876966476)
(X_636  0.10490196198225021)
(X_637  0.004901961423456669)
(X_638  0.11274509876966476)
(X_639  0.12058823555707932)
(X_640  0.12450980395078659)
(X_641  0.12450980395078659)
(X_642  0.12058823555707932)
(X_643  0.020588237792253494)
(X_644  0.12450980395078659)
(X_645  0.12058823555707932)
(X_646  0.020588237792253494)
(X_647  0.01666666939854622)
(X_648  0.008823529817163944)
(X_649  0.004901961423456669)
(X_650  0.10098039358854294)
(X_651  0.10098039358854294)
(X_652  0.10882353037595749)
(X_653  0.008823529817163944)
(X_654  0.008823529817163944)
(X_655  0.008823529817163944)
(X_656  0.11274509876966476)
(X_657  0.11274509876966476)
(X_658  0.11666666716337204)
(X_659  0.11666666716337204)
(X_660  0.10490196198225021)
(X_661  0.008823529817163944)
(X_662  0.012745101936161518)
(X_663  0.008823529817163944)
(X_664  0.004901961423456669)
(X_665  0.004901961423456669)
(X_666  0.012745101936161518)
(X_667  0.020588237792253494)
(X_668  0.01666666939854622)
(X_669  0.01666666939854622)
(X_670  0.11274509876966476)
(X_671  0.10882353037595749)
(X_672  0.020588237792253494)
(X_673  0.12058823555707932)
(X_674  0.020588237792253494)
(X_675  0.11666666716337204)
(X_676  0.11666666716337204)
(X_677  0.11666666716337204)
(X_678  0.11274509876966476)
(X_679  0.11274509876966476)
(X_680  0.11274509876966476)
(X_681  0.11274509876966476)
(X_682  0.11274509876966476)
(X_683  0.11274509876966476)
(X_684  0.11274509876966476)
(X_685  0.11274509876966476)
(X_686  0.11274509876966476)
(X_687  0.11274509876966476)
(X_688  0.11274509876966476)
(X_689  0.11274509876966476)
(X_690  0.11274509876966476)
(X_691  0.11274509876966476)
(X_692  0.11274509876966476)
(X_693  0.11274509876966476)
(X_694  0.11274509876966476)
(X_695  0.11274509876966476)
(X_696  0.11274509876966476)
(X_697  0.008823529817163944)
(X_698  0.004901961423456669)
(X_699  0.10882353037595749)
(X_700  0.01666666939854622)
(X_701  0.11666666716337204)
(X_702  0.01666666939854622)
(X_703  0.11274509876966476)
(X_704  0.11274509876966476)
(X_705  0.11274509876966476)
(X_706  0.10882353037595749)
(X_707  0.008823529817163944)
(X_708  0.008823529817163944)
(X_709  0.008823529817163944)
(X_710  0.008823529817163944)
(X_711  0.008823529817163944)
(X_712  0.008823529817163944)
(X_713  0.008823529817163944)
(X_714  0.10882353037595749)
(X_715  0.10882353037595749)
(X_716  0.008823529817163944)
(X_717  0.008823529817163944)
(X_718  0.008823529817163944)
(X_719  0.008823529817163944)
(X_720  0.008823529817163944)
(X_721  0.008823529817163944)
(X_722  0.008823529817163944)
(X_723  0.008823529817163944)
(X_724  0.012745101936161518)
(X_725  0.008823529817163944)
(X_726  0.004901961423456669)
(X_727  0.008823529817163944)
(X_728  0.11274509876966476)
(X_729  0.012745101936161518)
(X_730  0.008823529817163944)
(X_731  0.10882353037595749)
(X_732  0.10882353037595749)
(X_733  0.10490196198225021)
(X_734  0.10490196198225021)
(X_735  0.10490196198225021)
(X_736  0.004901961423456669)
(X_737  0.004901961423456669)
(X_738  0.004901961423456669)
(X_739  0.004901961423456669)
(X_740  0.004901961423456669)
(X_741  0.004901961423456669)
(X_742  0.004901961423456669)
(X_743  0.004901961423456669)
(X_744  0.004901961423456669)
(X_745  0.004901961423456669)
(X_746  0.004901961423456669)
(X_747  0.004901961423456669)
(X_748  0.004901961423456669)
(X_749  0.004901961423456669)
(X_750  0.10490196198225021)
(X_751  0.10490196198225021)
(X_752  0.11274509876966476)
(X_753  0.10490196198225021)
(X_754  0.10490196198225021)
(X_755  0.10882353037595749)
(X_756  0.004901961423456669)
(X_757  0.004901961423456669)
(X_758  0.004901961423456669)
(X_759  0.0009803927969187498)
(X_760  0.10098039358854294)
(X_761  0.10098039358854294)
(X_762  0.09705882519483566)
(X_763  0.09705882519483566)
(X_764  0.10098039358854294)
(X_765  0.10098039358854294)
(X_766  0.10098039358854294)
(X_767  0.10098039358854294)
(X_768  0.10098039358854294)
(X_769  0.10098039358854294)
(X_770  0.10098039358854294)
(X_771  0.10098039358854294)
(X_772  0.10098039358854294)
(X_773  0.0009803927969187498)
(X_774  0.0009803927969187498)
(X_775  0.0009803927969187498)
(X_776  0.0009803927969187498)
(X_777  0.0009803927969187498)
(X_778  0.0009803927969187498)
(X_779  0.10098039358854294)
(X_780  0.10882353037595749)
(X_781  0.004901961423456669)
(X_782  0.0009803927969187498)
(X_783  0.004901961423456669)
(Y_0 26.60877227783203)
(Y_1 7.995055675506592)
(Y_2 7.404536724090576)
(Y_3 -42.10438537597656))