((X_0  0.17549020051956177)
(X_1  0.06372549384832382)
(X_2  0.05588235333561897)
(X_3  0.15980392694473267)
(X_4  0.1715686321258545)
(X_5  0.17941176891326904)
(X_6  0.17549020051956177)
(X_7  0.0676470622420311)
(X_8  0.07549020648002625)
(X_9  0.0676470622420311)
(X_10  0.15980392694473267)
(X_11  0.0519607849419117)
(X_12  0.05588235333561897)
(X_13  0.16764706373214722)
(X_14  0.17941176891326904)
(X_15  0.08725491166114807)
(X_16  0.08725491166114807)
(X_17  0.0833333432674408)
(X_18  0.0833333432674408)
(X_19  0.07941177487373352)
(X_20  0.07941177487373352)
(X_21  0.17941176891326904)
(X_22  0.07549020648002625)
(X_23  0.07549020648002625)
(X_24  0.1872549057006836)
(X_25  0.19901961088180542)
(X_26  0.2186274528503418)
(X_27  0.23823529481887817)
(X_28  0.16372549533843994)
(X_29  0.1558823585510254)
(X_30  0.04803921654820442)
(X_31  0.04803921654820442)
(X_32  0.05588235333561897)
(X_33  0.05980392172932625)
(X_34  0.0519607849419117)
(X_35  0.14411765336990356)
(X_36  0.04019607976078987)
(X_37  0.04411764815449715)
(X_38  0.15196079015731812)
(X_39  0.05588235333561897)
(X_40  0.06372549384832382)
(X_41  0.07549020648002625)
(X_42  0.09117648005485535)
(X_43  0.0990196168422699)
(X_44  0.0833333432674408)
(X_45  0.0833333432674408)
(X_46  0.18333333730697632)
(X_47  0.08725491166114807)
(X_48  0.18333333730697632)
(X_49  0.0833333432674408)
(X_50  0.07941177487373352)
(X_51  0.07941177487373352)
(X_52  0.17549020051956177)
(X_53  0.18333333730697632)
(X_54  0.19509804248809814)
(X_55  0.2029411792755127)
(X_56  0.17549020051956177)
(X_57  0.07156863063573837)
(X_58  0.0676470622420311)
(X_59  0.07156863063573837)
(X_60  0.07941177487373352)
(X_61  0.07941177487373352)
(X_62  0.07156863063573837)
(X_63  0.16764706373214722)
(X_64  0.14803922176361084)
(X_65  0.05980392172932625)
(X_66  0.07156863063573837)
(X_67  0.0676470622420311)
(X_68  0.05588235333561897)
(X_69  0.0519607849419117)
(X_70  0.05588235333561897)
(X_71  0.06372549384832382)
(X_72  0.05588235333561897)
(X_73  0.05980392172932625)
(X_74  0.0676470622420311)
(X_75  0.1715686321258545)
(X_76  0.1715686321258545)
(X_77  0.16764706373214722)
(X_78  0.16372549533843994)
(X_79  0.15980392694473267)
(X_80  0.16764706373214722)
(X_81  0.1715686321258545)
(X_82  0.17549020051956177)
(X_83  0.17549020051956177)
(X_84  0.14803922176361084)
(X_85  0.15196079015731812)
(X_86  0.05588235333561897)
(X_87  0.15980392694473267)
(X_88  0.16372549533843994)
(X_89  0.16372549533843994)
(X_90  0.05980392172932625)
(X_91  0.1558823585510254)
(X_92  0.15980392694473267)
(X_93  0.07156863063573837)
(X_94  0.07941177487373352)
(X_95  0.07156863063573837)
(X_96  0.0519607849419117)
(X_97  0.04019607976078987)
(X_98  0.14803922176361084)
(X_99  0.1558823585510254)
(X_100  0.14803922176361084)
(X_101  0.15196079015731812)
(X_102  0.15980392694473267)
(X_103  0.16372549533843994)
(X_104  0.16764706373214722)
(X_105  0.06372549384832382)
(X_106  0.05588235333561897)
(X_107  0.0519607849419117)
(X_108  0.17549020051956177)
(X_109  0.1715686321258545)
(X_110  0.0676470622420311)
(X_111  0.16372549533843994)
(X_112  0.06372549384832382)
(X_113  0.0676470622420311)
(X_114  0.07156863063573837)
(X_115  0.1715686321258545)
(X_116  0.16764706373214722)
(X_117  0.16764706373214722)
(X_118  0.0676470622420311)
(X_119  0.16764706373214722)
(X_120  0.136274516582489)
(X_121  0.14803922176361084)
(X_122  0.1558823585510254)
(X_123  0.1558823585510254)
(X_124  0.0519607849419117)
(X_125  0.0519607849419117)
(X_126  0.06372549384832382)
(X_127  0.07549020648002625)
(X_128  0.1558823585510254)
(X_129  0.1558823585510254)
(X_130  0.16372549533843994)
(X_131  0.16764706373214722)
(X_132  0.16764706373214722)
(X_133  0.16372549533843994)
(X_134  0.05980392172932625)
(X_135  0.1558823585510254)
(X_136  0.07156863063573837)
(X_137  0.0676470622420311)
(X_138  0.16372549533843994)
(X_139  0.16372549533843994)
(X_140  0.15980392694473267)
(X_141  0.16372549533843994)
(X_142  0.16372549533843994)
(X_143  0.16372549533843994)
(X_144  0.05980392172932625)
(X_145  0.05980392172932625)
(X_146  0.0676470622420311)
(X_147  0.17941176891326904)
(X_148  0.1715686321258545)
(X_149  0.1715686321258545)
(X_150  0.16764706373214722)
(X_151  0.16764706373214722)
(X_152  0.16372549533843994)
(X_153  0.1558823585510254)
(X_154  0.14411765336990356)
(X_155  0.1401960849761963)
(X_156  0.0519607849419117)
(X_157  0.04803921654820442)
(X_158  0.04803921654820442)
(X_159  0.14411765336990356)
(X_160  0.04411764815449715)
(X_161  0.04411764815449715)
(X_162  0.04019607976078987)
(X_163  0.1401960849761963)
(X_164  0.05588235333561897)
(X_165  0.05588235333561897)
(X_166  0.05588235333561897)
(X_167  0.1558823585510254)
(X_168  0.028431374579668045)
(X_169  0.036274511367082596)
(X_170  0.04803921654820442)
(X_171  0.1558823585510254)
(X_172  0.16764706373214722)
(X_173  0.1872549057006836)
(X_174  0.21470588445663452)
(X_175  0.23823529481887817)
(X_176  0.30490198731422424)
(X_177  0.2970588207244873)
(X_178  0.28921568393707275)
(X_179  0.2852941155433655)
(X_180  0.27352941036224365)
(X_181  0.24215686321258545)
(X_182  0.19901961088180542)
(X_183  0.15980392694473267)
(X_184  0.16372549533843994)
(X_185  0.1558823585510254)
(X_186  0.14803922176361084)
(X_187  0.136274516582489)
(X_188  0.13235294818878174)
(X_189  0.03235294297337532)
(X_190  0.036274511367082596)
(X_191  0.1401960849761963)
(X_192  0.15196079015731812)
(X_193  0.1558823585510254)
(X_194  0.1558823585510254)
(X_195  0.05588235333561897)
(X_196  0.114705890417099)
(X_197  0.1303921639919281)
(X_198  0.2539215683937073)
(X_199  0.2774509787559509)
(X_200  0.3088235557079315)
(X_201  0.35196080803871155)
(X_202  0.39901962876319885)
(X_203  0.43431374430656433)
(X_204  0.43039217591285706)
(X_205  0.32647058367729187)
(X_206  0.32647058367729187)
(X_207  0.4382353127002716)
(X_208  0.4382353127002716)
(X_209  0.3029411733150482)
(X_210  0.23627452552318573)
(X_211  0.18529412150382996)
(X_212  0.2029411792755127)
(X_213  0.19117647409439087)
(X_214  0.17549020051956177)
(X_215  0.16372549533843994)
(X_216  0.1558823585510254)
(X_217  0.15980392694473267)
(X_218  0.16372549533843994)
(X_219  0.1715686321258545)
(X_220  0.05980392172932625)
(X_221  0.05980392172932625)
(X_222  0.06372549384832382)
(X_223  0.16372549533843994)
(X_224  0.2911764681339264)
(X_225  0.3186274468898773)
(X_226  0.2911764681339264)
(X_227  0.29509803652763367)
(X_228  0.3499999940395355)
(X_229  0.4225490391254425)
(X_230  0.2872548997402191)
(X_231  0.3343137204647064)
(X_232  0.3598039448261261)
(X_233  0.2872548997402191)
(X_234  0.29509803652763367)
(X_235  0.27941176295280457)
(X_236  0.29509803652763367)
(X_237  0.3225490152835846)
(X_238  0.29901960492134094)
(X_239  0.24803923070430756)
(X_240  0.27156862616539)
(X_241  0.4225490391254425)
(X_242  0.35196080803871155)
(X_243  0.24607843160629272)
(X_244  0.2186274528503418)
(X_245  0.18333333730697632)
(X_246  0.04019607976078987)
(X_247  0.06372549384832382)
(X_248  0.0519607849419117)
(X_249  0.0519607849419117)
(X_250  0.04803921654820442)
(X_251  0.14803922176361084)
(X_252  0.3068627417087555)
(X_253  0.33039215207099915)
(X_254  0.3186274468898773)
(X_255  0.2911764681339264)
(X_256  0.38333335518836975)
(X_257  0.3637255132198334)
(X_258  0.3480392396450043)
(X_259  0.3715686500072479)
(X_260  0.4362744987010956)
(X_261  0.44019606709480286)
(X_262  0.5284313559532166)
(X_263  0.4166666567325592)
(X_264  0.4323529303073883)
(X_265  0.42843136191368103)
(X_266  0.45000001788139343)
(X_267  0.25196078419685364)
(X_268  0.2245098203420639)
(X_269  0.29509803652763367)
(X_270  0.3343137204647064)
(X_271  0.34607842564582825)
(X_272  0.3499999940395355)
(X_273  0.29509803652763367)
(X_274  0.21666668355464935)
(X_275  0.2774509787559509)
(X_276  0.19117647409439087)
(X_277  0.1872549057006836)
(X_278  0.0833333432674408)
(X_279  0.07549020648002625)
(X_280  0.24411766231060028)
(X_281  0.26764705777168274)
(X_282  0.3029411733150482)
(X_283  0.29509803652763367)
(X_284  0.2754901945590973)
(X_285  0.4107843339443207)
(X_286  0.44607844948768616)
(X_287  0.43039217591285706)
(X_288  0.24411766231060028)
(X_289  0.27941176295280457)
(X_290  0.3186274468898773)
(X_291  0.3539215624332428)
(X_292  0.4049019515514374)
(X_293  0.4480392038822174)
(X_294  0.4362744987010956)
(X_295  0.39313724637031555)
(X_296  0.31078431010246277)
(X_297  0.2598039209842682)
(X_298  0.344117671251297)
(X_299  0.3637255132198334)
(X_300  0.3715686500072479)
(X_301  0.39901962876319885)
(X_302  0.4264706075191498)
(X_303  0.32647058367729187)
(X_304  0.31078431010246277)
(X_305  0.4068627655506134)
(X_306  0.3029411733150482)
(X_307  0.29901960492134094)
(X_308  0.38333335518836975)
(X_309  0.36764708161354065)
(X_310  0.38333335518836975)
(X_311  0.3598039448261261)
(X_312  0.22058825194835663)
(X_313  0.2598039209842682)
(X_314  0.26372548937797546)
(X_315  0.15784314274787903)
(X_316  0.0676470622420311)
(X_317  0.23039215803146362)
(X_318  0.2813725471496582)
(X_319  0.2813725471496582)
(X_320  0.2852941155433655)
(X_321  0.23235295712947845)
(X_322  0.31078431010246277)
(X_323  0.36176469922065735)
(X_324  0.41862747073173523)
(X_325  0.21666668355464935)
(X_326  0.31666669249534607)
(X_327  0.3715686500072479)
(X_328  0.3715686500072479)
(X_329  0.39901962876319885)
(X_330  0.3343137204647064)
(X_331  0.31078431010246277)
(X_332  0.4068627655506134)
(X_333  0.4068627655506134)
(X_334  0.31078431010246277)
(X_335  0.31078431010246277)
(X_336  0.16960784792900085)
(X_337  0.22647058963775635)
(X_338  0.24215686321258545)
(X_339  0.2617647051811218)
(X_340  0.2774509787559509)
(X_341  0.344117671251297)
(X_342  0.32058826088905334)
(X_343  0.07941177487373352)
(X_344  0.06372549384832382)
(X_345  0.10294118523597717)
(X_346  0.12254902720451355)
(X_347  0.09117648005485535)
(X_348  0.05980392172932625)
(X_349  0.09117648005485535)
(X_350  0.16568627953529358)
(X_351  0.3284313976764679)
(X_352  0.3598039448261261)
(X_353  0.2656862735748291)
(X_354  0.2813725471496582)
(X_355  0.344117671251297)
(X_356  0.3401961028575897)
(X_357  0.3598039448261261)
(X_358  0.38333335518836975)
(X_359  0.3480392396450043)
(X_360  0.3715686500072479)
(X_361  0.3754902184009552)
(X_362  0.28333333134651184)
(X_363  0.2872548997402191)
(X_364  0.29901960492134094)
(X_365  0.24803923070430756)
(X_366  0.30490198731422424)
(X_367  0.2852941155433655)
(X_368  0.2852941155433655)
(X_369  0.2813725471496582)
(X_370  0.19901961088180542)
(X_371  -0.030392156913876534)
(X_372  0.03235294297337532)
(X_373  0.028431374579668045)
(X_374  0.028431374579668045)
(X_375  0.04019607976078987)
(X_376  0.0676470622420311)
(X_377  0.10294118523597717)
(X_378  0.1303921639919281)
(X_379  0.24215686321258545)
(X_380  0.25196078419685364)
(X_381  0.16960784792900085)
(X_382  0.21078431606292725)
(X_383  0.09509804844856262)
(X_384  0.09117648005485535)
(X_385  0.2343137264251709)
(X_386  0.29313725233078003)
(X_387  0.3088235557079315)
(X_388  0.30098041892051697)
(X_389  0.30490198731422424)
(X_390  0.3127451241016388)
(X_391  0.31666669249534607)
(X_392  0.30098041892051697)
(X_393  0.3088235557079315)
(X_394  0.2852941155433655)
(X_395  0.2813725471496582)
(X_396  0.30098041892051697)
(X_397  0.2852941155433655)
(X_398  0.23823529481887817)
(X_399  0.12254902720451355)
(X_400  0.18333333730697632)
(X_401  0.1558823585510254)
(X_402  0.136274516582489)
(X_403  0.14803922176361084)
(X_404  0.1715686321258545)
(X_405  0.17941176891326904)
(X_406  0.16764706373214722)
(X_407  0.05588235333561897)
(X_408  0.18921568989753723)
(X_409  0.21274511516094208)
(X_410  0.19705882668495178)
(X_411  0.17352941632270813)
(X_412  0.18529412150382996)
(X_413  0.28921568393707275)
(X_414  0.2813725471496582)
(X_415  0.29313725233078003)
(X_416  0.2558823525905609)
(X_417  0.26372548937797546)
(X_418  0.2754901945590973)
(X_419  0.28333333134651184)
(X_420  0.0833333432674408)
(X_421  0.13431373238563538)
(X_422  0.22254902124404907)
(X_423  0.10686275362968445)
(X_424  0.11862745881080627)
(X_425  0.07156863063573837)
(X_426  0.05980392172932625)
(X_427  0.23823529481887817)
(X_428  0.24215686321258545)
(X_429  0.1303921639919281)
(X_430  0.11862745881080627)
(X_431  0.10294118523597717)
(X_432  0.08725491166114807)
(X_433  0.17941176891326904)
(X_434  0.19117647409439087)
(X_435  0.21078431606292725)
(X_436  0.12647059559822083)
(X_437  0.3284313976764679)
(X_438  0.3401961028575897)
(X_439  0.32058826088905334)
(X_440  0.3637255132198334)
(X_441  0.3754902184009552)
(X_442  0.3558823764324188)
(X_443  0.28333333134651184)
(X_444  0.31078431010246277)
(X_445  0.3225490152835846)
(X_446  0.3382352888584137)
(X_447  0.457843154668808)
(X_448  0.15196079015731812)
(X_449  0.15196079015731812)
(X_450  0.1558823585510254)
(X_451  0.1558823585510254)
(X_452  0.15980392694473267)
(X_453  0.05980392172932625)
(X_454  0.15980392694473267)
(X_455  0.15980392694473267)
(X_456  0.18333333730697632)
(X_457  0.17941176891326904)
(X_458  0.17549020051956177)
(X_459  0.07156863063573837)
(X_460  0.1715686321258545)
(X_461  0.17549020051956177)
(X_462  0.17941176891326904)
(X_463  0.18333333730697632)
(X_464  0.0833333432674408)
(X_465  0.11078432202339172)
(X_466  0.2343137264251709)
(X_467  0.2343137264251709)
(X_468  0.2186274528503418)
(X_469  0.22254902124404907)
(X_470  0.25784313678741455)
(X_471  0.2970588207244873)
(X_472  0.2970588207244873)
(X_473  0.2970588207244873)
(X_474  0.30098041892051697)
(X_475  0.30490198731422424)
(X_476  0.04411764815449715)
(X_477  0.04411764815449715)
(X_478  0.14411765336990356)
(X_479  0.14411765336990356)
(X_480  0.04803921654820442)
(X_481  0.04803921654820442)
(X_482  0.0519607849419117)
(X_483  0.0519607849419117)
(X_484  0.14411765336990356)
(X_485  0.14411765336990356)
(X_486  0.1401960849761963)
(X_487  0.036274511367082596)
(X_488  0.036274511367082596)
(X_489  0.04019607976078987)
(X_490  0.04411764815449715)
(X_491  0.04411764815449715)
(X_492  0.05588235333561897)
(X_493  0.07549020648002625)
(X_494  0.08725491166114807)
(X_495  0.0833333432674408)
(X_496  0.16372549533843994)
(X_497  0.15980392694473267)
(X_498  0.17941176891326904)
(X_499  0.19901961088180542)
(X_500  0.19509804248809814)
(X_501  0.0990196168422699)
(X_502  0.10294118523597717)
(X_503  0.20686274766921997)
(X_504  0.12843137979507446)
(X_505  0.028431374579668045)
(X_506  0.03235294297337532)
(X_507  0.03235294297337532)
(X_508  0.03235294297337532)
(X_509  0.036274511367082596)
(X_510  0.036274511367082596)
(X_511  0.136274516582489)
(X_512  0.036274511367082596)
(X_513  0.03235294297337532)
(X_514  0.13235294818878174)
(X_515  0.12843137979507446)
(X_516  0.028431374579668045)
(X_517  0.03235294297337532)
(X_518  0.03235294297337532)
(X_519  0.036274511367082596)
(X_520  0.04411764815449715)
(X_521  0.04803921654820442)
(X_522  0.05588235333561897)
(X_523  0.0519607849419117)
(X_524  0.04019607976078987)
(X_525  0.03235294297337532)
(X_526  0.136274516582489)
(X_527  0.1401960849761963)
(X_528  0.036274511367082596)
(X_529  0.036274511367082596)
(X_530  0.04019607976078987)
(X_531  0.04411764815449715)
(X_532  0.12058823555707932)
(X_533  0.12058823555707932)
(X_534  0.12450980395078659)
(X_535  0.12450980395078659)
(X_536  0.02450980618596077)
(X_537  0.028431374579668045)
(X_538  0.028431374579668045)
(X_539  0.12843137979507446)
(X_540  0.04019607976078987)
(X_541  0.1401960849761963)
(X_542  0.136274516582489)
(X_543  0.036274511367082596)
(X_544  0.036274511367082596)
(X_545  0.036274511367082596)
(X_546  0.04019607976078987)
(X_547  0.04019607976078987)
(X_548  0.12450980395078659)
(X_549  0.12450980395078659)
(X_550  0.12843137979507446)
(X_551  0.136274516582489)
(X_552  0.14411765336990356)
(X_553  0.14411765336990356)
(X_554  0.136274516582489)
(X_555  0.028431374579668045)
(X_556  0.13235294818878174)
(X_557  0.036274511367082596)
(X_558  0.04019607976078987)
(X_559  0.14411765336990356)
(X_560  0.11666666716337204)
(X_561  0.12058823555707932)
(X_562  0.12058823555707932)
(X_563  0.12058823555707932)
(X_564  0.12450980395078659)
(X_565  0.12450980395078659)
(X_566  0.12450980395078659)
(X_567  0.12843137979507446)
(X_568  0.02450980618596077)
(X_569  0.12450980395078659)
(X_570  0.12450980395078659)
(X_571  0.12843137979507446)
(X_572  0.028431374579668045)
(X_573  0.02450980618596077)
(X_574  0.02450980618596077)
(X_575  0.02450980618596077)
(X_576  0.004901961423456669)
(X_577  0.004901961423456669)
(X_578  0.10490196198225021)
(X_579  0.11666666716337204)
(X_580  0.13235294818878174)
(X_581  0.136274516582489)
(X_582  0.12843137979507446)
(X_583  0.12058823555707932)
(X_584  0.12450980395078659)
(X_585  0.028431374579668045)
(X_586  0.03235294297337532)
(X_587  0.036274511367082596)
(X_588  0.01666666939854622)
(X_589  0.01666666939854622)
(X_590  0.01666666939854622)
(X_591  0.12058823555707932)
(X_592  0.12058823555707932)
(X_593  0.12058823555707932)
(X_594  0.12450980395078659)
(X_595  0.12450980395078659)
(X_596  0.11666666716337204)
(X_597  0.12058823555707932)
(X_598  0.020588237792253494)
(X_599  0.02450980618596077)
(X_600  0.02450980618596077)
(X_601  0.020588237792253494)
(X_602  0.020588237792253494)
(X_603  0.01666666939854622)
(X_604  0.01666666939854622)
(X_605  0.11274509876966476)
(X_606  0.11274509876966476)
(X_607  0.11666666716337204)
(X_608  0.12450980395078659)
(X_609  0.12450980395078659)
(X_610  0.12058823555707932)
(X_611  0.11666666716337204)
(X_612  0.012745101936161518)
(X_613  0.01666666939854622)
(X_614  0.020588237792253494)
(X_615  0.12450980395078659)
(X_616  0.10882353037595749)
(X_617  0.008823529817163944)
(X_618  0.012745101936161518)
(X_619  0.012745101936161518)
(X_620  0.01666666939854622)
(X_621  0.11666666716337204)
(X_622  0.11666666716337204)
(X_623  0.11666666716337204)
(X_624  0.11274509876966476)
(X_625  0.11666666716337204)
(X_626  0.12058823555707932)
(X_627  0.12450980395078659)
(X_628  0.02450980618596077)
(X_629  0.020588237792253494)
(X_630  0.01666666939854622)
(X_631  0.012745101936161518)
(X_632  0.02450980618596077)
(X_633  0.02450980618596077)
(X_634  0.02450980618596077)
(X_635  0.020588237792253494)
(X_636  0.01666666939854622)
(X_637  0.12058823555707932)
(X_638  0.12450980395078659)
(X_639  0.12450980395078659)
(X_640  0.11274509876966476)
(X_641  0.01666666939854622)
(X_642  0.12058823555707932)
(X_643  0.12058823555707932)
(X_644  0.004901961423456669)
(X_645  0.004901961423456669)
(X_646  0.004901961423456669)
(X_647  0.10882353037595749)
(X_648  0.10882353037595749)
(X_649  0.008823529817163944)
(X_650  0.012745101936161518)
(X_651  0.012745101936161518)
(X_652  0.09705882519483566)
(X_653  0.10098039358854294)
(X_654  0.004901961423456669)
(X_655  0.008823529817163944)
(X_656  0.008823529817163944)
(X_657  0.004901961423456669)
(X_658  0.0009803927969187498)
(X_659  -0.0029411755967885256)
(X_660  0.10098039358854294)
(X_661  0.10490196198225021)
(X_662  0.10882353037595749)
(X_663  0.10490196198225021)
(X_664  0.0009803927969187498)
(X_665  0.004901961423456669)
(X_666  0.01666666939854622)
(X_667  0.03235294297337532)
(X_668  0.008823529817163944)
(X_669  0.008823529817163944)
(X_670  0.012745101936161518)
(X_671  0.01666666939854622)
(X_672  0.10098039358854294)
(X_673  0.0009803927969187498)
(X_674  0.004901961423456669)
(X_675  0.012745101936161518)
(X_676  0.020588237792253494)
(X_677  0.12058823555707932)
(X_678  0.11274509876966476)
(X_679  0.10490196198225021)
(X_680  0.012745101936161518)
(X_681  0.10882353037595749)
(X_682  0.10882353037595749)
(X_683  0.10490196198225021)
(X_684  0.10098039358854294)
(X_685  0.10098039358854294)
(X_686  -0.0029411755967885256)
(X_687  -0.006862743757665157)
(X_688  0.10490196198225021)
(X_689  0.10490196198225021)
(X_690  0.0009803927969187498)
(X_691  0.09705882519483566)
(X_692  0.09313725680112839)
(X_693  0.09313725680112839)
(X_694  0.0009803927969187498)
(X_695  0.008823529817163944)
(X_696  0.012745101936161518)
(X_697  0.012745101936161518)
(X_698  0.11274509876966476)
(X_699  0.11274509876966476)
(X_700  0.004901961423456669)
(X_701  -0.0029411755967885256)
(X_702  -0.010784312151372433)
(X_703  -0.010784312151372433)
(X_704  -0.006862743757665157)
(X_705  -0.0029411755967885256)
(X_706  -0.0029411755967885256)
(X_707  -0.006862743757665157)
(X_708  0.004901961423456669)
(X_709  0.004901961423456669)
(X_710  0.10882353037595749)
(X_711  0.11666666716337204)
(X_712  0.12450980395078659)
(X_713  0.13235294818878174)
(X_714  0.03235294297337532)
(X_715  0.03235294297337532)
(X_716  0.10098039358854294)
(X_717  0.0009803927969187498)
(X_718  0.0009803927969187498)
(X_719  0.0009803927969187498)
(X_720  0.10490196198225021)
(X_721  0.11274509876966476)
(X_722  0.12843137979507446)
(X_723  0.136274516582489)
(X_724  0.10490196198225021)
(X_725  0.10490196198225021)
(X_726  0.10490196198225021)
(X_727  0.10490196198225021)
(X_728  0.6735294461250305)
(X_729  0.5343137383460999)
(X_730  0.46764707565307617)
(X_731  0.49313727021217346)
(X_732  0.41862747073173523)
(X_733  0.35196080803871155)
(X_734  0.2970588207244873)
(X_735  0.2656862735748291)
(X_736  0.19117647409439087)
(X_737  0.17941176891326904)
(X_738  0.15980392694473267)
(X_739  0.1401960849761963)
(X_740  0.12058823555707932)
(X_741  0.10098039358854294)
(X_742  0.07352941483259201)
(X_743  0.05784313753247261)
(X_744  0.020588237792253494)
(X_745  0.012745101936161518)
(X_746  -0.0029411755967885256)
(X_747  -0.014705880545079708)
(X_748  0.08137255162000656)
(X_749  0.07745098322629929)
(X_750  -0.018627449870109558)
(X_751  -0.014705880545079708)
(X_752  0.09705882519483566)
(X_753  -0.0029411755967885256)
(X_754  -0.0029411755967885256)
(X_755  -0.0029411755967885256)
(X_756  1.0460784435272217)
(X_757  0.9343137145042419)
(X_758  0.9186274409294128)
(X_759  0.906862735748291)
(X_760  0.8950980305671692)
(X_761  0.979411780834198)
(X_762  0.9598039388656616)
(X_763  0.9480392336845398)
(X_764  0.8852941393852234)
(X_765  0.8539215922355652)
(X_766  0.7029411792755127)
(X_767  0.6480392217636108)
(X_768  0.5892156958580017)
(X_769  0.5303921699523926)
(X_770  0.47156864404678345)
(X_771  0.4323529303073883)
(X_772  0.2754901945590973)
(X_773  0.24803923070430756)
(X_774  0.20490197837352753)
(X_775  0.16568627953529358)
(X_776  0.12647059559822083)
(X_777  0.0990196168422699)
(X_778  0.07549020648002625)
(X_779  0.06372549384832382)
(X_780  -0.006862743757665157)
(X_781  -0.006862743757665157)
(X_782  -0.006862743757665157)
(X_783  -0.006862743757665157)
(Y_0 -36.70781707763672)
(Y_1 59.48846435546875)
(Y_2 -33.45673370361328)
(Y_3 12.493391036987305))