((X_0  1.0499999523162842)
(X_1  0.949999988079071)
(X_2  1.0499999523162842)
(X_3  1.0499999523162842)
(X_4  1.0499999523162842)
(X_5  0.949999988079071)
(X_6  0.949999988079071)
(X_7  0.949999988079071)
(X_8  0.949999988079071)
(X_9  1.0499999523162842)
(X_10  1.0499999523162842)
(X_11  1.0499999523162842)
(X_12  0.949999988079071)
(X_13  0.9460784196853638)
(X_14  1.0421568155288696)
(X_15  1.0421568155288696)
(X_16  0.949999988079071)
(X_17  0.949999988079071)
(X_18  0.949999988079071)
(X_19  0.9460784196853638)
(X_20  1.0421568155288696)
(X_21  1.0382353067398071)
(X_22  1.0382353067398071)
(X_23  0.9382352828979492)
(X_24  1.0421568155288696)
(X_25  1.0460784435272217)
(X_26  1.0460784435272217)
(X_27  1.0460784435272217)
(X_28  1.0499999523162842)
(X_29  1.0499999523162842)
(X_30  1.0499999523162842)
(X_31  0.949999988079071)
(X_32  0.949999988079071)
(X_33  0.949999988079071)
(X_34  1.0499999523162842)
(X_35  1.0499999523162842)
(X_36  1.034313678741455)
(X_37  0.9343137145042419)
(X_38  0.9382352828979492)
(X_39  0.9382352828979492)
(X_40  0.9382352828979492)
(X_41  0.9382352828979492)
(X_42  1.0421568155288696)
(X_43  0.9421568512916565)
(X_44  1.0499999523162842)
(X_45  0.949999988079071)
(X_46  0.949999988079071)
(X_47  0.949999988079071)
(X_48  0.949999988079071)
(X_49  0.949999988079071)
(X_50  0.949999988079071)
(X_51  0.949999988079071)
(X_52  1.0499999523162842)
(X_53  1.0499999523162842)
(X_54  0.949999988079071)
(X_55  1.0499999523162842)
(X_56  0.949999988079071)
(X_57  0.949999988079071)
(X_58  0.949999988079071)
(X_59  0.949999988079071)
(X_60  0.949999988079071)
(X_61  0.949999988079071)
(X_62  0.949999988079071)
(X_63  0.949999988079071)
(X_64  0.949999988079071)
(X_65  0.949999988079071)
(X_66  0.949999988079071)
(X_67  0.949999988079071)
(X_68  1.0499999523162842)
(X_69  0.949999988079071)
(X_70  0.949999988079071)
(X_71  1.0499999523162842)
(X_72  0.9460784196853638)
(X_73  0.9460784196853638)
(X_74  0.9421568512916565)
(X_75  0.9421568512916565)
(X_76  1.0421568155288696)
(X_77  1.0382353067398071)
(X_78  0.9382352828979492)
(X_79  0.9382352828979492)
(X_80  1.0460784435272217)
(X_81  0.9460784196853638)
(X_82  0.9460784196853638)
(X_83  1.0460784435272217)
(X_84  1.0499999523162842)
(X_85  1.0499999523162842)
(X_86  1.0499999523162842)
(X_87  1.0499999523162842)
(X_88  0.949999988079071)
(X_89  0.949999988079071)
(X_90  0.9460784196853638)
(X_91  0.9460784196853638)
(X_92  0.9460784196853638)
(X_93  0.9460784196853638)
(X_94  0.9460784196853638)
(X_95  0.9460784196853638)
(X_96  1.0421568155288696)
(X_97  1.0421568155288696)
(X_98  1.0421568155288696)
(X_99  1.0421568155288696)
(X_100  1.0499999523162842)
(X_101  1.0499999523162842)
(X_102  1.0499999523162842)
(X_103  0.949999988079071)
(X_104  0.949999988079071)
(X_105  0.949999988079071)
(X_106  0.949999988079071)
(X_107  0.949999988079071)
(X_108  0.949999988079071)
(X_109  0.949999988079071)
(X_110  0.949999988079071)
(X_111  1.0499999523162842)
(X_112  0.9421568512916565)
(X_113  0.9460784196853638)
(X_114  1.0499999523162842)
(X_115  0.949999988079071)
(X_116  0.949999988079071)
(X_117  0.949999988079071)
(X_118  0.949999988079071)
(X_119  1.0499999523162842)
(X_120  0.9460784196853638)
(X_121  0.9460784196853638)
(X_122  0.949999988079071)
(X_123  1.0499999523162842)
(X_124  0.949999988079071)
(X_125  0.949999988079071)
(X_126  0.949999988079071)
(X_127  1.0499999523162842)
(X_128  1.0382353067398071)
(X_129  1.0421568155288696)
(X_130  1.0421568155288696)
(X_131  1.0421568155288696)
(X_132  1.0460784435272217)
(X_133  1.0460784435272217)
(X_134  1.0460784435272217)
(X_135  1.0460784435272217)
(X_136  0.9382352828979492)
(X_137  0.9382352828979492)
(X_138  0.9382352828979492)
(X_139  1.0382353067398071)
(X_140  0.6460784673690796)
(X_141  0.6539216041564941)
(X_142  0.5656862854957581)
(X_143  0.5813725590705872)
(X_144  0.5970588326454163)
(X_145  0.6127451062202454)
(X_146  0.6245098114013672)
(X_147  0.7323529720306396)
(X_148  0.8107843399047852)
(X_149  0.8147059082984924)
(X_150  0.822549045085907)
(X_151  0.7303921580314636)
(X_152  0.7421568632125854)
(X_153  0.75)
(X_154  0.8578431606292725)
(X_155  0.8617647290229797)
(X_156  0.8009803891181946)
(X_157  0.8049019575119019)
(X_158  0.9127451181411743)
(X_159  0.9205882549285889)
(X_160  0.9323529601097107)
(X_161  0.8401960730552673)
(X_162  0.8480392098426819)
(X_163  0.8519607782363892)
(X_164  0.8519607782363892)
(X_165  0.8519607782363892)
(X_166  0.8519607782363892)
(X_167  0.9558823704719543)
(X_168  0.1401960849761963)
(X_169  0.14411765336990356)
(X_170  0.14803922176361084)
(X_171  0.15980392694473267)
(X_172  0.1715686321258545)
(X_173  0.17941176891326904)
(X_174  0.1872549057006836)
(X_175  0.09117648005485535)
(X_176  0.1715686321258545)
(X_177  0.17549020051956177)
(X_178  0.17941176891326904)
(X_179  0.0833333432674408)
(X_180  0.09117648005485535)
(X_181  0.09509804844856262)
(X_182  0.0990196168422699)
(X_183  0.10294118523597717)
(X_184  0.21078431606292725)
(X_185  0.21470588445663452)
(X_186  0.22254902124404907)
(X_187  0.23039215803146362)
(X_188  0.23823529481887817)
(X_189  0.24607843160629272)
(X_190  0.2539215683937073)
(X_191  0.25784313678741455)
(X_192  0.2696078419685364)
(X_193  0.17352941632270813)
(X_194  0.1774509847164154)
(X_195  0.18137255311012268)
(X_196  0.0519607849419117)
(X_197  0.15196079015731812)
(X_198  0.04803921654820442)
(X_199  0.04411764815449715)
(X_200  0.04019607976078987)
(X_201  0.036274511367082596)
(X_202  0.036274511367082596)
(X_203  0.036274511367082596)
(X_204  0.05980392172932625)
(X_205  0.15980392694473267)
(X_206  0.1558823585510254)
(X_207  0.15196079015731812)
(X_208  0.04803921654820442)
(X_209  0.04411764815449715)
(X_210  0.04019607976078987)
(X_211  0.04019607976078987)
(X_212  0.14411765336990356)
(X_213  0.14411765336990356)
(X_214  0.04411764815449715)
(X_215  0.04411764815449715)
(X_216  0.04411764815449715)
(X_217  0.04411764815449715)
(X_218  0.14411765336990356)
(X_219  0.14411765336990356)
(X_220  0.14803922176361084)
(X_221  0.15196079015731812)
(X_222  0.1558823585510254)
(X_223  0.15980392694473267)
(X_224  0.06372549384832382)
(X_225  0.036274511367082596)
(X_226  0.12450980395078659)
(X_227  0.14411765336990356)
(X_228  0.1558823585510254)
(X_229  0.04803921654820442)
(X_230  0.04803921654820442)
(X_231  0.05980392172932625)
(X_232  0.15196079015731812)
(X_233  0.04019607976078987)
(X_234  0.12843137979507446)
(X_235  0.12843137979507446)
(X_236  0.036274511367082596)
(X_237  0.04803921654820442)
(X_238  0.0519607849419117)
(X_239  0.05588235333561897)
(X_240  0.036274511367082596)
(X_241  0.036274511367082596)
(X_242  0.136274516582489)
(X_243  0.12843137979507446)
(X_244  0.12058823555707932)
(X_245  0.12058823555707932)
(X_246  0.12450980395078659)
(X_247  0.12843137979507446)
(X_248  0.01666666939854622)
(X_249  0.02450980618596077)
(X_250  0.036274511367082596)
(X_251  0.04411764815449715)
(X_252  0.04411764815449715)
(X_253  0.020588237792253494)
(X_254  0.10882353037595749)
(X_255  0.02450980618596077)
(X_256  0.03235294297337532)
(X_257  0.13235294818878174)
(X_258  0.14411765336990356)
(X_259  0.06372549384832382)
(X_260  0.03235294297337532)
(X_261  0.03235294297337532)
(X_262  0.036274511367082596)
(X_263  0.04411764815449715)
(X_264  0.0519607849419117)
(X_265  0.04803921654820442)
(X_266  0.13235294818878174)
(X_267  0.12450980395078659)
(X_268  0.14411765336990356)
(X_269  0.14803922176361084)
(X_270  0.14803922176361084)
(X_271  0.14411765336990356)
(X_272  0.14411765336990356)
(X_273  0.14411765336990356)
(X_274  0.14803922176361084)
(X_275  0.0519607849419117)
(X_276  0.16764706373214722)
(X_277  0.1558823585510254)
(X_278  0.04411764815449715)
(X_279  0.04019607976078987)
(X_280  0.33235296607017517)
(X_281  0.2813725471496582)
(X_282  0.21470588445663452)
(X_283  0.0676470622420311)
(X_284  0.03235294297337532)
(X_285  0.10882353037595749)
(X_286  0.10882353037595749)
(X_287  0.12058823555707932)
(X_288  0.04803921654820442)
(X_289  0.04411764815449715)
(X_290  0.04019607976078987)
(X_291  0.14411765336990356)
(X_292  0.04803921654820442)
(X_293  0.04411764815449715)
(X_294  0.03235294297337532)
(X_295  0.12058823555707932)
(X_296  0.12843137979507446)
(X_297  0.028431374579668045)
(X_298  0.02450980618596077)
(X_299  0.020588237792253494)
(X_300  0.11274509876966476)
(X_301  0.10882353037595749)
(X_302  0.10490196198225021)
(X_303  0.004901961423456669)
(X_304  0.028431374579668045)
(X_305  0.020588237792253494)
(X_306  0.01666666939854622)
(X_307  0.02450980618596077)
(X_308  0.5911765098571777)
(X_309  0.44019606709480286)
(X_310  0.4696078598499298)
(X_311  0.3068627417087555)
(X_312  0.25196078419685364)
(X_313  0.2852941155433655)
(X_314  0.22254902124404907)
(X_315  0.17941176891326904)
(X_316  0.14411765336990356)
(X_317  0.12843137979507446)
(X_318  0.10882353037595749)
(X_319  0.10098039358854294)
(X_320  0.004901961423456669)
(X_321  0.020588237792253494)
(X_322  0.036274511367082596)
(X_323  0.04019607976078987)
(X_324  0.1401960849761963)
(X_325  0.036274511367082596)
(X_326  0.03235294297337532)
(X_327  0.03235294297337532)
(X_328  0.136274516582489)
(X_329  0.136274516582489)
(X_330  0.13235294818878174)
(X_331  0.12843137979507446)
(X_332  0.0519607849419117)
(X_333  0.05980392172932625)
(X_334  0.07156863063573837)
(X_335  0.07156863063573837)
(X_336  0.34215685725212097)
(X_337  0.4421568810939789)
(X_338  0.457843154668808)
(X_339  0.4892157018184662)
(X_340  0.5166666507720947)
(X_341  0.5009803771972656)
(X_342  0.34215685725212097)
(X_343  0.28333333134651184)
(X_344  0.36764708161354065)
(X_345  0.33235296607017517)
(X_346  0.1774509847164154)
(X_347  0.12647059559822083)
(X_348  0.0833333432674408)
(X_349  0.04803921654820442)
(X_350  0.02450980618596077)
(X_351  0.11274509876966476)
(X_352  0.11274509876966476)
(X_353  0.10490196198225021)
(X_354  -0.0029411755967885256)
(X_355  0.004901961423456669)
(X_356  0.12058823555707932)
(X_357  0.13235294818878174)
(X_358  0.136274516582489)
(X_359  0.036274511367082596)
(X_360  0.07745098322629929)
(X_361  0.11666666716337204)
(X_362  0.0676470622420311)
(X_363  0.19117647409439087)
(X_364  0.4421568810939789)
(X_365  0.43039217591285706)
(X_366  0.4068627655506134)
(X_367  0.2911764681339264)
(X_368  0.40294119715690613)
(X_369  0.43039217591285706)
(X_370  0.33039215207099915)
(X_371  0.3186274468898773)
(X_372  0.4539215862751007)
(X_373  0.43431374430656433)
(X_374  0.4068627655506134)
(X_375  0.3754902184009552)
(X_376  0.23235295712947845)
(X_377  0.18529412150382996)
(X_378  0.13431373238563538)
(X_379  0.10294118523597717)
(X_380  0.16764706373214722)
(X_381  0.14803922176361084)
(X_382  0.12450980395078659)
(X_383  0.11666666716337204)
(X_384  0.028431374579668045)
(X_385  0.036274511367082596)
(X_386  0.036274511367082596)
(X_387  0.13235294818878174)
(X_388  0.22647058963775635)
(X_389  0.2696078419685364)
(X_390  0.22843138873577118)
(X_391  0.26372548937797546)
(X_392  0.6931372880935669)
(X_393  0.6813725829124451)
(X_394  0.5186274647712708)
(X_395  0.40882351994514465)
(X_396  0.41470590233802795)
(X_397  0.38333335518836975)
(X_398  0.2872548997402191)
(X_399  0.29509803652763367)
(X_400  0.2598039209842682)
(X_401  0.26764705777168274)
(X_402  0.28333333134651184)
(X_403  0.39901962876319885)
(X_404  0.3068627417087555)
(X_405  0.3029411733150482)
(X_406  0.28333333134651184)
(X_407  0.26764705777168274)
(X_408  0.33627453446388245)
(X_409  0.3127451241016388)
(X_410  0.2852941155433655)
(X_411  0.2813725471496582)
(X_412  0.2970588207244873)
(X_413  0.22058825194835663)
(X_414  0.23235295712947845)
(X_415  0.33235296607017517)
(X_416  0.2911764681339264)
(X_417  0.29509803652763367)
(X_418  0.29901960492134094)
(X_419  0.3029411733150482)
(X_420  0.5166666507720947)
(X_421  0.5147058963775635)
(X_422  0.5970588326454163)
(X_423  0.5813725590705872)
(X_424  0.522549033164978)
(X_425  0.48725491762161255)
(X_426  0.48725491762161255)
(X_427  0.4950980544090271)
(X_428  0.5068627595901489)
(X_429  0.4833333492279053)
(X_430  0.44411763548851013)
(X_431  0.4009803831577301)
(X_432  0.3578431308269501)
(X_433  0.31470587849617004)
(X_434  0.2754901945590973)
(X_435  0.24803923070430756)
(X_436  0.3794117867946625)
(X_437  0.3637255132198334)
(X_438  0.3558823764324188)
(X_439  0.3794117867946625)
(X_440  0.4382353127002716)
(X_441  0.49705883860588074)
(X_442  0.4362744987010956)
(X_443  0.45196080207824707)
(X_444  0.3696078360080719)
(X_445  0.3539215624332428)
(X_446  0.3499999940395355)
(X_447  0.3735294044017792)
(X_448  0.4264706075191498)
(X_449  0.4049019515514374)
(X_450  0.4637255072593689)
(X_451  0.45588237047195435)
(X_452  0.5284313559532166)
(X_453  0.5480391979217529)
(X_454  0.5911765098571777)
(X_455  0.6264706254005432)
(X_456  0.6068627834320068)
(X_457  0.6107843518257141)
(X_458  0.6186274886131287)
(X_459  0.5264706015586853)
(X_460  0.5186274647712708)
(X_461  0.48725491762161255)
(X_462  0.44411763548851013)
(X_463  0.41274508833885193)
(X_464  0.41274508833885193)
(X_465  0.4009803831577301)
(X_466  0.385294109582901)
(X_467  0.49705883860588074)
(X_468  0.5637255311012268)
(X_469  0.6303921937942505)
(X_470  0.6421568989753723)
(X_471  0.6107843518257141)
(X_472  0.6539216041564941)
(X_473  0.6735294461250305)
(X_474  0.6774510145187378)
(X_475  0.665686309337616)
(X_476  0.26764705777168274)
(X_477  0.29901960492134094)
(X_478  0.41470590233802795)
(X_479  0.40294119715690613)
(X_480  0.31470587849617004)
(X_481  0.3696078360080719)
(X_482  0.4323529303073883)
(X_483  0.5715686678886414)
(X_484  0.595098078250885)
(X_485  0.5911765098571777)
(X_486  0.479411780834198)
(X_487  0.4637255072593689)
(X_488  0.4480392038822174)
(X_489  0.4480392038822174)
(X_490  0.4598039388656616)
(X_491  0.46764707565307617)
(X_492  0.4480392038822174)
(X_493  0.5598039627075195)
(X_494  0.5715686678886414)
(X_495  0.5833333730697632)
(X_496  0.595098078250885)
(X_497  0.5833333730697632)
(X_498  0.520588219165802)
(X_499  0.3499999940395355)
(X_500  0.5362744927406311)
(X_501  0.4637255072593689)
(X_502  0.4833333492279053)
(X_503  0.4833333492279053)
(X_504  0.2813725471496582)
(X_505  0.1774509847164154)
(X_506  0.2656862735748291)
(X_507  0.16568627953529358)
(X_508  0.20490197837352753)
(X_509  0.3715686500072479)
(X_510  0.4264706075191498)
(X_511  0.45000001788139343)
(X_512  0.3735294044017792)
(X_513  0.3735294044017792)
(X_514  0.46176472306251526)
(X_515  0.3382352888584137)
(X_516  0.32647058367729187)
(X_517  0.3382352888584137)
(X_518  0.3735294044017792)
(X_519  0.40882351994514465)
(X_520  0.42843136191368103)
(X_521  0.42450979351997375)
(X_522  0.4009803831577301)
(X_523  0.3735294044017792)
(X_524  0.3539215624332428)
(X_525  0.43039217591285706)
(X_526  0.387254923582077)
(X_527  0.344117671251297)
(X_528  0.3950980603694916)
(X_529  0.32647058367729187)
(X_530  0.3499999940395355)
(X_531  0.3578431308269501)
(X_532  0.21078431606292725)
(X_533  0.21078431606292725)
(X_534  0.21078431606292725)
(X_535  0.22254902124404907)
(X_536  0.2539215683937073)
(X_537  0.28921568393707275)
(X_538  0.21274511516094208)
(X_539  0.22058825194835663)
(X_540  0.21274511516094208)
(X_541  0.22058825194835663)
(X_542  0.3284313976764679)
(X_543  0.23235295712947845)
(X_544  0.22843138873577118)
(X_545  0.22843138873577118)
(X_546  0.22843138873577118)
(X_547  0.23235295712947845)
(X_548  0.3715686500072479)
(X_549  0.25196078419685364)
(X_550  0.21666668355464935)
(X_551  0.18529412150382996)
(X_552  0.27352941036224365)
(X_553  0.2813725471496582)
(X_554  0.29313725233078003)
(X_555  0.20098040997982025)
(X_556  0.30490198731422424)
(X_557  0.22843138873577118)
(X_558  0.240196093916893)
(X_559  0.23235295712947845)
(X_560  0.1715686321258545)
(X_561  0.07941177487373352)
(X_562  0.09509804844856262)
(X_563  0.11078432202339172)
(X_564  0.114705890417099)
(X_565  0.12254902720451355)
(X_566  0.13823530077934265)
(X_567  0.15392157435417175)
(X_568  0.15000000596046448)
(X_569  0.25)
(X_570  0.25784313678741455)
(X_571  0.17352941632270813)
(X_572  0.18921568989753723)
(X_573  0.1774509847164154)
(X_574  0.13823530077934265)
(X_575  0.10686275362968445)
(X_576  0.09117648005485535)
(X_577  0.0990196168422699)
(X_578  0.114705890417099)
(X_579  0.12647059559822083)
(X_580  0.23039215803146362)
(X_581  0.22647058963775635)
(X_582  0.22254902124404907)
(X_583  0.22254902124404907)
(X_584  0.24607843160629272)
(X_585  0.1617647111415863)
(X_586  0.25784313678741455)
(X_587  0.2343137264251709)
(X_588  0.15196079015731812)
(X_589  0.0519607849419117)
(X_590  0.05980392172932625)
(X_591  0.0676470622420311)
(X_592  0.06372549384832382)
(X_593  0.0676470622420311)
(X_594  0.0990196168422699)
(X_595  0.23823529481887817)
(X_596  0.24215686321258545)
(X_597  0.2186274528503418)
(X_598  0.2029411792755127)
(X_599  0.114705890417099)
(X_600  0.13823530077934265)
(X_601  0.13431373238563538)
(X_602  0.10294118523597717)
(X_603  0.0676470622420311)
(X_604  0.15980392694473267)
(X_605  0.1558823585510254)
(X_606  0.1715686321258545)
(X_607  0.19117647409439087)
(X_608  0.19509804248809814)
(X_609  0.17549020051956177)
(X_610  0.15980392694473267)
(X_611  0.15980392694473267)
(X_612  0.09509804844856262)
(X_613  0.10294118523597717)
(X_614  0.19901961088180542)
(X_615  0.17549020051956177)
(X_616  0.13235294818878174)
(X_617  0.12058823555707932)
(X_618  0.02450980618596077)
(X_619  0.03235294297337532)
(X_620  0.03235294297337532)
(X_621  0.12843137979507446)
(X_622  0.1558823585510254)
(X_623  0.19509804248809814)
(X_624  0.19117647409439087)
(X_625  0.1715686321258545)
(X_626  0.15196079015731812)
(X_627  0.05588235333561897)
(X_628  0.07156863063573837)
(X_629  0.07941177487373352)
(X_630  0.0676470622420311)
(X_631  0.05588235333561897)
(X_632  0.18333333730697632)
(X_633  0.04803921654820442)
(X_634  0.028431374579668045)
(X_635  0.03235294297337532)
(X_636  0.036274511367082596)
(X_637  0.12843137979507446)
(X_638  0.13235294818878174)
(X_639  0.04411764815449715)
(X_640  0.0519607849419117)
(X_641  0.06372549384832382)
(X_642  0.16372549533843994)
(X_643  0.14411765336990356)
(X_644  0.11666666716337204)
(X_645  0.0009803927969187498)
(X_646  0.10882353037595749)
(X_647  0.13235294818878174)
(X_648  0.13235294818878174)
(X_649  0.01666666939854622)
(X_650  0.11666666716337204)
(X_651  0.13235294818878174)
(X_652  0.12843137979507446)
(X_653  0.12450980395078659)
(X_654  0.12450980395078659)
(X_655  0.12843137979507446)
(X_656  0.036274511367082596)
(X_657  0.04411764815449715)
(X_658  0.04411764815449715)
(X_659  0.04411764815449715)
(X_660  0.14803922176361084)
(X_661  0.11666666716337204)
(X_662  0.10882353037595749)
(X_663  0.03235294297337532)
(X_664  0.04803921654820442)
(X_665  0.136274516582489)
(X_666  0.12843137979507446)
(X_667  0.036274511367082596)
(X_668  0.13235294818878174)
(X_669  0.14803922176361084)
(X_670  0.15196079015731812)
(X_671  0.036274511367082596)
(X_672  0.11274509876966476)
(X_673  0.012745101936161518)
(X_674  0.008823529817163944)
(X_675  0.008823529817163944)
(X_676  0.012745101936161518)
(X_677  0.11274509876966476)
(X_678  0.11666666716337204)
(X_679  0.020588237792253494)
(X_680  0.020588237792253494)
(X_681  0.12058823555707932)
(X_682  0.020588237792253494)
(X_683  0.020588237792253494)
(X_684  0.020588237792253494)
(X_685  0.020588237792253494)
(X_686  0.020588237792253494)
(X_687  0.020588237792253494)
(X_688  0.11274509876966476)
(X_689  0.012745101936161518)
(X_690  0.012745101936161518)
(X_691  0.012745101936161518)
(X_692  0.012745101936161518)
(X_693  0.01666666939854622)
(X_694  0.01666666939854622)
(X_695  0.11666666716337204)
(X_696  0.11666666716337204)
(X_697  0.11666666716337204)
(X_698  0.11666666716337204)
(X_699  0.11666666716337204)
(X_700  0.10882353037595749)
(X_701  0.008823529817163944)
(X_702  0.10490196198225021)
(X_703  0.10490196198225021)
(X_704  0.10882353037595749)
(X_705  0.11274509876966476)
(X_706  0.01666666939854622)
(X_707  0.01666666939854622)
(X_708  0.01666666939854622)
(X_709  0.11666666716337204)
(X_710  0.01666666939854622)
(X_711  0.01666666939854622)
(X_712  0.01666666939854622)
(X_713  0.01666666939854622)
(X_714  0.01666666939854622)
(X_715  0.01666666939854622)
(X_716  0.10490196198225021)
(X_717  0.10882353037595749)
(X_718  0.008823529817163944)
(X_719  0.008823529817163944)
(X_720  0.11274509876966476)
(X_721  0.11274509876966476)
(X_722  0.11274509876966476)
(X_723  0.11274509876966476)
(X_724  0.11274509876966476)
(X_725  0.11274509876966476)
(X_726  0.11274509876966476)
(X_727  0.11274509876966476)
(X_728  0.10490196198225021)
(X_729  0.10490196198225021)
(X_730  0.10098039358854294)
(X_731  0.10098039358854294)
(X_732  0.10490196198225021)
(X_733  0.10490196198225021)
(X_734  0.10882353037595749)
(X_735  0.11274509876966476)
(X_736  0.11274509876966476)
(X_737  0.11274509876966476)
(X_738  0.012745101936161518)
(X_739  0.012745101936161518)
(X_740  0.012745101936161518)
(X_741  0.012745101936161518)
(X_742  0.012745101936161518)
(X_743  0.012745101936161518)
(X_744  0.0009803927969187498)
(X_745  0.0009803927969187498)
(X_746  0.10098039358854294)
(X_747  0.004901961423456669)
(X_748  0.004901961423456669)
(X_749  0.008823529817163944)
(X_750  0.008823529817163944)
(X_751  0.008823529817163944)
(X_752  0.10882353037595749)
(X_753  0.10882353037595749)
(X_754  0.10882353037595749)
(X_755  0.10882353037595749)
(X_756  0.10098039358854294)
(X_757  0.10098039358854294)
(X_758  0.09705882519483566)
(X_759  0.09705882519483566)
(X_760  -0.0029411755967885256)
(X_761  0.0009803927969187498)
(X_762  0.004901961423456669)
(X_763  0.008823529817163944)
(X_764  0.004901961423456669)
(X_765  0.10490196198225021)
(X_766  0.004901961423456669)
(X_767  0.004901961423456669)
(X_768  0.004901961423456669)
(X_769  0.004901961423456669)
(X_770  0.004901961423456669)
(X_771  0.004901961423456669)
(X_772  -0.006862743757665157)
(X_773  -0.0029411755967885256)
(X_774  -0.0029411755967885256)
(X_775  0.0009803927969187498)
(X_776  0.10098039358854294)
(X_777  0.10490196198225021)
(X_778  0.10882353037595749)
(X_779  0.10882353037595749)
(X_780  0.004901961423456669)
(X_781  0.004901961423456669)
(X_782  0.004901961423456669)
(X_783  0.10490196198225021)
(Y_0 -22.647968292236328)
(Y_1 10.888890266418457)
(Y_2 -11.111560821533203)
(Y_3 24.089021682739258))