((X_0  1.0499999523162842)
(X_1  0.949999988079071)
(X_2  0.949999988079071)
(X_3  1.0460784435272217)
(X_4  1.0460784435272217)
(X_5  1.0421568155288696)
(X_6  0.9421568512916565)
(X_7  0.9421568512916565)
(X_8  1.0499999523162842)
(X_9  1.0499999523162842)
(X_10  1.0499999523162842)
(X_11  1.0499999523162842)
(X_12  1.0499999523162842)
(X_13  1.0499999523162842)
(X_14  1.0499999523162842)
(X_15  1.0499999523162842)
(X_16  0.9460784196853638)
(X_17  0.949999988079071)
(X_18  0.949999988079071)
(X_19  0.949999988079071)
(X_20  1.0499999523162842)
(X_21  1.0460784435272217)
(X_22  0.9421568512916565)
(X_23  0.9382352828979492)
(X_24  1.0499999523162842)
(X_25  1.0499999523162842)
(X_26  0.949999988079071)
(X_27  1.0499999523162842)
(X_28  0.9911764860153198)
(X_29  0.8950980305671692)
(X_30  0.8990195989608765)
(X_31  0.906862735748291)
(X_32  0.9107843041419983)
(X_33  0.9186274409294128)
(X_34  0.9225490093231201)
(X_35  1.0264705419540405)
(X_36  1.018627405166626)
(X_37  1.018627405166626)
(X_38  1.0264705419540405)
(X_39  0.9303921461105347)
(X_40  1.034313678741455)
(X_41  1.0382353067398071)
(X_42  1.0382353067398071)
(X_43  0.9382352828979492)
(X_44  1.0264705419540405)
(X_45  1.034313678741455)
(X_46  1.0382353067398071)
(X_47  0.949999988079071)
(X_48  0.949999988079071)
(X_49  0.949999988079071)
(X_50  0.949999988079071)
(X_51  0.949999988079071)
(X_52  1.0303921699523926)
(X_53  1.0303921699523926)
(X_54  0.9303921461105347)
(X_55  1.0303921699523926)
(X_56  0.30098041892051697)
(X_57  0.20490197837352753)
(X_58  0.2088235467672348)
(X_59  0.22058825194835663)
(X_60  0.22843138873577118)
(X_61  0.23627452552318573)
(X_62  0.24411766231060028)
(X_63  0.24803923070430756)
(X_64  0.26764705777168274)
(X_65  0.2754901945590973)
(X_66  0.27941176295280457)
(X_67  0.2872548997402191)
(X_68  0.29509803652763367)
(X_69  0.29901960492134094)
(X_70  0.29901960492134094)
(X_71  0.3029411733150482)
(X_72  0.29509803652763367)
(X_73  0.3029411733150482)
(X_74  0.31078431010246277)
(X_75  0.3225490152835846)
(X_76  0.43039217591285706)
(X_77  0.4382353127002716)
(X_78  0.4421568810939789)
(X_79  0.4421568810939789)
(X_80  0.4696078598499298)
(X_81  0.4696078598499298)
(X_82  0.3696078360080719)
(X_83  0.4696078598499298)
(X_84  0.07745098322629929)
(X_85  -0.022549020126461983)
(X_86  -0.022549020126461983)
(X_87  -0.022549020126461983)
(X_88  -0.022549020126461983)
(X_89  -0.018627449870109558)
(X_90  -0.018627449870109558)
(X_91  -0.018627449870109558)
(X_92  0.07745098322629929)
(X_93  -0.022549020126461983)
(X_94  -0.014705880545079708)
(X_95  -0.010784312151372433)
(X_96  0.09313725680112839)
(X_97  0.09705882519483566)
(X_98  0.09705882519483566)
(X_99  0.09705882519483566)
(X_100  0.10490196198225021)
(X_101  0.10882353037595749)
(X_102  0.11274509876966476)
(X_103  0.11274509876966476)
(X_104  0.11666666716337204)
(X_105  0.012745101936161518)
(X_106  0.012745101936161518)
(X_107  0.008823529817163944)
(X_108  -0.022549020126461983)
(X_109  -0.022549020126461983)
(X_110  -0.022549020126461983)
(X_111  0.07745098322629929)
(X_112  0.11274509876966476)
(X_113  0.11274509876966476)
(X_114  0.10882353037595749)
(X_115  0.10490196198225021)
(X_116  0.10098039358854294)
(X_117  -0.0029411755967885256)
(X_118  -0.0029411755967885256)
(X_119  -0.006862743757665157)
(X_120  -0.014705880545079708)
(X_121  -0.014705880545079708)
(X_122  -0.010784312151372433)
(X_123  -0.010784312151372433)
(X_124  -0.010784312151372433)
(X_125  -0.014705880545079708)
(X_126  -0.014705880545079708)
(X_127  -0.018627449870109558)
(X_128  0.09705882519483566)
(X_129  0.09705882519483566)
(X_130  0.09705882519483566)
(X_131  0.09313725680112839)
(X_132  0.08921568840742111)
(X_133  0.08529412001371384)
(X_134  0.08137255162000656)
(X_135  0.07745098322629929)
(X_136  0.10098039358854294)
(X_137  0.0009803927969187498)
(X_138  0.0009803927969187498)
(X_139  0.10098039358854294)
(X_140  0.09313725680112839)
(X_141  0.09313725680112839)
(X_142  0.09313725680112839)
(X_143  0.09313725680112839)
(X_144  -0.006862743757665157)
(X_145  -0.006862743757665157)
(X_146  -0.006862743757665157)
(X_147  -0.006862743757665157)
(X_148  0.10490196198225021)
(X_149  0.10882353037595749)
(X_150  0.10882353037595749)
(X_151  0.10490196198225021)
(X_152  0.10490196198225021)
(X_153  0.10098039358854294)
(X_154  0.09313725680112839)
(X_155  0.09313725680112839)
(X_156  0.09705882519483566)
(X_157  0.09705882519483566)
(X_158  0.10098039358854294)
(X_159  0.10098039358854294)
(X_160  0.10098039358854294)
(X_161  0.0009803927969187498)
(X_162  -0.0029411755967885256)
(X_163  0.09705882519483566)
(X_164  -0.0029411755967885256)
(X_165  -0.0029411755967885256)
(X_166  -0.0029411755967885256)
(X_167  0.09705882519483566)
(X_168  -0.0029411755967885256)
(X_169  0.0009803927969187498)
(X_170  0.10098039358854294)
(X_171  0.10098039358854294)
(X_172  0.10490196198225021)
(X_173  0.10490196198225021)
(X_174  0.008823529817163944)
(X_175  0.008823529817163944)
(X_176  0.08921568840742111)
(X_177  0.08921568840742111)
(X_178  0.09313725680112839)
(X_179  -0.006862743757665157)
(X_180  -0.006862743757665157)
(X_181  -0.010784312151372433)
(X_182  -0.014705880545079708)
(X_183  -0.014705880545079708)
(X_184  0.08137255162000656)
(X_185  -0.014705880545079708)
(X_186  0.08921568840742111)
(X_187  0.09313725680112839)
(X_188  0.09313725680112839)
(X_189  -0.006862743757665157)
(X_190  0.09313725680112839)
(X_191  0.08921568840742111)
(X_192  0.09705882519483566)
(X_193  0.09705882519483566)
(X_194  -0.0029411755967885256)
(X_195  -0.0029411755967885256)
(X_196  0.08921568840742111)
(X_197  0.08921568840742111)
(X_198  0.08921568840742111)
(X_199  -0.010784312151372433)
(X_200  -0.010784312151372433)
(X_201  -0.010784312151372433)
(X_202  -0.010784312151372433)
(X_203  -0.014705880545079708)
(X_204  -0.010784312151372433)
(X_205  0.09313725680112839)
(X_206  0.09705882519483566)
(X_207  0.10098039358854294)
(X_208  0.0009803927969187498)
(X_209  0.0009803927969187498)
(X_210  0.0009803927969187498)
(X_211  0.0009803927969187498)
(X_212  0.09705882519483566)
(X_213  0.09705882519483566)
(X_214  0.0009803927969187498)
(X_215  0.0009803927969187498)
(X_216  0.0009803927969187498)
(X_217  -0.0029411755967885256)
(X_218  -0.006862743757665157)
(X_219  0.09313725680112839)
(X_220  0.10490196198225021)
(X_221  0.10490196198225021)
(X_222  0.004901961423456669)
(X_223  0.004901961423456669)
(X_224  0.004901961423456669)
(X_225  0.004901961423456669)
(X_226  0.004901961423456669)
(X_227  0.10098039358854294)
(X_228  0.10098039358854294)
(X_229  -0.0029411755967885256)
(X_230  -0.0029411755967885256)
(X_231  -0.006862743757665157)
(X_232  0.08529412001371384)
(X_233  0.09313725680112839)
(X_234  0.10490196198225021)
(X_235  0.11274509876966476)
(X_236  0.11666666716337204)
(X_237  0.012745101936161518)
(X_238  0.008823529817163944)
(X_239  0.0009803927969187498)
(X_240  0.0009803927969187498)
(X_241  0.004901961423456669)
(X_242  0.10490196198225021)
(X_243  0.10882353037595749)
(X_244  0.10882353037595749)
(X_245  0.10490196198225021)
(X_246  0.10490196198225021)
(X_247  0.10098039358854294)
(X_248  0.10490196198225021)
(X_249  0.10490196198225021)
(X_250  0.10490196198225021)
(X_251  0.10490196198225021)
(X_252  0.10882353037595749)
(X_253  0.004901961423456669)
(X_254  0.004901961423456669)
(X_255  0.10490196198225021)
(X_256  0.10098039358854294)
(X_257  0.10098039358854294)
(X_258  0.09705882519483566)
(X_259  -0.0029411755967885256)
(X_260  -0.010784312151372433)
(X_261  -0.014705880545079708)
(X_262  -0.018627449870109558)
(X_263  -0.022549020126461983)
(X_264  -0.022549020126461983)
(X_265  0.08137255162000656)
(X_266  0.08921568840742111)
(X_267  0.09313725680112839)
(X_268  0.0009803927969187498)
(X_269  0.10490196198225021)
(X_270  0.10882353037595749)
(X_271  0.10882353037595749)
(X_272  0.10882353037595749)
(X_273  0.10882353037595749)
(X_274  0.10490196198225021)
(X_275  0.10098039358854294)
(X_276  0.10490196198225021)
(X_277  0.10490196198225021)
(X_278  0.004901961423456669)
(X_279  0.004901961423456669)
(X_280  0.008823529817163944)
(X_281  0.10882353037595749)
(X_282  0.008823529817163944)
(X_283  0.004901961423456669)
(X_284  0.004901961423456669)
(X_285  0.10490196198225021)
(X_286  0.10490196198225021)
(X_287  0.10098039358854294)
(X_288  0.02450980618596077)
(X_289  0.020588237792253494)
(X_290  0.01666666939854622)
(X_291  0.012745101936161518)
(X_292  0.008823529817163944)
(X_293  0.012745101936161518)
(X_294  0.01666666939854622)
(X_295  0.01666666939854622)
(X_296  0.10490196198225021)
(X_297  0.10490196198225021)
(X_298  0.008823529817163944)
(X_299  0.012745101936161518)
(X_300  0.012745101936161518)
(X_301  0.10882353037595749)
(X_302  0.004901961423456669)
(X_303  0.004901961423456669)
(X_304  0.004901961423456669)
(X_305  0.004901961423456669)
(X_306  0.004901961423456669)
(X_307  0.004901961423456669)
(X_308  0.012745101936161518)
(X_309  0.012745101936161518)
(X_310  0.012745101936161518)
(X_311  0.008823529817163944)
(X_312  0.008823529817163944)
(X_313  0.008823529817163944)
(X_314  0.10882353037595749)
(X_315  0.10882353037595749)
(X_316  0.09705882519483566)
(X_317  0.10490196198225021)
(X_318  0.11666666716337204)
(X_319  0.02450980618596077)
(X_320  0.12450980395078659)
(X_321  0.11666666716337204)
(X_322  0.004901961423456669)
(X_323  -0.0029411755967885256)
(X_324  0.008823529817163944)
(X_325  0.008823529817163944)
(X_326  0.012745101936161518)
(X_327  0.012745101936161518)
(X_328  0.012745101936161518)
(X_329  0.012745101936161518)
(X_330  0.10882353037595749)
(X_331  0.10882353037595749)
(X_332  0.10490196198225021)
(X_333  0.10490196198225021)
(X_334  0.004901961423456669)
(X_335  0.004901961423456669)
(X_336  0.012745101936161518)
(X_337  0.012745101936161518)
(X_338  0.012745101936161518)
(X_339  0.11666666716337204)
(X_340  0.11666666716337204)
(X_341  0.11666666716337204)
(X_342  0.11666666716337204)
(X_343  0.01666666939854622)
(X_344  0.10098039358854294)
(X_345  0.10882353037595749)
(X_346  0.11666666716337204)
(X_347  0.02450980618596077)
(X_348  0.028431374579668045)
(X_349  0.02450980618596077)
(X_350  0.01666666939854622)
(X_351  0.11274509876966476)
(X_352  0.11274509876966476)
(X_353  0.11274509876966476)
(X_354  0.01666666939854622)
(X_355  0.01666666939854622)
(X_356  0.01666666939854622)
(X_357  0.01666666939854622)
(X_358  0.11274509876966476)
(X_359  0.11274509876966476)
(X_360  0.10490196198225021)
(X_361  0.10490196198225021)
(X_362  0.008823529817163944)
(X_363  0.008823529817163944)
(X_364  0.01666666939854622)
(X_365  0.01666666939854622)
(X_366  0.01666666939854622)
(X_367  0.12058823555707932)
(X_368  0.12058823555707932)
(X_369  0.12058823555707932)
(X_370  0.12058823555707932)
(X_371  0.12450980395078659)
(X_372  0.028431374579668045)
(X_373  0.02450980618596077)
(X_374  0.12058823555707932)
(X_375  0.12058823555707932)
(X_376  0.020588237792253494)
(X_377  0.020588237792253494)
(X_378  0.02450980618596077)
(X_379  0.028431374579668045)
(X_380  0.012745101936161518)
(X_381  0.01666666939854622)
(X_382  0.12058823555707932)
(X_383  0.12058823555707932)
(X_384  0.12058823555707932)
(X_385  0.12058823555707932)
(X_386  0.01666666939854622)
(X_387  0.012745101936161518)
(X_388  0.10882353037595749)
(X_389  0.11274509876966476)
(X_390  0.11274509876966476)
(X_391  0.01666666939854622)
(X_392  0.01666666939854622)
(X_393  0.020588237792253494)
(X_394  0.020588237792253494)
(X_395  0.12058823555707932)
(X_396  0.12450980395078659)
(X_397  0.12450980395078659)
(X_398  0.12843137979507446)
(X_399  0.12843137979507446)
(X_400  0.01666666939854622)
(X_401  0.02450980618596077)
(X_402  0.04019607976078987)
(X_403  0.14411765336990356)
(X_404  0.1401960849761963)
(X_405  0.020588237792253494)
(X_406  0.0009803927969187498)
(X_407  -0.014705880545079708)
(X_408  0.11666666716337204)
(X_409  0.11666666716337204)
(X_410  0.12058823555707932)
(X_411  0.12450980395078659)
(X_412  0.12450980395078659)
(X_413  0.12058823555707932)
(X_414  0.11666666716337204)
(X_415  0.11666666716337204)
(X_416  0.01666666939854622)
(X_417  0.01666666939854622)
(X_418  0.020588237792253494)
(X_419  0.02450980618596077)
(X_420  0.12058823555707932)
(X_421  0.020588237792253494)
(X_422  0.12058823555707932)
(X_423  0.12450980395078659)
(X_424  0.02450980618596077)
(X_425  0.028431374579668045)
(X_426  0.12843137979507446)
(X_427  0.13235294818878174)
(X_428  0.18333333730697632)
(X_429  0.2186274528503418)
(X_430  0.1617647111415863)
(X_431  0.18921568989753723)
(X_432  0.1774509847164154)
(X_433  0.1303921639919281)
(X_434  0.0676470622420311)
(X_435  0.02450980618596077)
(X_436  0.01666666939854622)
(X_437  0.12058823555707932)
(X_438  0.12058823555707932)
(X_439  0.02450980618596077)
(X_440  0.02450980618596077)
(X_441  0.020588237792253494)
(X_442  0.020588237792253494)
(X_443  0.01666666939854622)
(X_444  0.020588237792253494)
(X_445  0.020588237792253494)
(X_446  0.02450980618596077)
(X_447  0.028431374579668045)
(X_448  0.1401960849761963)
(X_449  0.14411765336990356)
(X_450  0.04019607976078987)
(X_451  0.14803922176361084)
(X_452  0.09117648005485535)
(X_453  0.15000000596046448)
(X_454  0.18529412150382996)
(X_455  0.29313725233078003)
(X_456  0.3637255132198334)
(X_457  0.3127451241016388)
(X_458  0.30490198731422424)
(X_459  0.3284313976764679)
(X_460  0.3284313976764679)
(X_461  0.33235296607017517)
(X_462  0.23235295712947845)
(X_463  0.2088235467672348)
(X_464  0.0519607849419117)
(X_465  0.06372549384832382)
(X_466  0.036274511367082596)
(X_467  0.10098039358854294)
(X_468  0.13235294818878174)
(X_469  0.20686274766921997)
(X_470  0.2343137264251709)
(X_471  0.20686274766921997)
(X_472  0.1460784375667572)
(X_473  0.2539215683937073)
(X_474  0.2656862735748291)
(X_475  0.27352941036224365)
(X_476  0.16960784792900085)
(X_477  0.19705882668495178)
(X_478  0.32058826088905334)
(X_479  0.33235296607017517)
(X_480  0.24803923070430756)
(X_481  0.27156862616539)
(X_482  0.2754901945590973)
(X_483  0.26764705777168274)
(X_484  0.31666669249534607)
(X_485  0.2245098203420639)
(X_486  0.240196093916893)
(X_487  0.25196078419685364)
(X_488  0.344117671251297)
(X_489  0.3284313976764679)
(X_490  0.22843138873577118)
(X_491  0.2558823525905609)
(X_492  0.3029411733150482)
(X_493  0.2872548997402191)
(X_494  0.3637255132198334)
(X_495  0.3401961028575897)
(X_496  0.3088235557079315)
(X_497  0.2970588207244873)
(X_498  0.3245098292827606)
(X_499  0.26372548937797546)
(X_500  0.23235295712947845)
(X_501  0.2245098203420639)
(X_502  0.3088235557079315)
(X_503  0.30098041892051697)
(X_504  0.344117671251297)
(X_505  0.36764708161354065)
(X_506  0.3794117867946625)
(X_507  0.3715686500072479)
(X_508  0.25196078419685364)
(X_509  0.240196093916893)
(X_510  0.21666668355464935)
(X_511  0.1931372582912445)
(X_512  0.24411766231060028)
(X_513  0.33039215207099915)
(X_514  0.3696078360080719)
(X_515  0.3970588147640228)
(X_516  0.4362744987010956)
(X_517  0.41274508833885193)
(X_518  0.4166666567325592)
(X_519  0.5029411911964417)
(X_520  0.5460784435272217)
(X_521  0.4480392038822174)
(X_522  0.5049019455909729)
(X_523  0.5480391979217529)
(X_524  0.4362744987010956)
(X_525  0.4225490391254425)
(X_526  0.31666669249534607)
(X_527  0.2852941155433655)
(X_528  0.29313725233078003)
(X_529  0.18529412150382996)
(X_530  0.17352941632270813)
(X_531  0.16568627953529358)
(X_532  0.44607844948768616)
(X_533  0.3499999940395355)
(X_534  0.34215685725212097)
(X_535  0.4382353127002716)
(X_536  0.457843154668808)
(X_537  0.3813725411891937)
(X_538  0.4852941334247589)
(X_539  0.4696078598499298)
(X_540  0.3382352888584137)
(X_541  0.42450979351997375)
(X_542  0.5166666507720947)
(X_543  0.5245097875595093)
(X_544  0.5872549414634705)
(X_545  0.5362744927406311)
(X_546  0.47745099663734436)
(X_547  0.45196080207824707)
(X_548  0.6303921937942505)
(X_549  0.42450979351997375)
(X_550  0.49313727021217346)
(X_551  0.5833333730697632)
(X_552  0.6460784673690796)
(X_553  0.5872549414634705)
(X_554  0.37745097279548645)
(X_555  0.3186274468898773)
(X_556  0.36764708161354065)
(X_557  0.2754901945590973)
(X_558  0.2911764681339264)
(X_559  0.29901960492134094)
(X_560  0.5284313559532166)
(X_561  0.3892156779766083)
(X_562  0.33039215207099915)
(X_563  0.27941176295280457)
(X_564  0.2598039209842682)
(X_565  0.25196078419685364)
(X_566  0.2088235467672348)
(X_567  0.16568627953529358)
(X_568  0.1303921639919281)
(X_569  0.1774509847164154)
(X_570  0.25784313678741455)
(X_571  0.32058826088905334)
(X_572  0.3735294044017792)
(X_573  0.3813725411891937)
(X_574  0.31470587849617004)
(X_575  0.3539215624332428)
(X_576  0.4009803831577301)
(X_577  0.3656862676143646)
(X_578  0.32647058367729187)
(X_579  0.41862747073173523)
(X_580  0.4421568810939789)
(X_581  0.48137256503105164)
(X_582  0.5127450823783875)
(X_583  0.4323529303073883)
(X_584  0.4833333492279053)
(X_585  0.4911764860153198)
(X_586  0.5029411911964417)
(X_587  0.5107843279838562)
(X_588  0.3735294044017792)
(X_589  0.3735294044017792)
(X_590  0.37745097279548645)
(X_591  0.3970588147640228)
(X_592  0.44411763548851013)
(X_593  0.4754902124404907)
(X_594  0.5637255311012268)
(X_595  0.5284313559532166)
(X_596  0.46568629145622253)
(X_597  0.32647058367729187)
(X_598  0.25196078419685364)
(X_599  0.28333333134651184)
(X_600  0.39313724637031555)
(X_601  0.3813725411891937)
(X_602  0.28333333134651184)
(X_603  0.2558823525905609)
(X_604  0.387254923582077)
(X_605  0.2754901945590973)
(X_606  0.3127451241016388)
(X_607  0.23823529481887817)
(X_608  0.24607843160629272)
(X_609  0.32058826088905334)
(X_610  0.26764705777168274)
(X_611  0.26372548937797546)
(X_612  0.3892156779766083)
(X_613  0.3735294044017792)
(X_614  0.3499999940395355)
(X_615  0.33039215207099915)
(X_616  0.3598039448261261)
(X_617  0.28333333134651184)
(X_618  0.4068627655506134)
(X_619  0.4264706075191498)
(X_620  0.44607844948768616)
(X_621  0.46568629145622253)
(X_622  0.457843154668808)
(X_623  0.4382353127002716)
(X_624  0.3715686500072479)
(X_625  0.2970588207244873)
(X_626  0.24215686321258545)
(X_627  0.2852941155433655)
(X_628  0.26764705777168274)
(X_629  0.2911764681339264)
(X_630  0.344117671251297)
(X_631  0.2970588207244873)
(X_632  0.1931372582912445)
(X_633  0.19705882668495178)
(X_634  0.1617647111415863)
(X_635  0.12647059559822083)
(X_636  0.25784313678741455)
(X_637  0.33627453446388245)
(X_638  0.3794117867946625)
(X_639  0.26372548937797546)
(X_640  0.4852941334247589)
(X_641  0.46176472306251526)
(X_642  0.4225490391254425)
(X_643  0.3911764919757843)
(X_644  0.3715686500072479)
(X_645  0.4068627655506134)
(X_646  0.4225490391254425)
(X_647  0.4068627655506134)
(X_648  0.387254923582077)
(X_649  0.387254923582077)
(X_650  0.3950980603694916)
(X_651  0.39901962876319885)
(X_652  0.36764708161354065)
(X_653  0.18137255311012268)
(X_654  0.15392157435417175)
(X_655  0.1931372582912445)
(X_656  0.23235295712947845)
(X_657  0.26764705777168274)
(X_658  0.26764705777168274)
(X_659  0.2245098203420639)
(X_660  0.20098040997982025)
(X_661  0.33627453446388245)
(X_662  0.3284313976764679)
(X_663  0.2539215683937073)
(X_664  0.09509804844856262)
(X_665  0.2343137264251709)
(X_666  0.3480392396450043)
(X_667  0.3382352888584137)
(X_668  0.3225490152835846)
(X_669  0.3068627417087555)
(X_670  0.28333333134651184)
(X_671  0.26372548937797546)
(X_672  0.24803923070430756)
(X_673  0.22843138873577118)
(X_674  0.24411766231060028)
(X_675  0.24803923070430756)
(X_676  0.2245098203420639)
(X_677  0.33627453446388245)
(X_678  0.26764705777168274)
(X_679  0.2598039209842682)
(X_680  0.33627453446388245)
(X_681  0.3088235557079315)
(X_682  0.2852941155433655)
(X_683  0.2813725471496582)
(X_684  0.2774509787559509)
(X_685  0.2656862735748291)
(X_686  0.1617647111415863)
(X_687  0.16960784792900085)
(X_688  0.27352941036224365)
(X_689  0.28921568393707275)
(X_690  0.17352941632270813)
(X_691  0.1303921639919281)
(X_692  0.21078431606292725)
(X_693  0.25)
(X_694  0.32058826088905334)
(X_695  0.26764705777168274)
(X_696  0.3950980603694916)
(X_697  0.387254923582077)
(X_698  0.3558823764324188)
(X_699  0.21274511516094208)
(X_700  0.2088235467672348)
(X_701  0.18921568989753723)
(X_702  0.30098041892051697)
(X_703  0.30490198731422424)
(X_704  0.18137255311012268)
(X_705  0.19705882668495178)
(X_706  0.2245098203420639)
(X_707  0.21666668355464935)
(X_708  0.2088235467672348)
(X_709  0.18137255311012268)
(X_710  0.15784314274787903)
(X_711  0.2539215683937073)
(X_712  0.25)
(X_713  0.2343137264251709)
(X_714  0.13431373238563538)
(X_715  0.14215686917304993)
(X_716  0.2539215683937073)
(X_717  0.2696078419685364)
(X_718  0.15784314274787903)
(X_719  0.11862745881080627)
(X_720  0.0990196168422699)
(X_721  0.13823530077934265)
(X_722  0.20098040997982025)
(X_723  0.24411766231060028)
(X_724  0.3480392396450043)
(X_725  0.240196093916893)
(X_726  0.2088235467672348)
(X_727  0.2696078419685364)
(X_728  0.2656862735748291)
(X_729  0.24607843160629272)
(X_730  0.2617647051811218)
(X_731  0.2656862735748291)
(X_732  0.13823530077934265)
(X_733  0.15392157435417175)
(X_734  0.18529412150382996)
(X_735  0.1774509847164154)
(X_736  0.17352941632270813)
(X_737  0.1460784375667572)
(X_738  0.12254902720451355)
(X_739  0.2186274528503418)
(X_740  0.21078431606292725)
(X_741  0.19901961088180542)
(X_742  0.19901961088180542)
(X_743  0.20686274766921997)
(X_744  0.22647058963775635)
(X_745  0.24215686321258545)
(X_746  0.23823529481887817)
(X_747  0.10294118523597717)
(X_748  0.08725491166114807)
(X_749  0.12254902720451355)
(X_750  0.17352941632270813)
(X_751  0.21274511516094208)
(X_752  0.19705882668495178)
(X_753  0.29313725233078003)
(X_754  0.2656862735748291)
(X_755  0.23039215803146362)
(X_756  0.2539215683937073)
(X_757  0.2343137264251709)
(X_758  0.25)
(X_759  0.2539215683937073)
(X_760  0.12647059559822083)
(X_761  0.14215686917304993)
(X_762  0.17352941632270813)
(X_763  0.16568627953529358)
(X_764  0.15392157435417175)
(X_765  0.22254902124404907)
(X_766  0.19901961088180542)
(X_767  0.19509804248809814)
(X_768  0.09117648005485535)
(X_769  0.07941177487373352)
(X_770  0.07941177487373352)
(X_771  0.08725491166114807)
(X_772  0.10686275362968445)
(X_773  0.12254902720451355)
(X_774  0.12254902720451355)
(X_775  0.09509804844856262)
(X_776  0.0833333432674408)
(X_777  0.114705890417099)
(X_778  0.15784314274787903)
(X_779  0.18529412150382996)
(X_780  0.1774509847164154)
(X_781  0.1774509847164154)
(X_782  0.15392157435417175)
(X_783  0.12254902720451355)
(Y_0 -12.217371940612793)
(Y_1 7.93704080581665)
(Y_2 -5.1483659744262695)
(Y_3 5.797804355621338))