((X_0  0.820588231086731)
(X_1  0.820588231086731)
(X_2  0.8166666626930237)
(X_3  0.8127450942993164)
(X_4  0.8009803891181946)
(X_5  0.7852941155433655)
(X_6  0.8696078658103943)
(X_7  0.8617647290229797)
(X_8  0.8735294342041016)
(X_9  0.8578431606292725)
(X_10  0.7382352948188782)
(X_11  0.8303921818733215)
(X_12  0.8303921818733215)
(X_13  0.822549045085907)
(X_14  0.7107843160629272)
(X_15  0.6990196108818054)
(X_16  0.6950980424880981)
(X_17  0.679411768913269)
(X_18  0.6637254953384399)
(X_19  0.6558823585510254)
(X_20  0.6558823585510254)
(X_21  0.6480392217636108)
(X_22  0.7362745404243469)
(X_23  0.7205882668495178)
(X_24  0.6166666746139526)
(X_25  0.6049019694328308)
(X_26  0.5892156958580017)
(X_27  0.5735294222831726)
(X_28  0.17352941632270813)
(X_29  0.16960784792900085)
(X_30  0.16568627953529358)
(X_31  0.25784313678741455)
(X_32  0.25)
(X_33  0.23823529481887817)
(X_34  0.22647058963775635)
(X_35  0.12254902720451355)
(X_36  0.13823530077934265)
(X_37  0.12647059559822083)
(X_38  0.11078432202339172)
(X_39  0.21078431606292725)
(X_40  0.21470588445663452)
(X_41  0.21470588445663452)
(X_42  0.20686274766921997)
(X_43  0.19901961088180542)
(X_44  0.2186274528503418)
(X_45  0.20686274766921997)
(X_46  0.0990196168422699)
(X_47  0.19509804248809814)
(X_48  0.19901961088180542)
(X_49  0.19901961088180542)
(X_50  0.1872549057006836)
(X_51  0.17549020051956177)
(X_52  0.19117647409439087)
(X_53  0.08725491166114807)
(X_54  0.07941177487373352)
(X_55  0.07156863063573837)
(X_56  0.09117648005485535)
(X_57  0.08725491166114807)
(X_58  0.07941177487373352)
(X_59  0.17549020051956177)
(X_60  0.16764706373214722)
(X_61  0.06372549384832382)
(X_62  0.05980392172932625)
(X_63  0.05980392172932625)
(X_64  0.16372549533843994)
(X_65  0.15980392694473267)
(X_66  0.15196079015731812)
(X_67  0.1558823585510254)
(X_68  0.16372549533843994)
(X_69  0.1715686321258545)
(X_70  0.1715686321258545)
(X_71  0.16764706373214722)
(X_72  0.07156863063573837)
(X_73  0.0676470622420311)
(X_74  0.06372549384832382)
(X_75  0.0676470622420311)
(X_76  0.07156863063573837)
(X_77  0.17549020051956177)
(X_78  0.1715686321258545)
(X_79  0.16372549533843994)
(X_80  0.1715686321258545)
(X_81  0.1715686321258545)
(X_82  0.1715686321258545)
(X_83  0.1715686321258545)
(X_84  0.07941177487373352)
(X_85  0.07549020648002625)
(X_86  0.0676470622420311)
(X_87  0.05980392172932625)
(X_88  0.05588235333561897)
(X_89  0.05588235333561897)
(X_90  0.15980392694473267)
(X_91  0.16372549533843994)
(X_92  0.0519607849419117)
(X_93  0.14803922176361084)
(X_94  0.14803922176361084)
(X_95  0.15196079015731812)
(X_96  0.15980392694473267)
(X_97  0.16372549533843994)
(X_98  0.1715686321258545)
(X_99  0.07156863063573837)
(X_100  0.04803921654820442)
(X_101  0.04803921654820442)
(X_102  0.04803921654820442)
(X_103  0.0519607849419117)
(X_104  0.05588235333561897)
(X_105  0.1558823585510254)
(X_106  0.05588235333561897)
(X_107  0.1558823585510254)
(X_108  0.0519607849419117)
(X_109  0.0519607849419117)
(X_110  0.0519607849419117)
(X_111  0.04803921654820442)
(X_112  0.16764706373214722)
(X_113  0.15980392694473267)
(X_114  0.1558823585510254)
(X_115  0.14803922176361084)
(X_116  0.14803922176361084)
(X_117  0.15196079015731812)
(X_118  0.1558823585510254)
(X_119  0.05980392172932625)
(X_120  0.04411764815449715)
(X_121  0.04411764815449715)
(X_122  0.04803921654820442)
(X_123  0.14411765336990356)
(X_124  0.14411765336990356)
(X_125  0.04803921654820442)
(X_126  0.0519607849419117)
(X_127  0.05588235333561897)
(X_128  0.04803921654820442)
(X_129  0.04803921654820442)
(X_130  0.15196079015731812)
(X_131  0.14803922176361084)
(X_132  0.14803922176361084)
(X_133  0.04803921654820442)
(X_134  0.04803921654820442)
(X_135  0.04803921654820442)
(X_136  0.14803922176361084)
(X_137  0.15196079015731812)
(X_138  0.15196079015731812)
(X_139  0.15196079015731812)
(X_140  0.05980392172932625)
(X_141  0.1558823585510254)
(X_142  0.05588235333561897)
(X_143  0.15196079015731812)
(X_144  0.15196079015731812)
(X_145  0.15196079015731812)
(X_146  0.15196079015731812)
(X_147  0.0519607849419117)
(X_148  0.1558823585510254)
(X_149  0.15980392694473267)
(X_150  0.15980392694473267)
(X_151  0.15196079015731812)
(X_152  0.14411765336990356)
(X_153  0.14411765336990356)
(X_154  0.04803921654820442)
(X_155  0.1558823585510254)
(X_156  0.05588235333561897)
(X_157  0.15980392694473267)
(X_158  0.16372549533843994)
(X_159  0.15980392694473267)
(X_160  0.15196079015731812)
(X_161  0.14803922176361084)
(X_162  0.15196079015731812)
(X_163  0.1558823585510254)
(X_164  0.15196079015731812)
(X_165  0.15196079015731812)
(X_166  0.15196079015731812)
(X_167  0.15196079015731812)
(X_168  0.05588235333561897)
(X_169  0.05588235333561897)
(X_170  0.05588235333561897)
(X_171  0.05588235333561897)
(X_172  0.0519607849419117)
(X_173  0.0519607849419117)
(X_174  0.04803921654820442)
(X_175  0.04411764815449715)
(X_176  0.05588235333561897)
(X_177  0.06372549384832382)
(X_178  0.16372549533843994)
(X_179  0.1558823585510254)
(X_180  0.14411765336990356)
(X_181  0.1401960849761963)
(X_182  0.14803922176361084)
(X_183  0.15980392694473267)
(X_184  0.04019607976078987)
(X_185  0.0519607849419117)
(X_186  0.05588235333561897)
(X_187  0.05588235333561897)
(X_188  0.04411764815449715)
(X_189  0.04411764815449715)
(X_190  0.04803921654820442)
(X_191  0.15980392694473267)
(X_192  0.14803922176361084)
(X_193  0.14411765336990356)
(X_194  0.1401960849761963)
(X_195  0.136274516582489)
(X_196  0.14803922176361084)
(X_197  0.14803922176361084)
(X_198  0.15196079015731812)
(X_199  0.05588235333561897)
(X_200  0.0519607849419117)
(X_201  0.04411764815449715)
(X_202  0.036274511367082596)
(X_203  0.03235294297337532)
(X_204  0.04411764815449715)
(X_205  0.0519607849419117)
(X_206  0.1558823585510254)
(X_207  0.04803921654820442)
(X_208  0.036274511367082596)
(X_209  0.03235294297337532)
(X_210  0.1401960849761963)
(X_211  0.15196079015731812)
(X_212  0.12843137979507446)
(X_213  0.1401960849761963)
(X_214  0.14803922176361084)
(X_215  0.14803922176361084)
(X_216  0.04019607976078987)
(X_217  0.04019607976078987)
(X_218  0.14803922176361084)
(X_219  0.15980392694473267)
(X_220  0.16372549533843994)
(X_221  0.1558823585510254)
(X_222  0.14411765336990356)
(X_223  0.03235294297337532)
(X_224  0.0676470622420311)
(X_225  0.1401960849761963)
(X_226  0.03235294297337532)
(X_227  0.14803922176361084)
(X_228  0.05588235333561897)
(X_229  0.04411764815449715)
(X_230  0.04411764815449715)
(X_231  0.05588235333561897)
(X_232  0.12058823555707932)
(X_233  0.12058823555707932)
(X_234  0.12450980395078659)
(X_235  0.136274516582489)
(X_236  0.15196079015731812)
(X_237  0.15196079015731812)
(X_238  0.136274516582489)
(X_239  0.12450980395078659)
(X_240  0.1401960849761963)
(X_241  0.1401960849761963)
(X_242  0.04411764815449715)
(X_243  0.04411764815449715)
(X_244  0.04803921654820442)
(X_245  0.0519607849419117)
(X_246  0.05588235333561897)
(X_247  0.05588235333561897)
(X_248  0.1401960849761963)
(X_249  0.04803921654820442)
(X_250  0.04803921654820442)
(X_251  0.14803922176361084)
(X_252  0.4264706075191498)
(X_253  0.3950980603694916)
(X_254  0.36764708161354065)
(X_255  0.344117671251297)
(X_256  0.2970588207244873)
(X_257  0.22647058963775635)
(X_258  0.16764706373214722)
(X_259  0.04411764815449715)
(X_260  0.0676470622420311)
(X_261  0.14803922176361084)
(X_262  0.12058823555707932)
(X_263  0.11274509876966476)
(X_264  0.12058823555707932)
(X_265  0.1401960849761963)
(X_266  0.15196079015731812)
(X_267  0.15980392694473267)
(X_268  0.03235294297337532)
(X_269  0.036274511367082596)
(X_270  0.036274511367082596)
(X_271  0.036274511367082596)
(X_272  0.036274511367082596)
(X_273  0.03235294297337532)
(X_274  0.028431374579668045)
(X_275  0.02450980618596077)
(X_276  0.01666666939854622)
(X_277  0.02450980618596077)
(X_278  0.13235294818878174)
(X_279  0.12843137979507446)
(X_280  0.39313724637031555)
(X_281  0.385294109582901)
(X_282  0.39313724637031555)
(X_283  0.40882351994514465)
(X_284  0.4049019515514374)
(X_285  0.3813725411891937)
(X_286  0.3578431308269501)
(X_287  0.34607842564582825)
(X_288  0.3088235557079315)
(X_289  0.2696078419685364)
(X_290  0.2186274528503418)
(X_291  0.1715686321258545)
(X_292  0.1401960849761963)
(X_293  0.03235294297337532)
(X_294  0.028431374579668045)
(X_295  0.028431374579668045)
(X_296  0.136274516582489)
(X_297  0.1558823585510254)
(X_298  0.1872549057006836)
(X_299  0.12647059559822083)
(X_300  0.1617647111415863)
(X_301  0.18529412150382996)
(X_302  0.30490198731422424)
(X_303  0.3127451241016388)
(X_304  0.3598039448261261)
(X_305  0.27156862616539)
(X_306  0.27941176295280457)
(X_307  0.28333333134651184)
(X_308  0.31078431010246277)
(X_309  0.29901960492134094)
(X_310  0.2872548997402191)
(X_311  0.2872548997402191)
(X_312  0.2911764681339264)
(X_313  0.2911764681339264)
(X_314  0.2872548997402191)
(X_315  0.387254923582077)
(X_316  0.37745097279548645)
(X_317  0.36176469922065735)
(X_318  0.33039215207099915)
(X_319  0.29509803652763367)
(X_320  0.3598039448261261)
(X_321  0.3284313976764679)
(X_322  0.30098041892051697)
(X_323  0.18921568989753723)
(X_324  0.2754901945590973)
(X_325  0.3911764919757843)
(X_326  0.41862747073173523)
(X_327  0.34607842564582825)
(X_328  0.3656862676143646)
(X_329  0.37745097279548645)
(X_330  0.3813725411891937)
(X_331  0.3813725411891937)
(X_332  0.46176472306251526)
(X_333  0.4735294282436371)
(X_334  0.48137256503105164)
(X_335  0.4852941334247589)
(X_336  0.18921568989753723)
(X_337  0.28921568393707275)
(X_338  0.18921568989753723)
(X_339  0.29313725233078003)
(X_340  0.3127451241016388)
(X_341  0.33235296607017517)
(X_342  0.240196093916893)
(X_343  0.240196093916893)
(X_344  0.3127451241016388)
(X_345  0.32058826088905334)
(X_346  0.3284313976764679)
(X_347  0.33235296607017517)
(X_348  0.33235296607017517)
(X_349  0.3284313976764679)
(X_350  0.32058826088905334)
(X_351  0.22058825194835663)
(X_352  0.2558823525905609)
(X_353  0.3637255132198334)
(X_354  0.3794117867946625)
(X_355  0.3911764919757843)
(X_356  0.29509803652763367)
(X_357  0.29509803652763367)
(X_358  0.2872548997402191)
(X_359  0.27941176295280457)
(X_360  0.3911764919757843)
(X_361  0.39901962876319885)
(X_362  0.4068627655506134)
(X_363  0.4068627655506134)
(X_364  0.3735294044017792)
(X_365  0.37745097279548645)
(X_366  0.3696078360080719)
(X_367  0.44607844948768616)
(X_368  0.4264706075191498)
(X_369  0.39901962876319885)
(X_370  0.3598039448261261)
(X_371  0.3245098292827606)
(X_372  0.2088235467672348)
(X_373  0.2088235467672348)
(X_374  0.20490197837352753)
(X_375  0.2970588207244873)
(X_376  0.29313725233078003)
(X_377  0.30098041892051697)
(X_378  0.21666668355464935)
(X_379  0.22843138873577118)
(X_380  0.20490197837352753)
(X_381  0.3127451241016388)
(X_382  0.3245098292827606)
(X_383  0.33235296607017517)
(X_384  0.3401961028575897)
(X_385  0.23627452552318573)
(X_386  0.23627452552318573)
(X_387  0.23235295712947845)
(X_388  0.3088235557079315)
(X_389  0.21274511516094208)
(X_390  0.21274511516094208)
(X_391  0.20490197837352753)
(X_392  0.42450979351997375)
(X_393  0.45196080207824707)
(X_394  0.479411780834198)
(X_395  0.595098078250885)
(X_396  0.6264706254005432)
(X_397  0.6500000357627869)
(X_398  0.6460784673690796)
(X_399  0.6264706254005432)
(X_400  0.4480392038822174)
(X_401  0.5401960611343384)
(X_402  0.42843136191368103)
(X_403  0.4049019515514374)
(X_404  0.3892156779766083)
(X_405  0.3892156779766083)
(X_406  0.40882351994514465)
(X_407  0.5245097875595093)
(X_408  0.4362744987010956)
(X_409  0.4323529303073883)
(X_410  0.42843136191368103)
(X_411  0.4205882251262665)
(X_412  0.40882351994514465)
(X_413  0.49705883860588074)
(X_414  0.4852941334247589)
(X_415  0.47745099663734436)
(X_416  0.39313724637031555)
(X_417  0.3892156779766083)
(X_418  0.48137256503105164)
(X_419  0.4696078598499298)
(X_420  0.20098040997982025)
(X_421  0.31666669249534607)
(X_422  0.3245098292827606)
(X_423  0.32058826088905334)
(X_424  0.3480392396450043)
(X_425  0.387254923582077)
(X_426  0.40294119715690613)
(X_427  0.3911764919757843)
(X_428  0.36764708161354065)
(X_429  0.38333335518836975)
(X_430  0.39901962876319885)
(X_431  0.31078431010246277)
(X_432  0.41862747073173523)
(X_433  0.43431374430656433)
(X_434  0.46176472306251526)
(X_435  0.3813725411891937)
(X_436  0.36176469922065735)
(X_437  0.3696078360080719)
(X_438  0.385294109582901)
(X_439  0.4049019515514374)
(X_440  0.5245097875595093)
(X_441  0.5480391979217529)
(X_442  0.4598039388656616)
(X_443  0.47156864404678345)
(X_444  0.46764707565307617)
(X_445  0.5598039627075195)
(X_446  0.5480391979217529)
(X_447  0.5284313559532166)
(X_448  0.15000000596046448)
(X_449  0.24607843160629272)
(X_450  0.24215686321258545)
(X_451  0.2343137264251709)
(X_452  0.23039215803146362)
(X_453  0.1303921639919281)
(X_454  0.23039215803146362)
(X_455  0.1303921639919281)
(X_456  0.1617647111415863)
(X_457  0.1617647111415863)
(X_458  0.15784314274787903)
(X_459  0.15784314274787903)
(X_460  0.1617647111415863)
(X_461  0.2774509787559509)
(X_462  0.30098041892051697)
(X_463  0.32058826088905334)
(X_464  0.2852941155433655)
(X_465  0.27352941036224365)
(X_466  0.2617647051811218)
(X_467  0.15784314274787903)
(X_468  0.17352941632270813)
(X_469  0.18921568989753723)
(X_470  0.20490197837352753)
(X_471  0.2088235467672348)
(X_472  0.3127451241016388)
(X_473  0.3127451241016388)
(X_474  0.21274511516094208)
(X_475  0.3127451241016388)
(X_476  0.07549020648002625)
(X_477  0.07549020648002625)
(X_478  0.0676470622420311)
(X_479  0.06372549384832382)
(X_480  0.06372549384832382)
(X_481  0.05980392172932625)
(X_482  0.06372549384832382)
(X_483  0.06372549384832382)
(X_484  0.07549020648002625)
(X_485  0.07941177487373352)
(X_486  0.07941177487373352)
(X_487  0.07941177487373352)
(X_488  0.17941176891326904)
(X_489  0.19117647409439087)
(X_490  0.21078431606292725)
(X_491  0.22647058963775635)
(X_492  0.2029411792755127)
(X_493  0.19117647409439087)
(X_494  0.0833333432674408)
(X_495  0.0833333432674408)
(X_496  0.09117648005485535)
(X_497  0.20686274766921997)
(X_498  0.114705890417099)
(X_499  0.21470588445663452)
(X_500  0.21078431606292725)
(X_501  0.21078431606292725)
(X_502  0.11078432202339172)
(X_503  0.11078432202339172)
(X_504  0.036274511367082596)
(X_505  0.03235294297337532)
(X_506  0.028431374579668045)
(X_507  0.12843137979507446)
(X_508  0.12843137979507446)
(X_509  0.12843137979507446)
(X_510  0.12843137979507446)
(X_511  0.03235294297337532)
(X_512  0.12450980395078659)
(X_513  0.13235294818878174)
(X_514  0.036274511367082596)
(X_515  0.036274511367082596)
(X_516  0.03235294297337532)
(X_517  0.04019607976078987)
(X_518  0.04803921654820442)
(X_519  0.15980392694473267)
(X_520  0.14803922176361084)
(X_521  0.1401960849761963)
(X_522  0.136274516582489)
(X_523  0.036274511367082596)
(X_524  0.04411764815449715)
(X_525  0.0519607849419117)
(X_526  0.0519607849419117)
(X_527  0.04803921654820442)
(X_528  0.04803921654820442)
(X_529  0.14803922176361084)
(X_530  0.04803921654820442)
(X_531  0.04803921654820442)
(X_532  0.03235294297337532)
(X_533  0.13235294818878174)
(X_534  0.028431374579668045)
(X_535  0.028431374579668045)
(X_536  0.028431374579668045)
(X_537  0.13235294818878174)
(X_538  0.136274516582489)
(X_539  0.136274516582489)
(X_540  0.12058823555707932)
(X_541  0.12843137979507446)
(X_542  0.036274511367082596)
(X_543  0.036274511367082596)
(X_544  0.03235294297337532)
(X_545  0.028431374579668045)
(X_546  0.03235294297337532)
(X_547  0.136274516582489)
(X_548  0.1401960849761963)
(X_549  0.136274516582489)
(X_550  0.13235294818878174)
(X_551  0.136274516582489)
(X_552  0.04019607976078987)
(X_553  0.04019607976078987)
(X_554  0.036274511367082596)
(X_555  0.028431374579668045)
(X_556  0.04019607976078987)
(X_557  0.04019607976078987)
(X_558  0.04019607976078987)
(X_559  0.04019607976078987)
(X_560  0.02450980618596077)
(X_561  0.020588237792253494)
(X_562  0.020588237792253494)
(X_563  0.01666666939854622)
(X_564  0.020588237792253494)
(X_565  0.020588237792253494)
(X_566  0.02450980618596077)
(X_567  0.028431374579668045)
(X_568  0.10882353037595749)
(X_569  0.020588237792253494)
(X_570  0.028431374579668045)
(X_571  0.028431374579668045)
(X_572  0.12058823555707932)
(X_573  0.01666666939854622)
(X_574  0.01666666939854622)
(X_575  0.020588237792253494)
(X_576  0.12450980395078659)
(X_577  0.12450980395078659)
(X_578  0.12058823555707932)
(X_579  0.12450980395078659)
(X_580  0.028431374579668045)
(X_581  0.028431374579668045)
(X_582  0.020588237792253494)
(X_583  0.008823529817163944)
(X_584  0.02450980618596077)
(X_585  0.12450980395078659)
(X_586  0.12450980395078659)
(X_587  0.12450980395078659)
(X_588  0.020588237792253494)
(X_589  0.11666666716337204)
(X_590  0.012745101936161518)
(X_591  0.012745101936161518)
(X_592  0.10882353037595749)
(X_593  0.012745101936161518)
(X_594  0.012745101936161518)
(X_595  0.01666666939854622)
(X_596  0.008823529817163944)
(X_597  0.012745101936161518)
(X_598  0.020588237792253494)
(X_599  0.12058823555707932)
(X_600  0.11274509876966476)
(X_601  0.10882353037595749)
(X_602  0.10882353037595749)
(X_603  0.11274509876966476)
(X_604  0.11666666716337204)
(X_605  0.11274509876966476)
(X_606  0.11274509876966476)
(X_607  0.11666666716337204)
(X_608  0.12058823555707932)
(X_609  0.12058823555707932)
(X_610  0.11274509876966476)
(X_611  0.004901961423456669)
(X_612  0.008823529817163944)
(X_613  0.10882353037595749)
(X_614  0.10882353037595749)
(X_615  0.10882353037595749)
(X_616  0.12450980395078659)
(X_617  0.12058823555707932)
(X_618  0.11666666716337204)
(X_619  0.11274509876966476)
(X_620  0.008823529817163944)
(X_621  0.008823529817163944)
(X_622  0.10882353037595749)
(X_623  0.012745101936161518)
(X_624  0.10882353037595749)
(X_625  0.11274509876966476)
(X_626  0.11666666716337204)
(X_627  0.01666666939854622)
(X_628  0.008823529817163944)
(X_629  0.008823529817163944)
(X_630  0.012745101936161518)
(X_631  0.12058823555707932)
(X_632  0.01666666939854622)
(X_633  0.012745101936161518)
(X_634  0.10882353037595749)
(X_635  0.10882353037595749)
(X_636  0.11666666716337204)
(X_637  0.12058823555707932)
(X_638  0.11666666716337204)
(X_639  0.11274509876966476)
(X_640  0.11274509876966476)
(X_641  0.11274509876966476)
(X_642  0.012745101936161518)
(X_643  0.012745101936161518)
(X_644  0.12058823555707932)
(X_645  0.11666666716337204)
(X_646  0.008823529817163944)
(X_647  0.004901961423456669)
(X_648  0.0009803927969187498)
(X_649  -0.0029411755967885256)
(X_650  -0.0029411755967885256)
(X_651  -0.0029411755967885256)
(X_652  -0.0029411755967885256)
(X_653  0.0009803927969187498)
(X_654  0.004901961423456669)
(X_655  0.0009803927969187498)
(X_656  -0.0029411755967885256)
(X_657  0.09705882519483566)
(X_658  0.10490196198225021)
(X_659  0.11274509876966476)
(X_660  0.10490196198225021)
(X_661  -0.0029411755967885256)
(X_662  -0.006862743757665157)
(X_663  -0.006862743757665157)
(X_664  0.0009803927969187498)
(X_665  0.008823529817163944)
(X_666  0.008823529817163944)
(X_667  0.004901961423456669)
(X_668  0.01666666939854622)
(X_669  0.01666666939854622)
(X_670  0.11666666716337204)
(X_671  0.11666666716337204)
(X_672  -0.0029411755967885256)
(X_673  0.09705882519483566)
(X_674  0.09705882519483566)
(X_675  0.10098039358854294)
(X_676  0.10098039358854294)
(X_677  0.10490196198225021)
(X_678  0.10490196198225021)
(X_679  0.10490196198225021)
(X_680  0.09313725680112839)
(X_681  0.10098039358854294)
(X_682  0.10490196198225021)
(X_683  0.10490196198225021)
(X_684  0.09705882519483566)
(X_685  0.09705882519483566)
(X_686  0.10098039358854294)
(X_687  0.10882353037595749)
(X_688  0.09705882519483566)
(X_689  0.09705882519483566)
(X_690  0.09705882519483566)
(X_691  0.09705882519483566)
(X_692  0.09705882519483566)
(X_693  0.09705882519483566)
(X_694  0.09705882519483566)
(X_695  0.09705882519483566)
(X_696  0.10098039358854294)
(X_697  0.0009803927969187498)
(X_698  0.0009803927969187498)
(X_699  0.004901961423456669)
(X_700  -0.0029411755967885256)
(X_701  0.09705882519483566)
(X_702  0.09705882519483566)
(X_703  0.10098039358854294)
(X_704  0.10098039358854294)
(X_705  0.10490196198225021)
(X_706  0.10490196198225021)
(X_707  0.10490196198225021)
(X_708  -0.0029411755967885256)
(X_709  0.0009803927969187498)
(X_710  0.004901961423456669)
(X_711  0.004901961423456669)
(X_712  -0.0029411755967885256)
(X_713  -0.0029411755967885256)
(X_714  0.0009803927969187498)
(X_715  0.10490196198225021)
(X_716  -0.0029411755967885256)
(X_717  -0.0029411755967885256)
(X_718  -0.0029411755967885256)
(X_719  -0.0029411755967885256)
(X_720  -0.0029411755967885256)
(X_721  -0.0029411755967885256)
(X_722  -0.0029411755967885256)
(X_723  -0.0029411755967885256)
(X_724  0.0009803927969187498)
(X_725  0.0009803927969187498)
(X_726  0.0009803927969187498)
(X_727  0.004901961423456669)
(X_728  -0.0029411755967885256)
(X_729  0.09705882519483566)
(X_730  -0.0029411755967885256)
(X_731  0.10098039358854294)
(X_732  0.10098039358854294)
(X_733  0.10490196198225021)
(X_734  0.10490196198225021)
(X_735  0.10490196198225021)
(X_736  -0.0029411755967885256)
(X_737  0.0009803927969187498)
(X_738  0.004901961423456669)
(X_739  0.0009803927969187498)
(X_740  -0.0029411755967885256)
(X_741  -0.006862743757665157)
(X_742  -0.0029411755967885256)
(X_743  0.004901961423456669)
(X_744  -0.0029411755967885256)
(X_745  -0.0029411755967885256)
(X_746  -0.0029411755967885256)
(X_747  -0.0029411755967885256)
(X_748  -0.0029411755967885256)
(X_749  0.09705882519483566)
(X_750  0.09705882519483566)
(X_751  0.09705882519483566)
(X_752  0.10098039358854294)
(X_753  0.10098039358854294)
(X_754  0.10098039358854294)
(X_755  0.10490196198225021)
(X_756  -0.0029411755967885256)
(X_757  -0.0029411755967885256)
(X_758  -0.0029411755967885256)
(X_759  0.0009803927969187498)
(X_760  0.10098039358854294)
(X_761  0.10490196198225021)
(X_762  0.10490196198225021)
(X_763  0.10490196198225021)
(X_764  0.09705882519483566)
(X_765  0.10098039358854294)
(X_766  0.10490196198225021)
(X_767  0.10098039358854294)
(X_768  0.09313725680112839)
(X_769  0.08921568840742111)
(X_770  0.09313725680112839)
(X_771  0.10098039358854294)
(X_772  -0.0029411755967885256)
(X_773  -0.0029411755967885256)
(X_774  -0.0029411755967885256)
(X_775  -0.0029411755967885256)
(X_776  -0.0029411755967885256)
(X_777  -0.0029411755967885256)
(X_778  -0.0029411755967885256)
(X_779  0.09705882519483566)
(X_780  0.10098039358854294)
(X_781  0.0009803927969187498)
(X_782  0.0009803927969187498)
(X_783  0.004901961423456669)
(Y_0 21.513572692871094)
(Y_1 5.196840763092041)
(Y_2 -1.1442725658416748)
(Y_3 -26.95716667175293))