((X_0  1.0499999523162842)
(X_1  0.949999988079071)
(X_2  0.949999988079071)
(X_3  0.949999988079071)
(X_4  0.949999988079071)
(X_5  1.0499999523162842)
(X_6  1.0499999523162842)
(X_7  0.959384024143219)
(X_8  1.0499999523162842)
(X_9  1.0499999523162842)
(X_10  1.0499999523162842)
(X_11  1.0499999523162842)
(X_12  0.949999988079071)
(X_13  0.949999988079071)
(X_14  0.949999988079071)
(X_15  0.949999988079071)
(X_16  0.9460784196853638)
(X_17  0.9460784196853638)
(X_18  0.9460784196853638)
(X_19  0.9550505876541138)
(X_20  1.0499999523162842)
(X_21  1.0499999523162842)
(X_22  1.0499999523162842)
(X_23  1.0499999523162842)
(X_24  1.0382353067398071)
(X_25  1.0382353067398071)
(X_26  1.0421568155288696)
(X_27  0.949999988079071)
(X_28  1.022549033164978)
(X_29  1.0264705419540405)
(X_30  0.9303921461105347)
(X_31  0.9382352828979492)
(X_32  0.9460784196853638)
(X_33  0.949999988079071)
(X_34  0.949999988079071)
(X_35  0.949999988079071)
(X_36  0.9460784196853638)
(X_37  1.0460784435272217)
(X_38  0.9511290192604065)
(X_39  0.9421568512916565)
(X_40  0.9382352828979492)
(X_41  0.9382352828979492)
(X_42  1.034313678741455)
(X_43  1.034313678741455)
(X_44  1.0499999523162842)
(X_45  1.0499999523162842)
(X_46  1.0499999523162842)
(X_47  1.0499999523162842)
(X_48  1.0499999523162842)
(X_49  1.0460784435272217)
(X_50  0.9421568512916565)
(X_51  0.9421568512916565)
(X_52  1.0499999523162842)
(X_53  1.0499999523162842)
(X_54  0.949999988079071)
(X_55  0.9421568512916565)
(X_56  1.0499999523162842)
(X_57  0.949999988079071)
(X_58  0.949999988079071)
(X_59  0.949999988079071)
(X_60  0.949999988079071)
(X_61  0.949999988079071)
(X_62  0.9421568512916565)
(X_63  0.9382352828979492)
(X_64  0.9460784196853638)
(X_65  0.949999988079071)
(X_66  0.949999988079071)
(X_67  0.959384024143219)
(X_68  1.0499999523162842)
(X_69  0.949999988079071)
(X_70  0.949999988079071)
(X_71  0.949999988079071)
(X_72  0.9029411673545837)
(X_73  0.8950980305671692)
(X_74  0.9754902124404907)
(X_75  0.8519607782363892)
(X_76  0.9245098233222961)
(X_77  0.9009804129600525)
(X_78  0.8813725709915161)
(X_79  0.8735294342041016)
(X_80  0.7754902243614197)
(X_81  0.7598039507865906)
(X_82  0.6284313797950745)
(X_83  0.6009804010391235)
(X_84  0.7754902243614197)
(X_85  0.7676470875740051)
(X_86  0.6519607901573181)
(X_87  0.6284313797950745)
(X_88  0.6049019694328308)
(X_89  0.5946781635284424)
(X_90  0.5696078538894653)
(X_91  0.5578431487083435)
(X_92  0.522549033164978)
(X_93  0.5029411911964417)
(X_94  0.46764707565307617)
(X_95  0.4205882251262665)
(X_96  0.4735294282436371)
(X_97  0.4264706075191498)
(X_98  0.2911764681339264)
(X_99  0.27156862616539)
(X_100  0.344117671251297)
(X_101  0.33235296607017517)
(X_102  0.3127451241016388)
(X_103  0.2813725471496582)
(X_104  0.15392157435417175)
(X_105  0.12647059559822083)
(X_106  0.10294118523597717)
(X_107  0.09117648005485535)
(X_108  0.09509804844856262)
(X_109  0.07941177487373352)
(X_110  0.05980392172932625)
(X_111  0.036274511367082596)
(X_112  0.09271740168333054)
(X_113  0.17941176891326904)
(X_114  0.07549020648002625)
(X_115  0.0676470622420311)
(X_116  0.05980392172932625)
(X_117  0.0519607849419117)
(X_118  0.04803921654820442)
(X_119  0.04411764815449715)
(X_120  0.036274511367082596)
(X_121  0.036274511367082596)
(X_122  0.04019607976078987)
(X_123  0.04411764815449715)
(X_124  0.14803922176361084)
(X_125  0.12941952049732208)
(X_126  0.05588235333561897)
(X_127  0.05980392172932625)
(X_128  0.15196079015731812)
(X_129  0.14803922176361084)
(X_130  0.14411765336990356)
(X_131  0.1401960849761963)
(X_132  0.136274516582489)
(X_133  0.12843137979507446)
(X_134  0.11512574553489685)
(X_135  0.12450980395078659)
(X_136  0.04799070209264755)
(X_137  0.03389386087656021)
(X_138  0.11666666716337204)
(X_139  0.10882353037595749)
(X_140  0.1401960849761963)
(X_141  0.1401960849761963)
(X_142  0.1401960849761963)
(X_143  0.1401960849761963)
(X_144  0.1401960849761963)
(X_145  0.1401960849761963)
(X_146  0.1401960849761963)
(X_147  0.1401960849761963)
(X_148  0.06526640802621841)
(X_149  0.13736549019813538)
(X_150  0.04411764815449715)
(X_151  0.036274511367082596)
(X_152  0.12450980395078659)
(X_153  0.11666666716337204)
(X_154  0.10882353037595749)
(X_155  0.10490196198225021)
(X_156  0.09535061568021774)
(X_157  0.1401960849761963)
(X_158  0.1401960849761963)
(X_159  0.14411765336990356)
(X_160  0.14411765336990356)
(X_161  0.14411765336990356)
(X_162  0.14803922176361084)
(X_163  0.14803922176361084)
(X_164  0.14803922176361084)
(X_165  0.04803921654820442)
(X_166  0.14803922176361084)
(X_167  0.14411765336990356)
(X_168  0.04803921654820442)
(X_169  0.14803922176361084)
(X_170  0.04411764815449715)
(X_171  0.04019607976078987)
(X_172  0.036274511367082596)
(X_173  0.028431374579668045)
(X_174  0.028431374579668045)
(X_175  0.02450980618596077)
(X_176  0.01666666939854622)
(X_177  0.09104659408330917)
(X_178  0.12843137979507446)
(X_179  0.136274516582489)
(X_180  0.14803922176361084)
(X_181  0.1558823585510254)
(X_182  0.06372549384832382)
(X_183  0.0676470622420311)
(X_184  0.1401960849761963)
(X_185  0.1401960849761963)
(X_186  0.136274516582489)
(X_187  0.13235294818878174)
(X_188  0.12450980395078659)
(X_189  0.020588237792253494)
(X_190  0.01666666939854622)
(X_191  0.11666666716337204)
(X_192  0.12058823555707932)
(X_193  0.12058823555707932)
(X_194  0.12058823555707932)
(X_195  0.12058823555707932)
(X_196  0.028431374579668045)
(X_197  0.12843137979507446)
(X_198  0.12843137979507446)
(X_199  0.12843137979507446)
(X_200  0.122968889772892)
(X_201  0.03235294297337532)
(X_202  0.09128037095069885)
(X_203  0.13235294818878174)
(X_204  0.04803921654820442)
(X_205  0.04803921654820442)
(X_206  0.04411764815449715)
(X_207  0.136274516582489)
(X_208  0.03235294297337532)
(X_209  0.02450980618596077)
(X_210  0.020588237792253494)
(X_211  0.020588237792253494)
(X_212  0.13235294818878174)
(X_213  0.13235294818878174)
(X_214  0.13235294818878174)
(X_215  0.136274516582489)
(X_216  0.136274516582489)
(X_217  0.136274516582489)
(X_218  0.1258522868156433)
(X_219  0.04019607976078987)
(X_220  0.136274516582489)
(X_221  0.036274511367082596)
(X_222  0.136274516582489)
(X_223  0.136274516582489)
(X_224  0.036274511367082596)
(X_225  0.036274511367082596)
(X_226  0.03235294297337532)
(X_227  0.13235294818878174)
(X_228  0.07514699548482895)
(X_229  0.020588237792253494)
(X_230  0.012745101936161518)
(X_231  0.09588225185871124)
(X_232  0.12843137979507446)
(X_233  0.1401960849761963)
(X_234  0.14803922176361084)
(X_235  0.14803922176361084)
(X_236  0.1401960849761963)
(X_237  0.03235294297337532)
(X_238  0.04173699766397476)
(X_239  0.03235294297337532)
(X_240  0.04019607976078987)
(X_241  0.12843137979507446)
(X_242  0.11666666716337204)
(X_243  0.11274509876966476)
(X_244  0.11666666716337204)
(X_245  0.12843137979507446)
(X_246  0.1401960849761963)
(X_247  0.04803921654820442)
(X_248  0.008823529817163944)
(X_249  0.0519607849419117)
(X_250  0.07549020648002625)
(X_251  0.16764706373214722)
(X_252  0.03235294297337532)
(X_253  0.03235294297337532)
(X_254  0.03235294297337532)
(X_255  0.136274516582489)
(X_256  0.13235294818878174)
(X_257  0.13235294818878174)
(X_258  0.13235294818878174)
(X_259  0.12843137979507446)
(X_260  0.004901961423456669)
(X_261  0.008823529817163944)
(X_262  0.11666666716337204)
(X_263  0.12058823555707932)
(X_264  0.12843137979507446)
(X_265  0.13235294818878174)
(X_266  0.1401960849761963)
(X_267  0.14803922176361084)
(X_268  0.06068200618028641)
(X_269  0.13235294818878174)
(X_270  0.12843137979507446)
(X_271  0.028431374579668045)
(X_272  0.03235294297337532)
(X_273  0.03235294297337532)
(X_274  0.13235294818878174)
(X_275  0.12843137979507446)
(X_276  0.10686275362968445)
(X_277  0.17352941632270813)
(X_278  0.24411766231060028)
(X_279  0.26764705777168274)
(X_280  0.02450980618596077)
(X_281  0.02450980618596077)
(X_282  0.02450980618596077)
(X_283  0.028431374579668045)
(X_284  0.028431374579668045)
(X_285  0.12843137979507446)
(X_286  0.12843137979507446)
(X_287  0.12843137979507446)
(X_288  0.036274511367082596)
(X_289  0.028431374579668045)
(X_290  0.020588237792253494)
(X_291  0.11666666716337204)
(X_292  0.12450980395078659)
(X_293  0.028431374579668045)
(X_294  0.03235294297337532)
(X_295  0.03235294297337532)
(X_296  0.02450980618596077)
(X_297  0.04019607976078987)
(X_298  0.04411764815449715)
(X_299  0.02450980618596077)
(X_300  0.01666666939854622)
(X_301  0.16372549533843994)
(X_302  0.2617647051811218)
(X_303  0.24411766231060028)
(X_304  0.31078431010246277)
(X_305  0.41470590233802795)
(X_306  0.32647058367729187)
(X_307  0.3343137204647064)
(X_308  0.028431374579668045)
(X_309  0.12554755806922913)
(X_310  0.02450980618596077)
(X_311  0.02450980618596077)
(X_312  0.028431374579668045)
(X_313  0.028431374579668045)
(X_314  0.03235294297337532)
(X_315  0.03235294297337532)
(X_316  0.0519607849419117)
(X_317  0.04411764815449715)
(X_318  0.03235294297337532)
(X_319  0.11055151373147964)
(X_320  0.136274516582489)
(X_321  0.04019607976078987)
(X_322  0.03235294297337532)
(X_323  0.02450980618596077)
(X_324  0.02450980618596077)
(X_325  0.020588237792253494)
(X_326  0.020588237792253494)
(X_327  0.14803922176361084)
(X_328  0.2029411792755127)
(X_329  0.28921568393707275)
(X_330  0.37002772092819214)
(X_331  0.42885124683380127)
(X_332  0.35196080803871155)
(X_333  0.2774509787559509)
(X_334  0.13431373238563538)
(X_335  0.16960784792900085)
(X_336  0.02450980618596077)
(X_337  0.02450980618596077)
(X_338  0.12450980395078659)
(X_339  0.12450980395078659)
(X_340  0.12843137979507446)
(X_341  0.136274516582489)
(X_342  0.04411764815449715)
(X_343  0.04803921654820442)
(X_344  0.01930432766675949)
(X_345  0.11666666716337204)
(X_346  0.04440697282552719)
(X_347  0.028431374579668045)
(X_348  0.036274511367082596)
(X_349  0.036274511367082596)
(X_350  0.06848811358213425)
(X_351  0.13235294818878174)
(X_352  0.12450980395078659)
(X_353  0.012745101936161518)
(X_354  0.04803921654820442)
(X_355  0.15392157435417175)
(X_356  0.26764705777168274)
(X_357  0.38571399450302124)
(X_358  0.32058826088905334)
(X_359  0.23039215803146362)
(X_360  0.1303921639919281)
(X_361  0.16610613465309143)
(X_362  0.0676470622420311)
(X_363  0.14215686917304993)
(X_364  0.028431374579668045)
(X_365  0.02450980618596077)
(X_366  0.11120417714118958)
(X_367  0.11666666716337204)
(X_368  0.12058823555707932)
(X_369  0.12450980395078659)
(X_370  0.03235294297337532)
(X_371  0.036274511367082596)
(X_372  0.01666666939854622)
(X_373  0.020588237792253494)
(X_374  0.06996934115886688)
(X_375  0.11666666716337204)
(X_376  0.10490196198225021)
(X_377  0.01680942252278328)
(X_378  0.004901961423456669)
(X_379  0.012745101936161518)
(X_380  0.03235294297337532)
(X_381  0.10200051218271255)
(X_382  0.2852941155433655)
(X_383  0.3637255132198334)
(X_384  0.27941176295280457)
(X_385  0.23235295712947845)
(X_386  0.15000000596046448)
(X_387  0.08725491166114807)
(X_388  0.2656862735748291)
(X_389  0.2970588207244873)
(X_390  0.261344850063324)
(X_391  0.3029411733150482)
(X_392  0.19747868180274963)
(X_393  0.19509804248809814)
(X_394  0.17549020051956177)
(X_395  0.1558823585510254)
(X_396  0.1401960849761963)
(X_397  0.12843137979507446)
(X_398  0.12450980395078659)
(X_399  0.12450980395078659)
(X_400  0.12450980395078659)
(X_401  0.13235294818878174)
(X_402  0.136274516582489)
(X_403  0.12058823555707932)
(X_404  0.0009803927969187498)
(X_405  0.008823529817163944)
(X_406  0.036274511367082596)
(X_407  0.0676470622420311)
(X_408  0.13823530077934265)
(X_409  0.20490197837352753)
(X_410  0.26372548937797546)
(X_411  0.3558823764324188)
(X_412  0.29313725233078003)
(X_413  0.2539215683937073)
(X_414  0.2696078419685364)
(X_415  0.30490198731422424)
(X_416  0.1931372582912445)
(X_417  0.24803923070430756)
(X_418  0.29901960492134094)
(X_419  0.3029411733150482)
(X_420  0.23235295712947845)
(X_421  0.21274511516094208)
(X_422  0.2774509787559509)
(X_423  0.2343137264251709)
(X_424  0.09509804844856262)
(X_425  0.06372549384832382)
(X_426  0.04411764815449715)
(X_427  0.136274516582489)
(X_428  0.09313725680112839)
(X_429  0.11274509876966476)
(X_430  0.12720322608947754)
(X_431  0.028431374579668045)
(X_432  0.028431374579668045)
(X_433  0.16764706373214722)
(X_434  0.1677917093038559)
(X_435  0.19705882668495178)
(X_436  0.3778708577156067)
(X_437  0.3425767421722412)
(X_438  0.21820759773254395)
(X_439  0.2852941155433655)
(X_440  0.2813725471496582)
(X_441  0.18529412150382996)
(X_442  0.18137255311012268)
(X_443  0.1774509847164154)
(X_444  0.26372548937797546)
(X_445  0.26764705777168274)
(X_446  0.2245098203420639)
(X_447  0.2539215683937073)
(X_448  0.27879345417022705)
(X_449  0.18529412150382996)
(X_450  0.2687171697616577)
(X_451  0.28921568393707275)
(X_452  0.28921568393707275)
(X_453  0.16960784792900085)
(X_454  0.16407878696918488)
(X_455  0.19509804248809814)
(X_456  0.16764706373214722)
(X_457  0.1558823585510254)
(X_458  0.15196079015731812)
(X_459  0.17941176891326904)
(X_460  0.22647058963775635)
(X_461  0.23320621252059937)
(X_462  0.3088235557079315)
(X_463  0.32058826088905334)
(X_464  0.2852941155433655)
(X_465  0.2103644609451294)
(X_466  0.2245098203420639)
(X_467  0.33235296607017517)
(X_468  0.3088235557079315)
(X_469  0.28921568393707275)
(X_470  0.3127451241016388)
(X_471  0.35196080803871155)
(X_472  0.3911764919757843)
(X_473  0.3284313976764679)
(X_474  0.24215686321258545)
(X_475  0.17941176891326904)
(X_476  0.12254902720451355)
(X_477  0.12254902720451355)
(X_478  0.12647059559822083)
(X_479  0.15000000596046448)
(X_480  0.16568627953529358)
(X_481  0.16568627953529358)
(X_482  0.14215686917304993)
(X_483  0.12254902720451355)
(X_484  0.18809157609939575)
(X_485  0.22647058963775635)
(X_486  0.19778724014759064)
(X_487  0.114705890417099)
(X_488  0.12254902720451355)
(X_489  0.1460784375667572)
(X_490  0.1774509847164154)
(X_491  0.20098040997982025)
(X_492  0.2598039209842682)
(X_493  0.27156862616539)
(X_494  0.29509803652763367)
(X_495  0.29509803652763367)
(X_496  0.3637255132198334)
(X_497  0.31666669249534607)
(X_498  0.30490198731422424)
(X_499  0.32058826088905334)
(X_500  0.27352941036224365)
(X_501  0.1303921639919281)
(X_502  0.07941177487373352)
(X_503  0.04411764815449715)
(X_504  0.24215686321258545)
(X_505  0.24215686321258545)
(X_506  0.25)
(X_507  0.2696078419685364)
(X_508  0.1931372582912445)
(X_509  0.20098040997982025)
(X_510  0.18921568989753723)
(X_511  0.1774509847164154)
(X_512  0.20098040997982025)
(X_513  0.20490197837352753)
(X_514  0.2955179214477539)
(X_515  0.28122979402542114)
(X_516  0.18921568989753723)
(X_517  0.2088235467672348)
(X_518  0.24803923070430756)
(X_519  0.27941176295280457)
(X_520  0.3186274468898773)
(X_521  0.3068627417087555)
(X_522  0.29901960492134094)
(X_523  0.2872548997402191)
(X_524  0.24411766231060028)
(X_525  0.29313725233078003)
(X_526  0.2617647051811218)
(X_527  0.25784313678741455)
(X_528  0.1684577465057373)
(X_529  0.0676470622420311)
(X_530  0.04803921654820442)
(X_531  0.04411764815449715)
(X_532  0.30490198731422424)
(X_533  0.30490198731422424)
(X_534  0.3127451241016388)
(X_535  0.33235296607017517)
(X_536  0.2558823525905609)
(X_537  0.27156862616539)
(X_538  0.2754901945590973)
(X_539  0.36764708161354065)
(X_540  0.2598039209842682)
(X_541  0.26764705777168274)
(X_542  0.2754901945590973)
(X_543  0.2754901945590973)
(X_544  0.27941176295280457)
(X_545  0.2911764681339264)
(X_546  0.3186274468898773)
(X_547  0.3343137204647064)
(X_548  0.4107843339443207)
(X_549  0.27156862616539)
(X_550  0.22843138873577118)
(X_551  0.19705882668495178)
(X_552  0.2424120455980301)
(X_553  0.23039215803146362)
(X_554  0.114705890417099)
(X_555  0.11862745881080627)
(X_556  0.16372549533843994)
(X_557  0.05588235333561897)
(X_558  0.11241096258163452)
(X_559  0.053275443613529205)
(X_560  0.27879345417022705)
(X_561  0.19705882668495178)
(X_562  0.2088235467672348)
(X_563  0.23235295712947845)
(X_564  0.2558823525905609)
(X_565  0.2754901945590973)
(X_566  0.28333333134651184)
(X_567  0.2872548997402191)
(X_568  0.26764705777168274)
(X_569  0.292916476726532)
(X_570  0.35196080803871155)
(X_571  0.35344091057777405)
(X_572  0.2558823525905609)
(X_573  0.25196078419685364)
(X_574  0.23627452552318573)
(X_575  0.22058825194835663)
(X_576  0.22843138873577118)
(X_577  0.18921568989753723)
(X_578  0.15000000596046448)
(X_579  0.23039215803146362)
(X_580  0.21078431606292725)
(X_581  0.19117647409439087)
(X_582  0.1872549057006836)
(X_583  0.19117647409439087)
(X_584  0.14803922176361084)
(X_585  0.04019607976078987)
(X_586  0.12689045071601868)
(X_587  0.05489422380924225)
(X_588  0.2539215683937073)
(X_589  0.15784314274787903)
(X_590  0.1617647111415863)
(X_591  0.1707369089126587)
(X_592  0.2656862735748291)
(X_593  0.2656862735748291)
(X_594  0.2656862735748291)
(X_595  0.1617647111415863)
(X_596  0.2656862735748291)
(X_597  0.15000000596046448)
(X_598  0.13823530077934265)
(X_599  0.14215686917304993)
(X_600  0.1460784375667572)
(X_601  0.13431373238563538)
(X_602  0.10686275362968445)
(X_603  0.0833333432674408)
(X_604  0.20686274766921997)
(X_605  0.10230515897274017)
(X_606  0.17394927144050598)
(X_607  0.19117647409439087)
(X_608  0.10681423544883728)
(X_609  0.06372549384832382)
(X_610  0.04803921654820442)
(X_611  0.04803921654820442)
(X_612  0.03235294297337532)
(X_613  0.028431374579668045)
(X_614  0.12058823555707932)
(X_615  0.11666666716337204)
(X_616  0.21470588445663452)
(X_617  0.2186274528503418)
(X_618  0.11862745881080627)
(X_619  0.21470588445663452)
(X_620  0.2029411792755127)
(X_621  0.19117647409439087)
(X_622  0.17941176891326904)
(X_623  0.07549020648002625)
(X_624  0.17941176891326904)
(X_625  0.17549020051956177)
(X_626  0.1715686321258545)
(X_627  0.16764706373214722)
(X_628  0.06372549384832382)
(X_629  0.06372549384832382)
(X_630  0.05588235333561897)
(X_631  0.0519607849419117)
(X_632  0.0519607849419117)
(X_633  0.04411764815449715)
(X_634  0.04803921654820442)
(X_635  0.05980392172932625)
(X_636  0.0519607849419117)
(X_637  0.12843137979507446)
(X_638  0.11666666716337204)
(X_639  0.12450980395078659)
(X_640  0.12450980395078659)
(X_641  0.12450980395078659)
(X_642  0.12058823555707932)
(X_643  0.11666666716337204)
(X_644  0.16372549533843994)
(X_645  0.17549020051956177)
(X_646  0.19509804248809814)
(X_647  0.20686274766921997)
(X_648  0.21470588445663452)
(X_649  0.21470588445663452)
(X_650  0.2186274528503418)
(X_651  0.2186274528503418)
(X_652  0.19901961088180542)
(X_653  0.0990196168422699)
(X_654  0.09509804844856262)
(X_655  0.07156863063573837)
(X_656  0.0519607849419117)
(X_657  0.04411764815449715)
(X_658  0.05588235333561897)
(X_659  0.07549020648002625)
(X_660  0.07549020648002625)
(X_661  0.15980392694473267)
(X_662  0.14803922176361084)
(X_663  0.14411765336990356)
(X_664  0.028431374579668045)
(X_665  0.012745101936161518)
(X_666  0.02450980618596077)
(X_667  0.04803921654820442)
(X_668  0.008823529817163944)
(X_669  0.012745101936161518)
(X_670  0.012745101936161518)
(X_671  0.008823529817163944)
(X_672  0.14411765336990356)
(X_673  0.04803921654820442)
(X_674  0.04803921654820442)
(X_675  0.13604886829853058)
(X_676  0.1558823585510254)
(X_677  0.15980392694473267)
(X_678  0.16372549533843994)
(X_679  0.16372549533843994)
(X_680  0.1558823585510254)
(X_681  0.15980392694473267)
(X_682  0.05980392172932625)
(X_683  0.05980392172932625)
(X_684  0.06093297898769379)
(X_685  0.0519607849419117)
(X_686  0.04803921654820442)
(X_687  0.04411764815449715)
(X_688  0.036274511367082596)
(X_689  0.04173699766397476)
(X_690  0.04173699766397476)
(X_691  0.12843137979507446)
(X_692  0.12450980395078659)
(X_693  0.12058823555707932)
(X_694  0.11666666716337204)
(X_695  0.11666666716337204)
(X_696  0.04125197231769562)
(X_697  0.10882353037595749)
(X_698  0.008823529817163944)
(X_699  0.008823529817163944)
(X_700  0.12843137979507446)
(X_701  0.13235294818878174)
(X_702  0.13235294818878174)
(X_703  0.1312238872051239)
(X_704  0.04019607976078987)
(X_705  0.04411764815449715)
(X_706  0.04803921654820442)
(X_707  0.04803921654820442)
(X_708  0.036274511367082596)
(X_709  0.136274516582489)
(X_710  0.136274516582489)
(X_711  0.136274516582489)
(X_712  0.136274516582489)
(X_713  0.13235294818878174)
(X_714  0.028431374579668045)
(X_715  0.02450980618596077)
(X_716  0.01666666939854622)
(X_717  0.01666666939854622)
(X_718  0.012745101936161518)
(X_719  0.008823529817163944)
(X_720  0.004901961423456669)
(X_721  0.004901961423456669)
(X_722  0.0009803927969187498)
(X_723  0.0009803927969187498)
(X_724  0.10098039358854294)
(X_725  0.10098039358854294)
(X_726  0.0009803927969187498)
(X_727  0.0009803927969187498)
(X_728  0.10882353037595749)
(X_729  0.11274509876966476)
(X_730  0.11274509876966476)
(X_731  0.11666666716337204)
(X_732  0.12058823555707932)
(X_733  0.12058823555707932)
(X_734  0.12450980395078659)
(X_735  0.12450980395078659)
(X_736  0.008823529817163944)
(X_737  0.008823529817163944)
(X_738  0.012745101936161518)
(X_739  0.012745101936161518)
(X_740  0.012745101936161518)
(X_741  0.008823529817163944)
(X_742  0.004901961423456669)
(X_743  0.0009803927969187498)
(X_744  0.004901961423456669)
(X_745  0.004901961423456669)
(X_746  0.10098039358854294)
(X_747  0.10098039358854294)
(X_748  0.09705882519483566)
(X_749  0.09313725680112839)
(X_750  0.08257238566875458)
(X_751  -0.006862743757665157)
(X_752  0.09313725680112839)
(X_753  0.09313725680112839)
(X_754  0.09313725680112839)
(X_755  0.09313725680112839)
(X_756  0.0009803927969187498)
(X_757  0.0009803927969187498)
(X_758  0.0009803927969187498)
(X_759  0.004901961423456669)
(X_760  0.004901961423456669)
(X_761  0.10882353037595749)
(X_762  0.10882353037595749)
(X_763  0.10882353037595749)
(X_764  0.09705882519483566)
(X_765  0.09705882519483566)
(X_766  0.07839538902044296)
(X_767  0.0009803927969187498)
(X_768  0.0009803927969187498)
(X_769  -0.0029411755967885256)
(X_770  -0.0029411755967885256)
(X_771  -0.006862743757665157)
(X_772  0.008823529817163944)
(X_773  0.008823529817163944)
(X_774  0.004901961423456669)
(X_775  0.004901961423456669)
(X_776  0.0009803927969187498)
(X_777  0.10098039358854294)
(X_778  0.0009803927969187498)
(X_779  -0.0029411755967885256)
(X_780  -0.010784312151372433)
(X_781  -0.010784312151372433)
(X_782  -0.010784312151372433)
(X_783  -0.010784312151372433)
(Y_0 -0.2631363868713379)
(Y_1 0.03801208734512329)
(Y_2 0.5385276079177856)
(Y_3 0.004976749420166016))