((X_0  0.14803922176361084)
(X_1  0.13235294818878174)
(X_2  0.11666666716337204)
(X_3  0.11274509876966476)
(X_4  0.11274509876966476)
(X_5  0.12058823555707932)
(X_6  0.020588237792253494)
(X_7  0.020588237792253494)
(X_8  0.02450980618596077)
(X_9  0.12450980395078659)
(X_10  0.12058823555707932)
(X_11  0.01666666939854622)
(X_12  0.01666666939854622)
(X_13  0.12058823555707932)
(X_14  0.13235294818878174)
(X_15  0.1401960849761963)
(X_16  0.01666666939854622)
(X_17  0.01666666939854622)
(X_18  0.01666666939854622)
(X_19  0.02450980618596077)
(X_20  0.03235294297337532)
(X_21  0.136274516582489)
(X_22  0.03235294297337532)
(X_23  0.02450980618596077)
(X_24  0.12843137979507446)
(X_25  0.12843137979507446)
(X_26  0.12843137979507446)
(X_27  0.12843137979507446)
(X_28  0.10882353037595749)
(X_29  0.11666666716337204)
(X_30  0.03235294297337532)
(X_31  0.136274516582489)
(X_32  0.04019607976078987)
(X_33  0.04019607976078987)
(X_34  0.04019607976078987)
(X_35  0.04411764815449715)
(X_36  0.028431374579668045)
(X_37  0.028431374579668045)
(X_38  0.12843137979507446)
(X_39  0.03235294297337532)
(X_40  0.028431374579668045)
(X_41  0.020588237792253494)
(X_42  0.0009803927969187498)
(X_43  -0.014705880545079708)
(X_44  0.012745101936161518)
(X_45  0.01666666939854622)
(X_46  0.12058823555707932)
(X_47  0.01666666939854622)
(X_48  0.008823529817163944)
(X_49  0.008823529817163944)
(X_50  0.01666666939854622)
(X_51  0.020588237792253494)
(X_52  0.10882353037595749)
(X_53  0.10882353037595749)
(X_54  0.11274509876966476)
(X_55  0.11274509876966476)
(X_56  0.11666666716337204)
(X_57  0.02450980618596077)
(X_58  0.028431374579668045)
(X_59  0.020588237792253494)
(X_60  0.0009803927969187498)
(X_61  -0.010784312151372433)
(X_62  -0.010784312151372433)
(X_63  -0.006862743757665157)
(X_64  0.008823529817163944)
(X_65  0.008823529817163944)
(X_66  0.008823529817163944)
(X_67  0.01666666939854622)
(X_68  0.02450980618596077)
(X_69  0.02450980618596077)
(X_70  0.01666666939854622)
(X_71  0.008823529817163944)
(X_72  -0.0029411755967885256)
(X_73  0.008823529817163944)
(X_74  0.11666666716337204)
(X_75  0.11666666716337204)
(X_76  0.11274509876966476)
(X_77  0.12058823555707932)
(X_78  0.1401960849761963)
(X_79  0.1558823585510254)
(X_80  0.11666666716337204)
(X_81  0.12058823555707932)
(X_82  0.12058823555707932)
(X_83  0.12058823555707932)
(X_84  0.136274516582489)
(X_85  0.028431374579668045)
(X_86  0.01666666939854622)
(X_87  0.10882353037595749)
(X_88  0.008823529817163944)
(X_89  0.020588237792253494)
(X_90  0.036274511367082596)
(X_91  0.04803921654820442)
(X_92  0.01666666939854622)
(X_93  0.01666666939854622)
(X_94  0.012745101936161518)
(X_95  -0.0029411755967885256)
(X_96  -0.014705880545079708)
(X_97  -0.0029411755967885256)
(X_98  0.12843137979507446)
(X_99  0.1558823585510254)
(X_100  0.15196079015731812)
(X_101  0.14803922176361084)
(X_102  0.1401960849761963)
(X_103  0.12843137979507446)
(X_104  0.11274509876966476)
(X_105  0.0009803927969187498)
(X_106  -0.006862743757665157)
(X_107  -0.010784312151372433)
(X_108  0.11274509876966476)
(X_109  0.10882353037595749)
(X_110  0.10882353037595749)
(X_111  0.10490196198225021)
(X_112  0.020588237792253494)
(X_113  0.01666666939854622)
(X_114  0.12450980395078659)
(X_115  0.15196079015731812)
(X_116  0.19509804248809814)
(X_117  0.23039215803146362)
(X_118  0.25)
(X_119  0.2539215683937073)
(X_120  0.22843138873577118)
(X_121  0.24411766231060028)
(X_122  0.240196093916893)
(X_123  0.20490197837352753)
(X_124  0.15784314274787903)
(X_125  0.1460784375667572)
(X_126  0.18137255311012268)
(X_127  0.22058825194835663)
(X_128  0.344117671251297)
(X_129  0.32058826088905334)
(X_130  0.2852941155433655)
(X_131  0.25784313678741455)
(X_132  0.23039215803146362)
(X_133  0.19117647409439087)
(X_134  0.14411765336990356)
(X_135  0.11274509876966476)
(X_136  0.036274511367082596)
(X_137  0.028431374579668045)
(X_138  0.12058823555707932)
(X_139  0.11274509876966476)
(X_140  0.3637255132198334)
(X_141  0.36764708161354065)
(X_142  0.3794117867946625)
(X_143  0.40294119715690613)
(X_144  0.41862747073173523)
(X_145  0.3225490152835846)
(X_146  0.31078431010246277)
(X_147  0.39901962876319885)
(X_148  0.30490198731422424)
(X_149  0.344117671251297)
(X_150  0.3715686500072479)
(X_151  0.35196080803871155)
(X_152  0.30490198731422424)
(X_153  0.2813725471496582)
(X_154  0.2970588207244873)
(X_155  0.3284313976764679)
(X_156  0.29901960492134094)
(X_157  0.2872548997402191)
(X_158  0.27156862616539)
(X_159  0.3598039448261261)
(X_160  0.35196080803871155)
(X_161  0.23627452552318573)
(X_162  0.21274511516094208)
(X_163  0.29313725233078003)
(X_164  0.1774509847164154)
(X_165  0.16960784792900085)
(X_166  0.1617647111415863)
(X_167  0.25)
(X_168  0.29509803652763367)
(X_169  0.3029411733150482)
(X_170  0.4068627655506134)
(X_171  0.3911764919757843)
(X_172  0.3598039448261261)
(X_173  0.24411766231060028)
(X_174  0.24803923070430756)
(X_175  0.2558823525905609)
(X_176  0.38333335518836975)
(X_177  0.4107843339443207)
(X_178  0.4382353127002716)
(X_179  0.4421568810939789)
(X_180  0.4264706075191498)
(X_181  0.41862747073173523)
(X_182  0.4264706075191498)
(X_183  0.4382353127002716)
(X_184  0.39901962876319885)
(X_185  0.40294119715690613)
(X_186  0.39901962876319885)
(X_187  0.3715686500072479)
(X_188  0.24411766231060028)
(X_189  0.22843138873577118)
(X_190  0.240196093916893)
(X_191  0.3558823764324188)
(X_192  0.3754902184009552)
(X_193  0.27156862616539)
(X_194  0.2598039209842682)
(X_195  0.3480392396450043)
(X_196  0.240196093916893)
(X_197  0.26372548937797546)
(X_198  0.3715686500072479)
(X_199  0.344117671251297)
(X_200  0.31666669249534607)
(X_201  0.33627453446388245)
(X_202  0.4107843339443207)
(X_203  0.48137256503105164)
(X_204  0.5558823943138123)
(X_205  0.5480391979217529)
(X_206  0.5362744927406311)
(X_207  0.5323529243469238)
(X_208  0.4362744987010956)
(X_209  0.44019606709480286)
(X_210  0.4480392038822174)
(X_211  0.4480392038822174)
(X_212  0.5990196466445923)
(X_213  0.4990196228027344)
(X_214  0.4598039388656616)
(X_215  0.3696078360080719)
(X_216  0.2598039209842682)
(X_217  0.1931372582912445)
(X_218  0.2970588207244873)
(X_219  0.3245098292827606)
(X_220  0.33235296607017517)
(X_221  0.2245098203420639)
(X_222  0.21666668355464935)
(X_223  0.3088235557079315)
(X_224  0.20098040997982025)
(X_225  0.22058825194835663)
(X_226  0.2558823525905609)
(X_227  0.3068627417087555)
(X_228  0.4696078598499298)
(X_229  0.40882351994514465)
(X_230  0.3892156779766083)
(X_231  0.34607842564582825)
(X_232  0.2245098203420639)
(X_233  0.18921568989753723)
(X_234  0.15392157435417175)
(X_235  0.15000000596046448)
(X_236  0.16960784792900085)
(X_237  0.18921568989753723)
(X_238  0.18529412150382996)
(X_239  0.1774509847164154)
(X_240  0.13431373238563538)
(X_241  0.18137255311012268)
(X_242  0.35196080803871155)
(X_243  0.41470590233802795)
(X_244  0.4421568810939789)
(X_245  0.4225490391254425)
(X_246  0.3754902184009552)
(X_247  0.33627453446388245)
(X_248  0.3245098292827606)
(X_249  0.31666669249534607)
(X_250  0.20490197837352753)
(X_251  0.19705882668495178)
(X_252  0.5362744927406311)
(X_253  0.4480392038822174)
(X_254  0.4362744987010956)
(X_255  0.3892156779766083)
(X_256  0.4225490391254425)
(X_257  0.344117671251297)
(X_258  0.25784313678741455)
(X_259  0.19117647409439087)
(X_260  0.09117648005485535)
(X_261  0.07156863063573837)
(X_262  0.05588235333561897)
(X_263  0.0676470622420311)
(X_264  0.0990196168422699)
(X_265  0.11862745881080627)
(X_266  0.21078431606292725)
(X_267  0.0990196168422699)
(X_268  0.14803922176361084)
(X_269  0.14411765336990356)
(X_270  0.15196079015731812)
(X_271  0.19509804248809814)
(X_272  0.27352941036224365)
(X_273  0.3715686500072479)
(X_274  0.4539215862751007)
(X_275  0.4049019515514374)
(X_276  0.49313727021217346)
(X_277  0.4852941334247589)
(X_278  0.37745097279548645)
(X_279  0.3696078360080719)
(X_280  0.26764705777168274)
(X_281  0.39901962876319885)
(X_282  0.40294119715690613)
(X_283  0.3598039448261261)
(X_284  0.1931372582912445)
(X_285  0.2343137264251709)
(X_286  0.19117647409439087)
(X_287  0.16372549533843994)
(X_288  0.06372549384832382)
(X_289  0.05588235333561897)
(X_290  0.05980392172932625)
(X_291  0.0833333432674408)
(X_292  0.114705890417099)
(X_293  0.12647059559822083)
(X_294  0.114705890417099)
(X_295  0.09509804844856262)
(X_296  0.20686274766921997)
(X_297  0.18333333730697632)
(X_298  0.15980392694473267)
(X_299  0.05980392172932625)
(X_300  0.08725491166114807)
(X_301  0.23823529481887817)
(X_302  0.28921568393707275)
(X_303  0.21666668355464935)
(X_304  0.240196093916893)
(X_305  0.23235295712947845)
(X_306  0.22843138873577118)
(X_307  0.22058825194835663)
(X_308  0.2617647051811218)
(X_309  0.2813725471496582)
(X_310  0.1774509847164154)
(X_311  0.13823530077934265)
(X_312  0.10294118523597717)
(X_313  0.19509804248809814)
(X_314  0.20686274766921997)
(X_315  0.21470588445663452)
(X_316  0.2029411792755127)
(X_317  0.19901961088180542)
(X_318  0.19901961088180542)
(X_319  0.21470588445663452)
(X_320  0.2343137264251709)
(X_321  0.13823530077934265)
(X_322  0.12254902720451355)
(X_323  0.20686274766921997)
(X_324  0.1715686321258545)
(X_325  0.17549020051956177)
(X_326  0.1872549057006836)
(X_327  0.0990196168422699)
(X_328  0.10686275362968445)
(X_329  0.19509804248809814)
(X_330  0.17549020051956177)
(X_331  0.05980392172932625)
(X_332  0.2343137264251709)
(X_333  0.23039215803146362)
(X_334  0.22647058963775635)
(X_335  0.12254902720451355)
(X_336  0.16960784792900085)
(X_337  0.2656862735748291)
(X_338  0.23823529481887817)
(X_339  0.19509804248809814)
(X_340  0.1715686321258545)
(X_341  0.16764706373214722)
(X_342  0.0676470622420311)
(X_343  0.05980392172932625)
(X_344  0.1715686321258545)
(X_345  0.16372549533843994)
(X_346  0.05980392172932625)
(X_347  0.0676470622420311)
(X_348  0.07549020648002625)
(X_349  0.07941177487373352)
(X_350  0.07156863063573837)
(X_351  0.15980392694473267)
(X_352  0.136274516582489)
(X_353  0.13235294818878174)
(X_354  0.13235294818878174)
(X_355  0.1401960849761963)
(X_356  0.1558823585510254)
(X_357  0.1715686321258545)
(X_358  0.17549020051956177)
(X_359  0.17549020051956177)
(X_360  0.1715686321258545)
(X_361  0.16764706373214722)
(X_362  0.0676470622420311)
(X_363  0.06372549384832382)
(X_364  0.06372549384832382)
(X_365  0.07156863063573837)
(X_366  0.16764706373214722)
(X_367  0.16372549533843994)
(X_368  0.17549020051956177)
(X_369  0.18333333730697632)
(X_370  0.0676470622420311)
(X_371  0.04019607976078987)
(X_372  0.14803922176361084)
(X_373  0.04411764815449715)
(X_374  0.036274511367082596)
(X_375  0.1401960849761963)
(X_376  0.14803922176361084)
(X_377  0.05588235333561897)
(X_378  0.05588235333561897)
(X_379  0.0519607849419117)
(X_380  0.17549020051956177)
(X_381  0.05588235333561897)
(X_382  0.03235294297337532)
(X_383  0.01666666939854622)
(X_384  0.020588237792253494)
(X_385  0.03235294297337532)
(X_386  0.14803922176361084)
(X_387  0.15196079015731812)
(X_388  0.18333333730697632)
(X_389  0.18333333730697632)
(X_390  0.18333333730697632)
(X_391  0.18333333730697632)
(X_392  0.1558823585510254)
(X_393  0.16764706373214722)
(X_394  0.17549020051956177)
(X_395  0.07156863063573837)
(X_396  0.17941176891326904)
(X_397  0.1872549057006836)
(X_398  0.16764706373214722)
(X_399  0.04019607976078987)
(X_400  0.04803921654820442)
(X_401  0.04803921654820442)
(X_402  0.04803921654820442)
(X_403  0.15196079015731812)
(X_404  0.1558823585510254)
(X_405  0.05980392172932625)
(X_406  0.05980392172932625)
(X_407  0.05980392172932625)
(X_408  0.02450980618596077)
(X_409  0.02450980618596077)
(X_410  0.12450980395078659)
(X_411  0.13235294818878174)
(X_412  0.14411765336990356)
(X_413  0.15196079015731812)
(X_414  0.15196079015731812)
(X_415  0.14803922176361084)
(X_416  0.02450980618596077)
(X_417  0.02450980618596077)
(X_418  0.028431374579668045)
(X_419  0.028431374579668045)
(X_420  0.020588237792253494)
(X_421  0.03235294297337532)
(X_422  0.028431374579668045)
(X_423  0.01666666939854622)
(X_424  0.01666666939854622)
(X_425  0.03235294297337532)
(X_426  0.04019607976078987)
(X_427  0.03235294297337532)
(X_428  0.020588237792253494)
(X_429  0.020588237792253494)
(X_430  0.02450980618596077)
(X_431  0.028431374579668045)
(X_432  0.028431374579668045)
(X_433  0.12450980395078659)
(X_434  0.11666666716337204)
(X_435  0.008823529817163944)
(X_436  0.13235294818878174)
(X_437  0.12450980395078659)
(X_438  0.11666666716337204)
(X_439  0.11666666716337204)
(X_440  0.12058823555707932)
(X_441  0.12058823555707932)
(X_442  0.01666666939854622)
(X_443  0.012745101936161518)
(X_444  0.028431374579668045)
(X_445  0.028431374579668045)
(X_446  0.03235294297337532)
(X_447  0.136274516582489)
(X_448  0.11274509876966476)
(X_449  0.11274509876966476)
(X_450  0.11274509876966476)
(X_451  0.11274509876966476)
(X_452  0.11274509876966476)
(X_453  0.11274509876966476)
(X_454  0.11274509876966476)
(X_455  0.11274509876966476)
(X_456  0.10882353037595749)
(X_457  0.10882353037595749)
(X_458  0.10882353037595749)
(X_459  0.10882353037595749)
(X_460  0.008823529817163944)
(X_461  0.10882353037595749)
(X_462  0.008823529817163944)
(X_463  0.008823529817163944)
(X_464  0.008823529817163944)
(X_465  0.008823529817163944)
(X_466  0.10882353037595749)
(X_467  0.10882353037595749)
(X_468  0.10882353037595749)
(X_469  0.10882353037595749)
(X_470  0.10882353037595749)
(X_471  0.10882353037595749)
(X_472  0.008823529817163944)
(X_473  0.10882353037595749)
(X_474  0.10882353037595749)
(X_475  0.10882353037595749)
(X_476  0.012745101936161518)
(X_477  0.11274509876966476)
(X_478  0.11274509876966476)
(X_479  0.11274509876966476)
(X_480  0.11274509876966476)
(X_481  0.012745101936161518)
(X_482  0.012745101936161518)
(X_483  0.11274509876966476)
(X_484  0.10882353037595749)
(X_485  0.008823529817163944)
(X_486  0.008823529817163944)
(X_487  0.008823529817163944)
(X_488  0.008823529817163944)
(X_489  0.008823529817163944)
(X_490  0.008823529817163944)
(X_491  0.008823529817163944)
(X_492  0.004901961423456669)
(X_493  0.004901961423456669)
(X_494  0.10490196198225021)
(X_495  0.10490196198225021)
(X_496  0.10490196198225021)
(X_497  0.10490196198225021)
(X_498  0.10490196198225021)
(X_499  0.004901961423456669)
(X_500  0.004901961423456669)
(X_501  0.004901961423456669)
(X_502  0.004901961423456669)
(X_503  0.004901961423456669)
(X_504  0.10882353037595749)
(X_505  0.10882353037595749)
(X_506  0.008823529817163944)
(X_507  0.008823529817163944)
(X_508  0.008823529817163944)
(X_509  0.008823529817163944)
(X_510  0.008823529817163944)
(X_511  0.10882353037595749)
(X_512  0.004901961423456669)
(X_513  0.004901961423456669)
(X_514  0.004901961423456669)
(X_515  0.004901961423456669)
(X_516  0.004901961423456669)
(X_517  0.004901961423456669)
(X_518  0.004901961423456669)
(X_519  0.004901961423456669)
(X_520  0.0009803927969187498)
(X_521  0.0009803927969187498)
(X_522  0.0009803927969187498)
(X_523  0.0009803927969187498)
(X_524  0.0009803927969187498)
(X_525  0.0009803927969187498)
(X_526  0.0009803927969187498)
(X_527  0.0009803927969187498)
(X_528  -0.0029411755967885256)
(X_529  -0.0029411755967885256)
(X_530  -0.0029411755967885256)
(X_531  0.09705882519483566)
(X_532  0.10490196198225021)
(X_533  0.10490196198225021)
(X_534  0.10490196198225021)
(X_535  0.10490196198225021)
(X_536  0.004901961423456669)
(X_537  0.004901961423456669)
(X_538  0.004901961423456669)
(X_539  0.004901961423456669)
(X_540  0.0009803927969187498)
(X_541  0.0009803927969187498)
(X_542  0.10098039358854294)
(X_543  0.10098039358854294)
(X_544  0.10098039358854294)
(X_545  0.10098039358854294)
(X_546  0.10098039358854294)
(X_547  0.0009803927969187498)
(X_548  0.09313725680112839)
(X_549  0.09313725680112839)
(X_550  0.09313725680112839)
(X_551  0.09313725680112839)
(X_552  0.09313725680112839)
(X_553  0.09313725680112839)
(X_554  0.09313725680112839)
(X_555  -0.006862743757665157)
(X_556  -0.010784312151372433)
(X_557  -0.010784312151372433)
(X_558  -0.010784312151372433)
(X_559  0.08921568840742111)
(X_560  0.09705882519483566)
(X_561  0.09705882519483566)
(X_562  0.09705882519483566)
(X_563  0.09705882519483566)
(X_564  -0.0029411755967885256)
(X_565  -0.0029411755967885256)
(X_566  -0.0029411755967885256)
(X_567  -0.0029411755967885256)
(X_568  -0.006862743757665157)
(X_569  0.09313725680112839)
(X_570  0.09313725680112839)
(X_571  0.09313725680112839)
(X_572  -0.006862743757665157)
(X_573  -0.006862743757665157)
(X_574  -0.006862743757665157)
(X_575  -0.006862743757665157)
(X_576  -0.010784312151372433)
(X_577  -0.010784312151372433)
(X_578  0.08921568840742111)
(X_579  0.08921568840742111)
(X_580  0.08921568840742111)
(X_581  0.08921568840742111)
(X_582  0.08921568840742111)
(X_583  0.08921568840742111)
(X_584  0.08529412001371384)
(X_585  -0.014705880545079708)
(X_586  -0.014705880545079708)
(X_587  -0.014705880545079708)
(X_588  0.09313725680112839)
(X_589  -0.006862743757665157)
(X_590  0.09313725680112839)
(X_591  0.09313725680112839)
(X_592  -0.006862743757665157)
(X_593  -0.006862743757665157)
(X_594  -0.006862743757665157)
(X_595  0.09313725680112839)
(X_596  0.08921568840742111)
(X_597  0.08921568840742111)
(X_598  0.08921568840742111)
(X_599  -0.010784312151372433)
(X_600  -0.010784312151372433)
(X_601  -0.010784312151372433)
(X_602  -0.010784312151372433)
(X_603  -0.010784312151372433)
(X_604  -0.010784312151372433)
(X_605  -0.010784312151372433)
(X_606  0.08921568840742111)
(X_607  0.08921568840742111)
(X_608  0.08921568840742111)
(X_609  0.08921568840742111)
(X_610  0.08921568840742111)
(X_611  0.08921568840742111)
(X_612  -0.014705880545079708)
(X_613  -0.014705880545079708)
(X_614  -0.014705880545079708)
(X_615  0.08529412001371384)
(X_616  0.08921568840742111)
(X_617  -0.010784312151372433)
(X_618  -0.010784312151372433)
(X_619  -0.010784312151372433)
(X_620  -0.010784312151372433)
(X_621  0.08921568840742111)
(X_622  0.08921568840742111)
(X_623  0.08921568840742111)
(X_624  0.08529412001371384)
(X_625  0.08529412001371384)
(X_626  0.08529412001371384)
(X_627  0.08529412001371384)
(X_628  -0.014705880545079708)
(X_629  -0.014705880545079708)
(X_630  -0.014705880545079708)
(X_631  0.08529412001371384)
(X_632  -0.006862743757665157)
(X_633  -0.006862743757665157)
(X_634  -0.006862743757665157)
(X_635  -0.006862743757665157)
(X_636  -0.006862743757665157)
(X_637  0.09313725680112839)
(X_638  0.09313725680112839)
(X_639  0.09313725680112839)
(X_640  -0.014705880545079708)
(X_641  -0.014705880545079708)
(X_642  0.08529412001371384)
(X_643  0.08529412001371384)
(X_644  -0.010784312151372433)
(X_645  -0.010784312151372433)
(X_646  0.08921568840742111)
(X_647  0.08921568840742111)
(X_648  0.08921568840742111)
(X_649  -0.010784312151372433)
(X_650  -0.010784312151372433)
(X_651  0.08921568840742111)
(X_652  0.08529412001371384)
(X_653  0.08529412001371384)
(X_654  0.08529412001371384)
(X_655  0.08529412001371384)
(X_656  -0.014705880545079708)
(X_657  -0.014705880545079708)
(X_658  -0.014705880545079708)
(X_659  -0.014705880545079708)
(X_660  0.09313725680112839)
(X_661  0.09313725680112839)
(X_662  0.09313725680112839)
(X_663  -0.006862743757665157)
(X_664  -0.006862743757665157)
(X_665  -0.006862743757665157)
(X_666  -0.006862743757665157)
(X_667  -0.006862743757665157)
(X_668  -0.014705880545079708)
(X_669  -0.014705880545079708)
(X_670  -0.014705880545079708)
(X_671  -0.014705880545079708)
(X_672  0.07745098322629929)
(X_673  -0.018627449870109558)
(X_674  -0.014705880545079708)
(X_675  -0.014705880545079708)
(X_676  -0.018627449870109558)
(X_677  0.08137255162000656)
(X_678  0.08921568840742111)
(X_679  -0.0029411755967885256)
(X_680  0.08529412001371384)
(X_681  0.08921568840742111)
(X_682  0.09313725680112839)
(X_683  0.08921568840742111)
(X_684  0.07745098322629929)
(X_685  0.07352941483259201)
(X_686  -0.026470588520169258)
(X_687  0.07745098322629929)
(X_688  0.061764705926179886)
(X_689  0.08137255162000656)
(X_690  -0.0029411755967885256)
(X_691  -0.006862743757665157)
(X_692  -0.018627449870109558)
(X_693  -0.018627449870109558)
(X_694  -0.0029411755967885256)
(X_695  0.012745101936161518)
(X_696  0.02450980618596077)
(X_697  0.16372549533843994)
(X_698  0.21470588445663452)
(X_699  0.24215686321258545)
(X_700  -0.014705880545079708)
(X_701  -0.006862743757665157)
(X_702  -0.006862743757665157)
(X_703  -0.006862743757665157)
(X_704  -0.014705880545079708)
(X_705  -0.014705880545079708)
(X_706  -0.006862743757665157)
(X_707  0.0009803927969187498)
(X_708  -0.014705880545079708)
(X_709  0.004901961423456669)
(X_710  0.136274516582489)
(X_711  0.16764706373214722)
(X_712  0.19901961088180542)
(X_713  0.23039215803146362)
(X_714  0.1617647111415863)
(X_715  0.18137255311012268)
(X_716  0.3480392396450043)
(X_717  0.3911764919757843)
(X_718  0.36176469922065735)
(X_719  0.42843136191368103)
(X_720  0.4950980544090271)
(X_721  0.6617647409439087)
(X_722  0.6323529481887817)
(X_723  0.6754902005195618)
(X_724  0.7696078419685364)
(X_725  0.8009803891181946)
(X_726  0.8362745046615601)
(X_727  0.9558823704719543)
(X_728  0.387254923582077)
(X_729  0.31470587849617004)
(X_730  0.46176472306251526)
(X_731  0.4166666567325592)
(X_732  0.47156864404678345)
(X_733  0.5264706015586853)
(X_734  0.5735294222831726)
(X_735  0.7009804248809814)
(X_736  0.7990196347236633)
(X_737  0.8186274766921997)
(X_738  0.8500000238418579)
(X_739  0.8813725709915161)
(X_740  0.9127451181411743)
(X_741  0.9441176652908325)
(X_742  0.9754902124404907)
(X_743  0.9950980544090271)
(X_744  1.0303921699523926)
(X_745  1.0421568155288696)
(X_746  1.0499999523162842)
(X_747  0.949999988079071)
(X_748  0.9382352828979492)
(X_749  1.034313678741455)
(X_750  0.9421568512916565)
(X_751  0.949999988079071)
(X_752  0.9147058725357056)
(X_753  1.034313678741455)
(X_754  1.0499999523162842)
(X_755  1.0499999523162842)
(X_756  1.0499999523162842)
(X_757  0.949999988079071)
(X_758  1.0499999523162842)
(X_759  0.949999988079071)
(X_760  0.9460784196853638)
(X_761  0.9382352828979492)
(X_762  0.9382352828979492)
(X_763  1.0421568155288696)
(X_764  1.0264705419540405)
(X_765  1.034313678741455)
(X_766  0.9421568512916565)
(X_767  0.9421568512916565)
(X_768  0.9421568512916565)
(X_769  0.9421568512916565)
(X_770  0.949999988079071)
(X_771  0.949999988079071)
(X_772  0.9225490093231201)
(X_773  0.9303921461105347)
(X_774  0.9421568512916565)
(X_775  0.9421568512916565)
(X_776  0.9382352828979492)
(X_777  0.9421568512916565)
(X_778  0.949999988079071)
(X_779  0.949999988079071)
(X_780  0.9382352828979492)
(X_781  0.949999988079071)
(X_782  0.949999988079071)
(X_783  0.949999988079071)
(Y_0 -39.6734733581543)
(Y_1 63.31247329711914)
(Y_2 -33.54472732543945)
(Y_3 10.28626823425293))