((X_0  0.136274516582489)
(X_1  0.03235294297337532)
(X_2  0.04019607976078987)
(X_3  0.05980392172932625)
(X_4  0.16372549533843994)
(X_5  0.05980392172932625)
(X_6  0.05980392172932625)
(X_7  0.07156863063573837)
(X_8  0.16372549533843994)
(X_9  0.16764706373214722)
(X_10  0.17549020051956177)
(X_11  0.18333333730697632)
(X_12  0.19509804248809814)
(X_13  0.20686274766921997)
(X_14  0.21470588445663452)
(X_15  0.11862745881080627)
(X_16  0.07941177487373352)
(X_17  0.08725491166114807)
(X_18  0.09509804844856262)
(X_19  0.09509804844856262)
(X_20  0.1872549057006836)
(X_21  0.16764706373214722)
(X_22  0.14803922176361084)
(X_23  0.036274511367082596)
(X_24  0.15980392694473267)
(X_25  0.1558823585510254)
(X_26  0.1558823585510254)
(X_27  0.1558823585510254)
(X_28  0.1401960849761963)
(X_29  0.13235294818878174)
(X_30  0.036274511367082596)
(X_31  0.05588235333561897)
(X_32  0.05980392172932625)
(X_33  0.0519607849419117)
(X_34  0.0519607849419117)
(X_35  0.16372549533843994)
(X_36  0.0519607849419117)
(X_37  0.0519607849419117)
(X_38  0.05588235333561897)
(X_39  0.06372549384832382)
(X_40  0.0676470622420311)
(X_41  0.1715686321258545)
(X_42  0.17549020051956177)
(X_43  0.07941177487373352)
(X_44  0.15196079015731812)
(X_45  0.1558823585510254)
(X_46  0.16372549533843994)
(X_47  0.06372549384832382)
(X_48  0.15980392694473267)
(X_49  0.0519607849419117)
(X_50  0.04019607976078987)
(X_51  0.03235294297337532)
(X_52  0.1401960849761963)
(X_53  0.1401960849761963)
(X_54  0.136274516582489)
(X_55  0.13235294818878174)
(X_56  0.1401960849761963)
(X_57  0.03235294297337532)
(X_58  0.036274511367082596)
(X_59  0.04803921654820442)
(X_60  0.0519607849419117)
(X_61  0.04019607976078987)
(X_62  0.036274511367082596)
(X_63  0.04803921654820442)
(X_64  0.04411764815449715)
(X_65  0.04411764815449715)
(X_66  0.04411764815449715)
(X_67  0.04411764815449715)
(X_68  0.14411765336990356)
(X_69  0.14411765336990356)
(X_70  0.04411764815449715)
(X_71  0.04411764815449715)
(X_72  0.028431374579668045)
(X_73  0.03235294297337532)
(X_74  0.036274511367082596)
(X_75  0.04019607976078987)
(X_76  0.1401960849761963)
(X_77  0.1401960849761963)
(X_78  0.136274516582489)
(X_79  0.136274516582489)
(X_80  0.12843137979507446)
(X_81  0.12843137979507446)
(X_82  0.020588237792253494)
(X_83  0.11666666716337204)
(X_84  0.1401960849761963)
(X_85  0.12843137979507446)
(X_86  0.13235294818878174)
(X_87  0.14411765336990356)
(X_88  0.14411765336990356)
(X_89  0.12843137979507446)
(X_90  0.12450980395078659)
(X_91  0.03235294297337532)
(X_92  0.1401960849761963)
(X_93  0.04019607976078987)
(X_94  0.036274511367082596)
(X_95  0.036274511367082596)
(X_96  0.136274516582489)
(X_97  0.136274516582489)
(X_98  0.136274516582489)
(X_99  0.136274516582489)
(X_100  0.13235294818878174)
(X_101  0.13235294818878174)
(X_102  0.13235294818878174)
(X_103  0.03235294297337532)
(X_104  0.036274511367082596)
(X_105  0.04019607976078987)
(X_106  0.04019607976078987)
(X_107  0.04411764815449715)
(X_108  0.036274511367082596)
(X_109  0.03235294297337532)
(X_110  0.02450980618596077)
(X_111  0.12058823555707932)
(X_112  0.04019607976078987)
(X_113  0.12843137979507446)
(X_114  0.12843137979507446)
(X_115  0.1401960849761963)
(X_116  0.036274511367082596)
(X_117  0.020588237792253494)
(X_118  0.01666666939854622)
(X_119  0.02450980618596077)
(X_120  0.028431374579668045)
(X_121  0.028431374579668045)
(X_122  0.028431374579668045)
(X_123  0.03235294297337532)
(X_124  0.13235294818878174)
(X_125  0.036274511367082596)
(X_126  0.036274511367082596)
(X_127  0.04019607976078987)
(X_128  0.1401960849761963)
(X_129  0.1401960849761963)
(X_130  0.13235294818878174)
(X_131  0.13235294818878174)
(X_132  0.12843137979507446)
(X_133  0.13235294818878174)
(X_134  0.036274511367082596)
(X_135  0.1401960849761963)
(X_136  0.1401960849761963)
(X_137  0.036274511367082596)
(X_138  0.12843137979507446)
(X_139  0.12450980395078659)
(X_140  0.1401960849761963)
(X_141  0.12843137979507446)
(X_142  0.12843137979507446)
(X_143  0.1401960849761963)
(X_144  0.136274516582489)
(X_145  0.01666666939854622)
(X_146  0.012745101936161518)
(X_147  0.12058823555707932)
(X_148  0.11274509876966476)
(X_149  0.11666666716337204)
(X_150  0.12058823555707932)
(X_151  0.02450980618596077)
(X_152  0.12843137979507446)
(X_153  0.13235294818878174)
(X_154  0.13235294818878174)
(X_155  0.136274516582489)
(X_156  0.136274516582489)
(X_157  0.036274511367082596)
(X_158  0.12843137979507446)
(X_159  0.12450980395078659)
(X_160  0.12450980395078659)
(X_161  0.12058823555707932)
(X_162  0.02450980618596077)
(X_163  0.12450980395078659)
(X_164  0.136274516582489)
(X_165  0.03235294297337532)
(X_166  0.028431374579668045)
(X_167  0.12450980395078659)
(X_168  0.136274516582489)
(X_169  0.12450980395078659)
(X_170  0.12843137979507446)
(X_171  0.136274516582489)
(X_172  0.136274516582489)
(X_173  0.020588237792253494)
(X_174  0.012745101936161518)
(X_175  0.02450980618596077)
(X_176  0.11666666716337204)
(X_177  0.020588237792253494)
(X_178  0.020588237792253494)
(X_179  0.12450980395078659)
(X_180  0.12843137979507446)
(X_181  0.12843137979507446)
(X_182  0.13235294818878174)
(X_183  0.03235294297337532)
(X_184  0.12843137979507446)
(X_185  0.12843137979507446)
(X_186  0.12843137979507446)
(X_187  0.12843137979507446)
(X_188  0.12843137979507446)
(X_189  0.02450980618596077)
(X_190  0.02450980618596077)
(X_191  0.12058823555707932)
(X_192  0.136274516582489)
(X_193  0.13235294818878174)
(X_194  0.03235294297337532)
(X_195  0.028431374579668045)
(X_196  0.036274511367082596)
(X_197  0.12450980395078659)
(X_198  0.12843137979507446)
(X_199  0.04019607976078987)
(X_200  0.036274511367082596)
(X_201  0.020588237792253494)
(X_202  0.01666666939854622)
(X_203  0.02450980618596077)
(X_204  0.03235294297337532)
(X_205  0.03235294297337532)
(X_206  0.03235294297337532)
(X_207  0.03235294297337532)
(X_208  0.03235294297337532)
(X_209  0.036274511367082596)
(X_210  0.036274511367082596)
(X_211  0.036274511367082596)
(X_212  0.12843137979507446)
(X_213  0.12843137979507446)
(X_214  0.13235294818878174)
(X_215  0.136274516582489)
(X_216  0.136274516582489)
(X_217  0.136274516582489)
(X_218  0.13235294818878174)
(X_219  0.13235294818878174)
(X_220  0.14411765336990356)
(X_221  0.04019607976078987)
(X_222  0.04019607976078987)
(X_223  0.1401960849761963)
(X_224  0.04019607976078987)
(X_225  0.04019607976078987)
(X_226  0.1401960849761963)
(X_227  0.136274516582489)
(X_228  0.036274511367082596)
(X_229  0.03235294297337532)
(X_230  0.03235294297337532)
(X_231  0.03235294297337532)
(X_232  0.11274509876966476)
(X_233  0.1715686321258545)
(X_234  0.12450980395078659)
(X_235  -0.010784312151372433)
(X_236  0.05588235333561897)
(X_237  0.07549020648002625)
(X_238  0.028431374579668045)
(X_239  0.020588237792253494)
(X_240  0.012745101936161518)
(X_241  0.11666666716337204)
(X_242  0.12843137979507446)
(X_243  0.136274516582489)
(X_244  0.136274516582489)
(X_245  0.136274516582489)
(X_246  0.12843137979507446)
(X_247  0.12450980395078659)
(X_248  0.06372549384832382)
(X_249  0.09509804844856262)
(X_250  0.14215686917304993)
(X_251  0.2852941155433655)
(X_252  0.17352941632270813)
(X_253  0.15392157435417175)
(X_254  0.114705890417099)
(X_255  0.17549020051956177)
(X_256  0.14803922176361084)
(X_257  0.13235294818878174)
(X_258  0.12843137979507446)
(X_259  0.12843137979507446)
(X_260  0.004901961423456669)
(X_261  0.05588235333561897)
(X_262  0.1715686321258545)
(X_263  0.19901961088180542)
(X_264  0.22647058963775635)
(X_265  0.1872549057006836)
(X_266  0.17941176891326904)
(X_267  0.2656862735748291)
(X_268  0.11862745881080627)
(X_269  0.21078431606292725)
(X_270  0.20686274766921997)
(X_271  0.11078432202339172)
(X_272  0.12647059559822083)
(X_273  0.15392157435417175)
(X_274  0.2813725471496582)
(X_275  0.20098040997982025)
(X_276  0.2872548997402191)
(X_277  0.2911764681339264)
(X_278  0.2911764681339264)
(X_279  0.2911764681339264)
(X_280  0.3754902184009552)
(X_281  0.3598039448261261)
(X_282  0.23235295712947845)
(X_283  0.2088235467672348)
(X_284  0.1931372582912445)
(X_285  0.28921568393707275)
(X_286  0.29313725233078003)
(X_287  0.2970588207244873)
(X_288  0.19705882668495178)
(X_289  0.21274511516094208)
(X_290  0.22843138873577118)
(X_291  0.29901960492134094)
(X_292  0.39313724637031555)
(X_293  0.3813725411891937)
(X_294  0.32647058367729187)
(X_295  0.3225490152835846)
(X_296  0.3950980603694916)
(X_297  0.29901960492134094)
(X_298  0.3029411733150482)
(X_299  0.3029411733150482)
(X_300  0.39901962876319885)
(X_301  0.3950980603694916)
(X_302  0.387254923582077)
(X_303  0.28333333134651184)
(X_304  0.24411766231060028)
(X_305  0.240196093916893)
(X_306  0.23627452552318573)
(X_307  0.22843138873577118)
(X_308  0.3088235557079315)
(X_309  0.3088235557079315)
(X_310  0.3127451241016388)
(X_311  0.21274511516094208)
(X_312  0.21666668355464935)
(X_313  0.21666668355464935)
(X_314  0.22058825194835663)
(X_315  0.22058825194835663)
(X_316  0.25196078419685364)
(X_317  0.42450979351997375)
(X_318  0.6343137621879578)
(X_319  0.6068627834320068)
(X_320  0.5715686678886414)
(X_321  0.4911764860153198)
(X_322  0.5068627595901489)
(X_323  0.5068627595901489)
(X_324  0.48725491762161255)
(X_325  0.4362744987010956)
(X_326  0.3578431308269501)
(X_327  0.2754901945590973)
(X_328  0.32058826088905334)
(X_329  0.30098041892051697)
(X_330  0.30490198731422424)
(X_331  0.31666669249534607)
(X_332  0.2911764681339264)
(X_333  0.29901960492134094)
(X_334  0.3186274468898773)
(X_335  0.3343137204647064)
(X_336  0.23235295712947845)
(X_337  0.3284313976764679)
(X_338  0.3245098292827606)
(X_339  0.32058826088905334)
(X_340  0.31666669249534607)
(X_341  0.31666669249534607)
(X_342  0.21666668355464935)
(X_343  0.21666668355464935)
(X_344  0.39901962876319885)
(X_345  0.4892157018184662)
(X_346  0.4598039388656616)
(X_347  0.4362744987010956)
(X_348  0.4049019515514374)
(X_349  0.4480392038822174)
(X_350  0.4911764860153198)
(X_351  0.5833333730697632)
(X_352  0.4892157018184662)
(X_353  0.5362744927406311)
(X_354  0.5990196466445923)
(X_355  0.6343137621879578)
(X_356  0.6147059202194214)
(X_357  0.5401960611343384)
(X_358  0.4539215862751007)
(X_359  0.3911764919757843)
(X_360  0.385294109582901)
(X_361  0.3892156779766083)
(X_362  0.39313724637031555)
(X_363  0.3970588147640228)
(X_364  0.3186274468898773)
(X_365  0.3186274468898773)
(X_366  0.3186274468898773)
(X_367  0.4264706075191498)
(X_368  0.45000001788139343)
(X_369  0.47745099663734436)
(X_370  0.4049019515514374)
(X_371  0.42450979351997375)
(X_372  0.4166666567325592)
(X_373  0.24411766231060028)
(X_374  0.18921568989753723)
(X_375  0.3911764919757843)
(X_376  0.48137256503105164)
(X_377  0.4205882251262665)
(X_378  0.42450979351997375)
(X_379  0.4049019515514374)
(X_380  0.46176472306251526)
(X_381  0.4421568810939789)
(X_382  0.4107843339443207)
(X_383  0.2872548997402191)
(X_384  0.2911764681339264)
(X_385  0.31470587849617004)
(X_386  0.3499999940395355)
(X_387  0.3735294044017792)
(X_388  0.35196080803871155)
(X_389  0.3401961028575897)
(X_390  0.21666668355464935)
(X_391  0.20098040997982025)
(X_392  0.29313725233078003)
(X_393  0.31666669249534607)
(X_394  0.35196080803871155)
(X_395  0.3950980603694916)
(X_396  0.4382353127002716)
(X_397  0.4735294282436371)
(X_398  0.49705883860588074)
(X_399  0.5088235139846802)
(X_400  0.3754902184009552)
(X_401  0.2343137264251709)
(X_402  0.25)
(X_403  0.36764708161354065)
(X_404  0.3754902184009552)
(X_405  0.2598039209842682)
(X_406  0.3225490152835846)
(X_407  0.3892156779766083)
(X_408  0.29509803652763367)
(X_409  0.2558823525905609)
(X_410  0.18921568989753723)
(X_411  0.22647058963775635)
(X_412  0.19117647409439087)
(X_413  0.18333333730697632)
(X_414  0.19509804248809814)
(X_415  0.20686274766921997)
(X_416  0.13823530077934265)
(X_417  0.12647059559822083)
(X_418  0.11078432202339172)
(X_419  0.0990196168422699)
(X_420  0.03235294297337532)
(X_421  0.07156863063573837)
(X_422  0.1303921639919281)
(X_423  0.18137255311012268)
(X_424  0.20098040997982025)
(X_425  0.18921568989753723)
(X_426  0.2617647051811218)
(X_427  0.23823529481887817)
(X_428  0.10294118523597717)
(X_429  0.008823529817163944)
(X_430  0.0519607849419117)
(X_431  0.1617647111415863)
(X_432  0.18137255311012268)
(X_433  0.29313725233078003)
(X_434  0.2088235467672348)
(X_435  0.1774509847164154)
(X_436  0.2343137264251709)
(X_437  0.2029411792755127)
(X_438  0.16372549533843994)
(X_439  0.136274516582489)
(X_440  0.136274516582489)
(X_441  0.0676470622420311)
(X_442  0.11078432202339172)
(X_443  0.14215686917304993)
(X_444  0.07549020648002625)
(X_445  0.07941177487373352)
(X_446  0.0833333432674408)
(X_447  0.18333333730697632)
(X_448  0.136274516582489)
(X_449  0.036274511367082596)
(X_450  0.05588235333561897)
(X_451  0.10294118523597717)
(X_452  0.1460784375667572)
(X_453  0.1460784375667572)
(X_454  0.20686274766921997)
(X_455  0.16372549533843994)
(X_456  0.1401960849761963)
(X_457  0.1401960849761963)
(X_458  0.1401960849761963)
(X_459  0.14411765336990356)
(X_460  0.15196079015731812)
(X_461  0.0676470622420311)
(X_462  0.0833333432674408)
(X_463  0.09509804844856262)
(X_464  0.0519607849419117)
(X_465  0.05588235333561897)
(X_466  0.15196079015731812)
(X_467  0.136274516582489)
(X_468  0.12843137979507446)
(X_469  0.14411765336990356)
(X_470  0.18333333730697632)
(X_471  0.21470588445663452)
(X_472  0.21078431606292725)
(X_473  0.2029411792755127)
(X_474  0.19509804248809814)
(X_475  0.1872549057006836)
(X_476  0.028431374579668045)
(X_477  0.03235294297337532)
(X_478  0.15196079015731812)
(X_479  0.1872549057006836)
(X_480  0.114705890417099)
(X_481  0.11078432202339172)
(X_482  0.07156863063573837)
(X_483  0.03235294297337532)
(X_484  0.13235294818878174)
(X_485  0.12843137979507446)
(X_486  0.028431374579668045)
(X_487  0.03235294297337532)
(X_488  0.04019607976078987)
(X_489  0.0519607849419117)
(X_490  0.06372549384832382)
(X_491  0.07156863063573837)
(X_492  0.04803921654820442)
(X_493  0.04803921654820442)
(X_494  0.04411764815449715)
(X_495  0.13235294818878174)
(X_496  0.11666666716337204)
(X_497  0.12450980395078659)
(X_498  0.15196079015731812)
(X_499  0.07941177487373352)
(X_500  0.17549020051956177)
(X_501  0.07156863063573837)
(X_502  0.0676470622420311)
(X_503  0.05980392172932625)
(X_504  0.04019607976078987)
(X_505  0.04803921654820442)
(X_506  0.16764706373214722)
(X_507  0.1872549057006836)
(X_508  0.09117648005485535)
(X_509  0.07549020648002625)
(X_510  0.04803921654820442)
(X_511  0.020588237792253494)
(X_512  0.020588237792253494)
(X_513  0.01666666939854622)
(X_514  0.01666666939854622)
(X_515  0.01666666939854622)
(X_516  0.020588237792253494)
(X_517  0.028431374579668045)
(X_518  0.036274511367082596)
(X_519  0.04411764815449715)
(X_520  0.03235294297337532)
(X_521  0.036274511367082596)
(X_522  0.036274511367082596)
(X_523  0.020588237792253494)
(X_524  0.004901961423456669)
(X_525  0.10490196198225021)
(X_526  0.12058823555707932)
(X_527  0.136274516582489)
(X_528  0.036274511367082596)
(X_529  0.03235294297337532)
(X_530  0.028431374579668045)
(X_531  0.028431374579668045)
(X_532  0.12843137979507446)
(X_533  0.14411765336990356)
(X_534  0.15980392694473267)
(X_535  0.16764706373214722)
(X_536  0.05980392172932625)
(X_537  0.04019607976078987)
(X_538  0.020588237792253494)
(X_539  0.11274509876966476)
(X_540  0.012745101936161518)
(X_541  0.008823529817163944)
(X_542  0.004901961423456669)
(X_543  0.004901961423456669)
(X_544  0.008823529817163944)
(X_545  0.012745101936161518)
(X_546  0.01666666939854622)
(X_547  0.020588237792253494)
(X_548  0.11666666716337204)
(X_549  0.020588237792253494)
(X_550  0.02450980618596077)
(X_551  0.012745101936161518)
(X_552  0.10098039358854294)
(X_553  0.09705882519483566)
(X_554  0.10098039358854294)
(X_555  0.008823529817163944)
(X_556  0.10490196198225021)
(X_557  0.10490196198225021)
(X_558  0.10490196198225021)
(X_559  0.10882353037595749)
(X_560  0.08921568840742111)
(X_561  0.004901961423456669)
(X_562  0.12058823555707932)
(X_563  0.02450980618596077)
(X_564  0.01666666939854622)
(X_565  0.0009803927969187498)
(X_566  -0.006862743757665157)
(X_567  -0.010784312151372433)
(X_568  0.008823529817163944)
(X_569  0.10490196198225021)
(X_570  0.10490196198225021)
(X_571  0.0009803927969187498)
(X_572  0.0009803927969187498)
(X_573  0.004901961423456669)
(X_574  0.004901961423456669)
(X_575  0.004901961423456669)
(X_576  0.0009803927969187498)
(X_577  0.004901961423456669)
(X_578  0.012745101936161518)
(X_579  0.10882353037595749)
(X_580  0.10490196198225021)
(X_581  0.10098039358854294)
(X_582  0.10098039358854294)
(X_583  0.10098039358854294)
(X_584  0.09705882519483566)
(X_585  -0.0029411755967885256)
(X_586  0.0009803927969187498)
(X_587  0.004901961423456669)
(X_588  0.08529412001371384)
(X_589  -0.006862743757665157)
(X_590  0.004901961423456669)
(X_591  0.008823529817163944)
(X_592  0.004901961423456669)
(X_593  0.09705882519483566)
(X_594  0.09313725680112839)
(X_595  0.09313725680112839)
(X_596  0.10098039358854294)
(X_597  0.0009803927969187498)
(X_598  0.0009803927969187498)
(X_599  0.0009803927969187498)
(X_600  0.0009803927969187498)
(X_601  0.0009803927969187498)
(X_602  0.0009803927969187498)
(X_603  0.0009803927969187498)
(X_604  0.09705882519483566)
(X_605  0.09705882519483566)
(X_606  0.10098039358854294)
(X_607  0.10490196198225021)
(X_608  0.10490196198225021)
(X_609  0.10490196198225021)
(X_610  0.10098039358854294)
(X_611  0.10098039358854294)
(X_612  -0.006862743757665157)
(X_613  -0.0029411755967885256)
(X_614  0.0009803927969187498)
(X_615  0.10490196198225021)
(X_616  0.10098039358854294)
(X_617  0.10098039358854294)
(X_618  0.004901961423456669)
(X_619  0.008823529817163944)
(X_620  0.10882353037595749)
(X_621  0.10882353037595749)
(X_622  0.004901961423456669)
(X_623  0.0009803927969187498)
(X_624  0.09313725680112839)
(X_625  0.09705882519483566)
(X_626  0.09705882519483566)
(X_627  0.09705882519483566)
(X_628  0.0009803927969187498)
(X_629  -0.0029411755967885256)
(X_630  0.09705882519483566)
(X_631  0.09705882519483566)
(X_632  0.09705882519483566)
(X_633  -0.0029411755967885256)
(X_634  0.09705882519483566)
(X_635  0.09705882519483566)
(X_636  0.10098039358854294)
(X_637  0.10098039358854294)
(X_638  0.09705882519483566)
(X_639  0.09313725680112839)
(X_640  0.09313725680112839)
(X_641  0.09705882519483566)
(X_642  0.10098039358854294)
(X_643  0.10490196198225021)
(X_644  0.10490196198225021)
(X_645  -0.0029411755967885256)
(X_646  0.08921568840742111)
(X_647  0.09313725680112839)
(X_648  0.10098039358854294)
(X_649  0.10098039358854294)
(X_650  0.09705882519483566)
(X_651  0.08921568840742111)
(X_652  -0.014705880545079708)
(X_653  -0.010784312151372433)
(X_654  -0.006862743757665157)
(X_655  -0.0029411755967885256)
(X_656  -0.0029411755967885256)
(X_657  -0.0029411755967885256)
(X_658  -0.006862743757665157)
(X_659  -0.006862743757665157)
(X_660  0.10490196198225021)
(X_661  0.09705882519483566)
(X_662  0.09313725680112839)
(X_663  0.09313725680112839)
(X_664  -0.006862743757665157)
(X_665  -0.006862743757665157)
(X_666  -0.010784312151372433)
(X_667  -0.014705880545079708)
(X_668  -0.010784312151372433)
(X_669  -0.006862743757665157)
(X_670  0.09705882519483566)
(X_671  0.10098039358854294)
(X_672  0.08529412001371384)
(X_673  -0.014705880545079708)
(X_674  -0.018627449870109558)
(X_675  -0.014705880545079708)
(X_676  -0.006862743757665157)
(X_677  0.09705882519483566)
(X_678  0.09313725680112839)
(X_679  0.08921568840742111)
(X_680  -0.010784312151372433)
(X_681  0.08529412001371384)
(X_682  0.08137255162000656)
(X_683  0.08529412001371384)
(X_684  0.09313725680112839)
(X_685  -0.006862743757665157)
(X_686  -0.006862743757665157)
(X_687  -0.010784312151372433)
(X_688  0.08137255162000656)
(X_689  0.08921568840742111)
(X_690  -0.0029411755967885256)
(X_691  -0.0029411755967885256)
(X_692  0.09313725680112839)
(X_693  0.08921568840742111)
(X_694  -0.006862743757665157)
(X_695  0.09705882519483566)
(X_696  0.10490196198225021)
(X_697  0.10098039358854294)
(X_698  0.09705882519483566)
(X_699  0.08529412001371384)
(X_700  0.10098039358854294)
(X_701  0.0009803927969187498)
(X_702  0.09705882519483566)
(X_703  0.09313725680112839)
(X_704  -0.006862743757665157)
(X_705  -0.006862743757665157)
(X_706  -0.010784312151372433)
(X_707  -0.014705880545079708)
(X_708  0.012745101936161518)
(X_709  0.008823529817163944)
(X_710  0.004901961423456669)
(X_711  0.10490196198225021)
(X_712  0.10490196198225021)
(X_713  0.0009803927969187498)
(X_714  -0.0029411755967885256)
(X_715  -0.006862743757665157)
(X_716  0.09313725680112839)
(X_717  0.0009803927969187498)
(X_718  0.004901961423456669)
(X_719  0.0009803927969187498)
(X_720  -0.006862743757665157)
(X_721  -0.014705880545079708)
(X_722  -0.014705880545079708)
(X_723  0.08921568840742111)
(X_724  0.08529412001371384)
(X_725  0.08921568840742111)
(X_726  0.08921568840742111)
(X_727  0.08137255162000656)
(X_728  0.07745098322629929)
(X_729  -0.022549020126461983)
(X_730  0.07745098322629929)
(X_731  0.08137255162000656)
(X_732  0.08529412001371384)
(X_733  0.08529412001371384)
(X_734  0.08921568840742111)
(X_735  0.08921568840742111)
(X_736  -0.03431372344493866)
(X_737  -0.030392156913876534)
(X_738  -0.030392156913876534)
(X_739  -0.026470588520169258)
(X_740  -0.022549020126461983)
(X_741  -0.022549020126461983)
(X_742  -0.018627449870109558)
(X_743  -0.018627449870109558)
(X_744  -0.026470588520169258)
(X_745  -0.014705880545079708)
(X_746  -0.006862743757665157)
(X_747  -0.0029411755967885256)
(X_748  0.09313725680112839)
(X_749  0.08921568840742111)
(X_750  -0.006862743757665157)
(X_751  0.0009803927969187498)
(X_752  0.09313725680112839)
(X_753  0.10098039358854294)
(X_754  0.11274509876966476)
(X_755  0.11274509876966476)
(X_756  0.21470588445663452)
(X_757  0.12647059559822083)
(X_758  0.14215686917304993)
(X_759  0.15784314274787903)
(X_760  0.16960784792900085)
(X_761  0.2852941155433655)
(X_762  0.30098041892051697)
(X_763  0.3127451241016388)
(X_764  0.36764708161354065)
(X_765  0.3794117867946625)
(X_766  0.29509803652763367)
(X_767  0.31078431010246277)
(X_768  0.32647058367729187)
(X_769  0.34215685725212097)
(X_770  0.3578431308269501)
(X_771  0.3696078360080719)
(X_772  0.4166666567325592)
(X_773  0.4323529303073883)
(X_774  0.45196080207824707)
(X_775  0.46764707565307617)
(X_776  0.4833333492279053)
(X_777  0.4950980544090271)
(X_778  0.5107843279838562)
(X_779  0.522549033164978)
(X_780  0.5852941274642944)
(X_781  0.6009804010391235)
(X_782  0.6205882430076599)
(X_783  0.6323529481887817)
(Y_0 -10.12070369720459)
(Y_1 14.714937210083008)
(Y_2 -3.242453098297119)
(Y_3 -0.19867849349975586))