((X_0  0.15980392694473267)
(X_1  0.1715686321258545)
(X_2  0.17941176891326904)
(X_3  0.1715686321258545)
(X_4  0.1558823585510254)
(X_5  0.04803921654820442)
(X_6  0.0519607849419117)
(X_7  0.06372549384832382)
(X_8  0.0833333432674408)
(X_9  0.17941176891326904)
(X_10  0.1715686321258545)
(X_11  0.07156863063573837)
(X_12  0.07549020648002625)
(X_13  0.1872549057006836)
(X_14  0.19901961088180542)
(X_15  0.20686274766921997)
(X_16  0.05980392172932625)
(X_17  0.0676470622420311)
(X_18  0.07549020648002625)
(X_19  0.0833333432674408)
(X_20  0.1872549057006836)
(X_21  0.18333333730697632)
(X_22  0.07941177487373352)
(X_23  0.07549020648002625)
(X_24  0.20686274766921997)
(X_25  0.07549020648002625)
(X_26  0.07549020648002625)
(X_27  0.2186274528503418)
(X_28  0.19509804248809814)
(X_29  0.19509804248809814)
(X_30  0.09509804844856262)
(X_31  0.09509804844856262)
(X_32  0.09509804844856262)
(X_33  0.08725491166114807)
(X_34  0.07549020648002625)
(X_35  0.16764706373214722)
(X_36  0.08725491166114807)
(X_37  0.0833333432674408)
(X_38  0.07941177487373352)
(X_39  0.07941177487373352)
(X_40  0.07941177487373352)
(X_41  0.07941177487373352)
(X_42  0.18333333730697632)
(X_43  0.1872549057006836)
(X_44  0.23039215803146362)
(X_45  0.21078431606292725)
(X_46  0.1872549057006836)
(X_47  0.0676470622420311)
(X_48  0.06372549384832382)
(X_49  0.07941177487373352)
(X_50  0.0990196168422699)
(X_51  0.114705890417099)
(X_52  0.18333333730697632)
(X_53  0.17941176891326904)
(X_54  0.19509804248809814)
(X_55  0.22254902124404907)
(X_56  0.2186274528503418)
(X_57  0.09509804844856262)
(X_58  0.07156863063573837)
(X_59  0.06372549384832382)
(X_60  0.07156863063573837)
(X_61  0.07549020648002625)
(X_62  0.06372549384832382)
(X_63  0.0519607849419117)
(X_64  0.09117648005485535)
(X_65  0.09117648005485535)
(X_66  0.09117648005485535)
(X_67  0.08725491166114807)
(X_68  0.0833333432674408)
(X_69  0.07941177487373352)
(X_70  0.07156863063573837)
(X_71  0.0676470622420311)
(X_72  0.04803921654820442)
(X_73  0.0676470622420311)
(X_74  0.19509804248809814)
(X_75  0.21078431606292725)
(X_76  0.21078431606292725)
(X_77  0.19509804248809814)
(X_78  0.1715686321258545)
(X_79  0.15196079015731812)
(X_80  0.15980392694473267)
(X_81  0.1558823585510254)
(X_82  0.05980392172932625)
(X_83  0.16764706373214722)
(X_84  0.17549020051956177)
(X_85  0.16764706373214722)
(X_86  0.16372549533843994)
(X_87  0.18333333730697632)
(X_88  0.12254902720451355)
(X_89  0.16568627953529358)
(X_90  0.19705882668495178)
(X_91  0.21274511516094208)
(X_92  0.27156862616539)
(X_93  0.27156862616539)
(X_94  0.2754901945590973)
(X_95  0.2754901945590973)
(X_96  0.2754901945590973)
(X_97  0.36764708161354065)
(X_98  0.3598039448261261)
(X_99  0.3558823764324188)
(X_100  0.31666669249534607)
(X_101  0.29313725233078003)
(X_102  0.2539215683937073)
(X_103  0.21078431606292725)
(X_104  0.18333333730697632)
(X_105  0.0676470622420311)
(X_106  0.06372549384832382)
(X_107  0.0676470622420311)
(X_108  0.10294118523597717)
(X_109  0.09509804844856262)
(X_110  0.08725491166114807)
(X_111  0.17549020051956177)
(X_112  0.07941177487373352)
(X_113  0.114705890417099)
(X_114  0.2774509787559509)
(X_115  0.3401961028575897)
(X_116  0.4068627655506134)
(X_117  0.3656862676143646)
(X_118  0.4205882251262665)
(X_119  0.45588237047195435)
(X_120  0.42450979351997375)
(X_121  0.5284313559532166)
(X_122  0.5284313559532166)
(X_123  0.4323529303073883)
(X_124  0.4323529303073883)
(X_125  0.4323529303073883)
(X_126  0.4323529303073883)
(X_127  0.4323529303073883)
(X_128  0.5362744927406311)
(X_129  0.5127450823783875)
(X_130  0.4696078598499298)
(X_131  0.4107843339443207)
(X_132  0.344117671251297)
(X_133  0.2813725471496582)
(X_134  0.23039215803146362)
(X_135  0.2029411792755127)
(X_136  0.07156863063573837)
(X_137  0.07156863063573837)
(X_138  0.17549020051956177)
(X_139  0.19117647409439087)
(X_140  0.3245098292827606)
(X_141  0.3715686500072479)
(X_142  0.4421568810939789)
(X_143  0.4892157018184662)
(X_144  0.4049019515514374)
(X_145  0.40882351994514465)
(X_146  0.41274508833885193)
(X_147  0.5166666507720947)
(X_148  0.48137256503105164)
(X_149  0.47745099663734436)
(X_150  0.4735294282436371)
(X_151  0.4696078598499298)
(X_152  0.47745099663734436)
(X_153  0.3892156779766083)
(X_154  0.5009803771972656)
(X_155  0.5088235139846802)
(X_156  0.4009803831577301)
(X_157  0.44019606709480286)
(X_158  0.48725491762161255)
(X_159  0.6147059202194214)
(X_160  0.5872549414634705)
(X_161  0.41274508833885193)
(X_162  0.3225490152835846)
(X_163  0.3637255132198334)
(X_164  0.18529412150382996)
(X_165  0.1460784375667572)
(X_166  0.08725491166114807)
(X_167  0.15196079015731812)
(X_168  0.3343137204647064)
(X_169  0.34607842564582825)
(X_170  0.46176472306251526)
(X_171  0.46568629145622253)
(X_172  0.45000001788139343)
(X_173  0.4264706075191498)
(X_174  0.29901960492134094)
(X_175  0.28333333134651184)
(X_176  0.41862747073173523)
(X_177  0.4068627655506134)
(X_178  0.387254923582077)
(X_179  0.3794117867946625)
(X_180  0.38333335518836975)
(X_181  0.40294119715690613)
(X_182  0.43039217591285706)
(X_183  0.44607844948768616)
(X_184  0.457843154668808)
(X_185  0.4696078598499298)
(X_186  0.4892157018184662)
(X_187  0.5127450823783875)
(X_188  0.44019606709480286)
(X_189  0.4637255072593689)
(X_190  0.479411780834198)
(X_191  0.5911765098571777)
(X_192  0.551960825920105)
(X_193  0.3970588147640228)
(X_194  0.29901960492134094)
(X_195  0.30098041892051697)
(X_196  0.3068627417087555)
(X_197  0.2872548997402191)
(X_198  0.3637255132198334)
(X_199  0.3637255132198334)
(X_200  0.387254923582077)
(X_201  0.4068627655506134)
(X_202  0.41862747073173523)
(X_203  0.4225490391254425)
(X_204  0.2754901945590973)
(X_205  0.3558823764324188)
(X_206  0.3284313976764679)
(X_207  0.3127451241016388)
(X_208  0.21666668355464935)
(X_209  0.240196093916893)
(X_210  0.27156862616539)
(X_211  0.29509803652763367)
(X_212  0.4225490391254425)
(X_213  0.33039215207099915)
(X_214  0.34607842564582825)
(X_215  0.36176469922065735)
(X_216  0.3813725411891937)
(X_217  0.4009803831577301)
(X_218  0.5127450823783875)
(X_219  0.520588219165802)
(X_220  0.5480391979217529)
(X_221  0.479411780834198)
(X_222  0.4950980544090271)
(X_223  0.5872549414634705)
(X_224  0.2911764681339264)
(X_225  0.26372548937797546)
(X_226  0.24411766231060028)
(X_227  0.24411766231060028)
(X_228  0.26764705777168274)
(X_229  0.27156862616539)
(X_230  0.2558823525905609)
(X_231  0.23235295712947845)
(X_232  0.1774509847164154)
(X_233  0.1774509847164154)
(X_234  0.2617647051811218)
(X_235  0.24607843160629272)
(X_236  0.1617647111415863)
(X_237  0.1931372582912445)
(X_238  0.1931372582912445)
(X_239  0.17352941632270813)
(X_240  0.18137255311012268)
(X_241  0.21274511516094208)
(X_242  0.3637255132198334)
(X_243  0.39901962876319885)
(X_244  0.4068627655506134)
(X_245  0.41470590233802795)
(X_246  0.46176472306251526)
(X_247  0.5166666507720947)
(X_248  0.39313724637031555)
(X_249  0.41274508833885193)
(X_250  0.42450979351997375)
(X_251  0.4205882251262665)
(X_252  0.26764705777168274)
(X_253  0.26372548937797546)
(X_254  0.2598039209842682)
(X_255  0.26372548937797546)
(X_256  0.3715686500072479)
(X_257  0.3794117867946625)
(X_258  0.3794117867946625)
(X_259  0.3754902184009552)
(X_260  0.31078431010246277)
(X_261  0.34607842564582825)
(X_262  0.48137256503105164)
(X_263  0.49313727021217346)
(X_264  0.49705883860588074)
(X_265  0.3813725411891937)
(X_266  0.3343137204647064)
(X_267  0.2872548997402191)
(X_268  0.3401961028575897)
(X_269  0.33235296607017517)
(X_270  0.33235296607017517)
(X_271  0.3401961028575897)
(X_272  0.33627453446388245)
(X_273  0.33627453446388245)
(X_274  0.36764708161354065)
(X_275  0.3029411733150482)
(X_276  0.4107843339443207)
(X_277  0.4421568810939789)
(X_278  0.37745097279548645)
(X_279  0.3970588147640228)
(X_280  0.520588219165802)
(X_281  0.5284313559532166)
(X_282  0.44019606709480286)
(X_283  0.4362744987010956)
(X_284  0.42843136191368103)
(X_285  0.5245097875595093)
(X_286  0.5362744927406311)
(X_287  0.5441176295280457)
(X_288  0.4323529303073883)
(X_289  0.4754902124404907)
(X_290  0.5186274647712708)
(X_291  0.5264706015586853)
(X_292  0.5107843279838562)
(X_293  0.4754902124404907)
(X_294  0.4205882251262665)
(X_295  0.37745097279548645)
(X_296  0.5637255311012268)
(X_297  0.5284313559532166)
(X_298  0.49313727021217346)
(X_299  0.46568629145622253)
(X_300  0.43431374430656433)
(X_301  0.3950980603694916)
(X_302  0.3715686500072479)
(X_303  0.27156862616539)
(X_304  0.24411766231060028)
(X_305  0.26764705777168274)
(X_306  0.3029411733150482)
(X_307  0.33039215207099915)
(X_308  0.520588219165802)
(X_309  0.5323529243469238)
(X_310  0.4480392038822174)
(X_311  0.4598039388656616)
(X_312  0.4637255072593689)
(X_313  0.5715686678886414)
(X_314  0.5833333730697632)
(X_315  0.595098078250885)
(X_316  0.5676470994949341)
(X_317  0.5794118046760559)
(X_318  0.5794118046760559)
(X_319  0.5598039627075195)
(X_320  0.5362744927406311)
(X_321  0.42450979351997375)
(X_322  0.4205882251262665)
(X_323  0.5245097875595093)
(X_324  0.4166666567325592)
(X_325  0.4166666567325592)
(X_326  0.42843136191368103)
(X_327  0.551960825920105)
(X_328  0.5480391979217529)
(X_329  0.5245097875595093)
(X_330  0.5088235139846802)
(X_331  0.40882351994514465)
(X_332  0.26764705777168274)
(X_333  0.2558823525905609)
(X_334  0.25196078419685364)
(X_335  0.2558823525905609)
(X_336  0.35196080803871155)
(X_337  0.3598039448261261)
(X_338  0.3794117867946625)
(X_339  0.41470590233802795)
(X_340  0.45000001788139343)
(X_341  0.47745099663734436)
(X_342  0.4892157018184662)
(X_343  0.39313724637031555)
(X_344  0.5480391979217529)
(X_345  0.5480391979217529)
(X_346  0.44411763548851013)
(X_347  0.4362744987010956)
(X_348  0.42450979351997375)
(X_349  0.4323529303073883)
(X_350  0.45588237047195435)
(X_351  0.5833333730697632)
(X_352  0.5558823943138123)
(X_353  0.5558823943138123)
(X_354  0.5598039627075195)
(X_355  0.45196080207824707)
(X_356  0.5166666507720947)
(X_357  0.4696078598499298)
(X_358  0.45000001788139343)
(X_359  0.457843154668808)
(X_360  0.4598039388656616)
(X_361  0.42450979351997375)
(X_362  0.4009803831577301)
(X_363  0.39313724637031555)
(X_364  0.18137255311012268)
(X_365  0.18137255311012268)
(X_366  0.1931372582912445)
(X_367  0.21274511516094208)
(X_368  0.3401961028575897)
(X_369  0.3558823764324188)
(X_370  0.2558823525905609)
(X_371  0.24803923070430756)
(X_372  0.16960784792900085)
(X_373  0.18137255311012268)
(X_374  0.21666668355464935)
(X_375  0.25196078419685364)
(X_376  0.26764705777168274)
(X_377  0.26372548937797546)
(X_378  0.27156862616539)
(X_379  0.28333333134651184)
(X_380  0.29901960492134094)
(X_381  0.29901960492134094)
(X_382  0.31470587849617004)
(X_383  0.3382352888584137)
(X_384  0.3539215624332428)
(X_385  0.37745097279548645)
(X_386  0.5323529243469238)
(X_387  0.5872549414634705)
(X_388  0.6147059202194214)
(X_389  0.5990196466445923)
(X_390  0.6107843518257141)
(X_391  0.6539216041564941)
(X_392  0.23039215803146362)
(X_393  0.24215686321258545)
(X_394  0.15000000596046448)
(X_395  0.15392157435417175)
(X_396  0.24607843160629272)
(X_397  0.23823529481887817)
(X_398  0.2343137264251709)
(X_399  0.2343137264251709)
(X_400  0.2343137264251709)
(X_401  0.1303921639919281)
(X_402  0.15000000596046448)
(X_403  0.29313725233078003)
(X_404  0.32058826088905334)
(X_405  0.31666669249534607)
(X_406  0.21666668355464935)
(X_407  0.2245098203420639)
(X_408  0.24803923070430756)
(X_409  0.22058825194835663)
(X_410  0.19705882668495178)
(X_411  0.30098041892051697)
(X_412  0.31666669249534607)
(X_413  0.3401961028575897)
(X_414  0.38333335518836975)
(X_415  0.4225490391254425)
(X_416  0.31470587849617004)
(X_417  0.31470587849617004)
(X_418  0.3578431308269501)
(X_419  0.5441176295280457)
(X_420  0.07941177487373352)
(X_421  0.11078432202339172)
(X_422  0.14215686917304993)
(X_423  0.14215686917304993)
(X_424  0.12647059559822083)
(X_425  0.114705890417099)
(X_426  0.1303921639919281)
(X_427  0.15000000596046448)
(X_428  0.16960784792900085)
(X_429  0.12647059559822083)
(X_430  0.09509804844856262)
(X_431  0.10686275362968445)
(X_432  0.12647059559822083)
(X_433  0.24215686321258545)
(X_434  0.2656862735748291)
(X_435  0.1931372582912445)
(X_436  0.30490198731422424)
(X_437  0.2656862735748291)
(X_438  0.23823529481887817)
(X_439  0.25)
(X_440  0.27352941036224365)
(X_441  0.28921568393707275)
(X_442  0.20098040997982025)
(X_443  0.21274511516094208)
(X_444  0.20098040997982025)
(X_445  0.18921568989753723)
(X_446  0.2245098203420639)
(X_447  0.40294119715690613)
(X_448  0.1715686321258545)
(X_449  0.17941176891326904)
(X_450  0.1872549057006836)
(X_451  0.1872549057006836)
(X_452  0.18333333730697632)
(X_453  0.1872549057006836)
(X_454  0.19509804248809814)
(X_455  0.19901961088180542)
(X_456  0.21078431606292725)
(X_457  0.21078431606292725)
(X_458  0.21078431606292725)
(X_459  0.21078431606292725)
(X_460  0.21078431606292725)
(X_461  0.21078431606292725)
(X_462  0.21078431606292725)
(X_463  0.11078432202339172)
(X_464  0.12647059559822083)
(X_465  0.114705890417099)
(X_466  0.2029411792755127)
(X_467  0.19901961088180542)
(X_468  0.21078431606292725)
(X_469  0.23823529481887817)
(X_470  0.2656862735748291)
(X_471  0.2852941155433655)
(X_472  0.2970588207244873)
(X_473  0.30490198731422424)
(X_474  0.3127451241016388)
(X_475  0.3127451241016388)
(X_476  0.04411764815449715)
(X_477  0.0519607849419117)
(X_478  0.15980392694473267)
(X_479  0.15980392694473267)
(X_480  0.05588235333561897)
(X_481  0.05588235333561897)
(X_482  0.06372549384832382)
(X_483  0.1715686321258545)
(X_484  0.17941176891326904)
(X_485  0.17941176891326904)
(X_486  0.17941176891326904)
(X_487  0.07941177487373352)
(X_488  0.07941177487373352)
(X_489  0.07941177487373352)
(X_490  0.07941177487373352)
(X_491  0.07941177487373352)
(X_492  0.09117648005485535)
(X_493  0.0833333432674408)
(X_494  0.1715686321258545)
(X_495  0.1715686321258545)
(X_496  0.17941176891326904)
(X_497  0.19901961088180542)
(X_498  0.22254902124404907)
(X_499  0.13823530077934265)
(X_500  0.13823530077934265)
(X_501  0.1460784375667572)
(X_502  0.15392157435417175)
(X_503  0.15392157435417175)
(X_504  0.12450980395078659)
(X_505  0.028431374579668045)
(X_506  0.036274511367082596)
(X_507  0.036274511367082596)
(X_508  0.03235294297337532)
(X_509  0.03235294297337532)
(X_510  0.04019607976078987)
(X_511  0.14803922176361084)
(X_512  0.04803921654820442)
(X_513  0.04803921654820442)
(X_514  0.04803921654820442)
(X_515  0.04803921654820442)
(X_516  0.04803921654820442)
(X_517  0.04803921654820442)
(X_518  0.04803921654820442)
(X_519  0.04803921654820442)
(X_520  0.05588235333561897)
(X_521  0.0519607849419117)
(X_522  0.04803921654820442)
(X_523  0.04411764815449715)
(X_524  0.0519607849419117)
(X_525  0.06372549384832382)
(X_526  0.07941177487373352)
(X_527  0.1872549057006836)
(X_528  0.09509804844856262)
(X_529  0.10294118523597717)
(X_530  0.11078432202339172)
(X_531  0.114705890417099)
(X_532  0.12058823555707932)
(X_533  0.12843137979507446)
(X_534  0.136274516582489)
(X_535  0.13235294818878174)
(X_536  0.12843137979507446)
(X_537  0.028431374579668045)
(X_538  0.036274511367082596)
(X_539  0.04019607976078987)
(X_540  0.04019607976078987)
(X_541  0.04019607976078987)
(X_542  0.1401960849761963)
(X_543  0.1401960849761963)
(X_544  0.1401960849761963)
(X_545  0.04019607976078987)
(X_546  0.04019607976078987)
(X_547  0.04019607976078987)
(X_548  0.1401960849761963)
(X_549  0.1401960849761963)
(X_550  0.1401960849761963)
(X_551  0.1401960849761963)
(X_552  0.14411765336990356)
(X_553  0.14803922176361084)
(X_554  0.05588235333561897)
(X_555  0.05588235333561897)
(X_556  0.1715686321258545)
(X_557  0.07941177487373352)
(X_558  0.08725491166114807)
(X_559  0.1872549057006836)
(X_560  0.12450980395078659)
(X_561  0.12843137979507446)
(X_562  0.136274516582489)
(X_563  0.13235294818878174)
(X_564  0.12843137979507446)
(X_565  0.12843137979507446)
(X_566  0.03235294297337532)
(X_567  0.04019607976078987)
(X_568  0.036274511367082596)
(X_569  0.136274516582489)
(X_570  0.136274516582489)
(X_571  0.136274516582489)
(X_572  0.036274511367082596)
(X_573  0.036274511367082596)
(X_574  0.036274511367082596)
(X_575  0.036274511367082596)
(X_576  0.03235294297337532)
(X_577  0.036274511367082596)
(X_578  0.036274511367082596)
(X_579  0.04019607976078987)
(X_580  0.14411765336990356)
(X_581  0.1401960849761963)
(X_582  0.1401960849761963)
(X_583  0.1401960849761963)
(X_584  0.136274516582489)
(X_585  0.04411764815449715)
(X_586  0.0519607849419117)
(X_587  0.0519607849419117)
(X_588  0.11666666716337204)
(X_589  0.020588237792253494)
(X_590  0.12450980395078659)
(X_591  0.12450980395078659)
(X_592  0.01666666939854622)
(X_593  0.01666666939854622)
(X_594  0.020588237792253494)
(X_595  0.12843137979507446)
(X_596  0.12843137979507446)
(X_597  0.12843137979507446)
(X_598  0.12843137979507446)
(X_599  0.028431374579668045)
(X_600  0.028431374579668045)
(X_601  0.028431374579668045)
(X_602  0.028431374579668045)
(X_603  0.028431374579668045)
(X_604  0.020588237792253494)
(X_605  0.12450980395078659)
(X_606  0.12843137979507446)
(X_607  0.13235294818878174)
(X_608  0.13235294818878174)
(X_609  0.13235294818878174)
(X_610  0.12843137979507446)
(X_611  0.12843137979507446)
(X_612  0.02450980618596077)
(X_613  0.03235294297337532)
(X_614  0.04019607976078987)
(X_615  0.1401960849761963)
(X_616  0.10882353037595749)
(X_617  0.11666666716337204)
(X_618  0.12058823555707932)
(X_619  0.11666666716337204)
(X_620  0.008823529817163944)
(X_621  0.10882353037595749)
(X_622  0.012745101936161518)
(X_623  0.11666666716337204)
(X_624  0.12058823555707932)
(X_625  0.12058823555707932)
(X_626  0.12058823555707932)
(X_627  0.12058823555707932)
(X_628  0.020588237792253494)
(X_629  0.020588237792253494)
(X_630  0.12058823555707932)
(X_631  0.12058823555707932)
(X_632  0.11666666716337204)
(X_633  0.01666666939854622)
(X_634  0.020588237792253494)
(X_635  0.02450980618596077)
(X_636  0.12450980395078659)
(X_637  0.12450980395078659)
(X_638  0.12843137979507446)
(X_639  0.12843137979507446)
(X_640  0.02450980618596077)
(X_641  0.036274511367082596)
(X_642  0.14411765336990356)
(X_643  0.14411765336990356)
(X_644  0.008823529817163944)
(X_645  0.01666666939854622)
(X_646  0.12058823555707932)
(X_647  0.11666666716337204)
(X_648  0.10882353037595749)
(X_649  0.004901961423456669)
(X_650  0.008823529817163944)
(X_651  0.01666666939854622)
(X_652  0.020588237792253494)
(X_653  0.020588237792253494)
(X_654  0.020588237792253494)
(X_655  0.12058823555707932)
(X_656  0.020588237792253494)
(X_657  0.020588237792253494)
(X_658  0.020588237792253494)
(X_659  0.020588237792253494)
(X_660  0.12058823555707932)
(X_661  0.12058823555707932)
(X_662  0.12058823555707932)
(X_663  0.12450980395078659)
(X_664  0.02450980618596077)
(X_665  0.028431374579668045)
(X_666  0.03235294297337532)
(X_667  0.03235294297337532)
(X_668  0.01666666939854622)
(X_669  0.02450980618596077)
(X_670  0.03235294297337532)
(X_671  0.03235294297337532)
(X_672  0.11274509876966476)
(X_673  0.008823529817163944)
(X_674  0.0009803927969187498)
(X_675  0.004901961423456669)
(X_676  0.008823529817163944)
(X_677  0.11274509876966476)
(X_678  0.10490196198225021)
(X_679  0.10098039358854294)
(X_680  0.004901961423456669)
(X_681  0.10882353037595749)
(X_682  0.10882353037595749)
(X_683  0.10882353037595749)
(X_684  0.12058823555707932)
(X_685  0.036274511367082596)
(X_686  0.020588237792253494)
(X_687  -0.006862743757665157)
(X_688  0.10882353037595749)
(X_689  0.10882353037595749)
(X_690  0.008823529817163944)
(X_691  0.01666666939854622)
(X_692  0.12058823555707932)
(X_693  0.028431374579668045)
(X_694  0.028431374579668045)
(X_695  0.028431374579668045)
(X_696  0.12450980395078659)
(X_697  0.12058823555707932)
(X_698  0.12058823555707932)
(X_699  0.12450980395078659)
(X_700  0.344117671251297)
(X_701  0.22058825194835663)
(X_702  0.18137255311012268)
(X_703  0.13431373238563538)
(X_704  0.09117648005485535)
(X_705  0.04803921654820442)
(X_706  0.008823529817163944)
(X_707  -0.018627449870109558)
(X_708  0.02450980618596077)
(X_709  0.01666666939854622)
(X_710  -0.010784312151372433)
(X_711  0.07352941483259201)
(X_712  0.08921568840742111)
(X_713  0.11666666716337204)
(X_714  0.02450980618596077)
(X_715  0.01666666939854622)
(X_716  0.12058823555707932)
(X_717  0.11666666716337204)
(X_718  0.012745101936161518)
(X_719  0.008823529817163944)
(X_720  0.012745101936161518)
(X_721  0.11274509876966476)
(X_722  0.008823529817163944)
(X_723  0.10490196198225021)
(X_724  0.11666666716337204)
(X_725  0.11274509876966476)
(X_726  0.11274509876966476)
(X_727  0.11666666716337204)
(X_728  1.0107842683792114)
(X_729  0.8872548937797546)
(X_730  0.9480392336845398)
(X_731  0.9009804129600525)
(X_732  0.8578431606292725)
(X_733  0.8147059082984924)
(X_734  0.6715686321258545)
(X_735  0.7480392456054688)
(X_736  0.6107843518257141)
(X_737  0.5676470994949341)
(X_738  0.4892157018184662)
(X_739  0.3950980603694916)
(X_740  0.3245098292827606)
(X_741  0.2774509787559509)
(X_742  0.22254902124404907)
(X_743  0.17941176891326904)
(X_744  0.10490196198225021)
(X_745  0.10098039358854294)
(X_746  0.09705882519483566)
(X_747  0.004901961423456669)
(X_748  0.11274509876966476)
(X_749  0.11666666716337204)
(X_750  0.01666666939854622)
(X_751  0.012745101936161518)
(X_752  0.11274509876966476)
(X_753  0.10490196198225021)
(X_754  0.10098039358854294)
(X_755  0.10490196198225021)
(X_756  1.0499999523162842)
(X_757  1.0499999523162842)
(X_758  1.0499999523162842)
(X_759  0.949999988079071)
(X_760  0.949999988079071)
(X_761  0.949999988079071)
(X_762  0.9421568512916565)
(X_763  1.034313678741455)
(X_764  1.0499999523162842)
(X_765  1.0499999523162842)
(X_766  0.9382352828979492)
(X_767  0.9147058725357056)
(X_768  0.8990195989608765)
(X_769  0.8715686202049255)
(X_770  0.820588231086731)
(X_771  0.7735294103622437)
(X_772  0.7107843160629272)
(X_773  0.6558823585510254)
(X_774  0.5617647171020508)
(X_775  0.45588237047195435)
(X_776  0.4421568810939789)
(X_777  0.23627452552318573)
(X_778  0.14215686917304993)
(X_779  0.08725491166114807)
(X_780  0.012745101936161518)
(X_781  0.004901961423456669)
(X_782  -0.0029411755967885256)
(X_783  -0.0029411755967885256)
(Y_0 -42.623809814453125)
(Y_1 73.10527801513672)
(Y_2 -34.10719680786133)
(Y_3 4.074042797088623))