((X_0  1.0460784435272217)
(X_1  0.9460784196853638)
(X_2  0.949999988079071)
(X_3  0.949999988079071)
(X_4  0.949999988079071)
(X_5  0.949999988079071)
(X_6  0.949999988079071)
(X_7  0.949999988079071)
(X_8  1.0499999523162842)
(X_9  1.0499999523162842)
(X_10  1.0460784435272217)
(X_11  1.0460784435272217)
(X_12  1.0421568155288696)
(X_13  1.0421568155288696)
(X_14  1.0421568155288696)
(X_15  1.0382353067398071)
(X_16  0.9421568512916565)
(X_17  0.9421568512916565)
(X_18  0.9421568512916565)
(X_19  0.949999988079071)
(X_20  1.0499999523162842)
(X_21  1.0499999523162842)
(X_22  1.0382353067398071)
(X_23  0.9303921461105347)
(X_24  1.0460784435272217)
(X_25  1.022549033164978)
(X_26  0.8950980305671692)
(X_27  0.979411780834198)
(X_28  1.0382353067398071)
(X_29  1.0303921699523926)
(X_30  0.9225490093231201)
(X_31  0.906862735748291)
(X_32  0.8872548937797546)
(X_33  0.8715686202049255)
(X_34  0.8558823466300964)
(X_35  0.9441176652908325)
(X_36  0.9205882549285889)
(X_37  0.9166666865348816)
(X_38  0.8049019575119019)
(X_39  0.7774509787559509)
(X_40  0.75)
(X_41  0.7225490212440491)
(X_42  0.8068627715110779)
(X_43  0.6990196108818054)
(X_44  0.7166666984558105)
(X_45  0.6931372880935669)
(X_46  0.5578431487083435)
(X_47  0.5186274647712708)
(X_48  0.4833333492279053)
(X_49  0.44411763548851013)
(X_50  0.40882351994514465)
(X_51  0.385294109582901)
(X_52  0.4382353127002716)
(X_53  0.3225490152835846)
(X_54  0.29901960492134094)
(X_55  0.38333335518836975)
(X_56  0.43431374430656433)
(X_57  0.32647058367729187)
(X_58  0.31470587849617004)
(X_59  0.2911764681339264)
(X_60  0.26764705777168274)
(X_61  0.24411766231060028)
(X_62  0.2245098203420639)
(X_63  0.21274511516094208)
(X_64  0.2656862735748291)
(X_65  0.16960784792900085)
(X_66  0.1617647111415863)
(X_67  0.13823530077934265)
(X_68  0.20686274766921997)
(X_69  0.0833333432674408)
(X_70  0.07941177487373352)
(X_71  0.07941177487373352)
(X_72  0.0990196168422699)
(X_73  0.08725491166114807)
(X_74  0.07549020648002625)
(X_75  0.07156863063573837)
(X_76  0.1715686321258545)
(X_77  0.1715686321258545)
(X_78  0.16372549533843994)
(X_79  0.15980392694473267)
(X_80  0.19117647409439087)
(X_81  0.18333333730697632)
(X_82  0.07549020648002625)
(X_83  0.17549020051956177)
(X_84  0.1872549057006836)
(X_85  0.1872549057006836)
(X_86  0.18333333730697632)
(X_87  0.17549020051956177)
(X_88  0.16764706373214722)
(X_89  0.05980392172932625)
(X_90  0.14803922176361084)
(X_91  0.04411764815449715)
(X_92  0.18333333730697632)
(X_93  0.09117648005485535)
(X_94  0.09509804844856262)
(X_95  0.0833333432674408)
(X_96  0.16764706373214722)
(X_97  0.16764706373214722)
(X_98  0.18333333730697632)
(X_99  0.19901961088180542)
(X_100  0.16764706373214722)
(X_101  0.16372549533843994)
(X_102  0.16764706373214722)
(X_103  0.17941176891326904)
(X_104  0.09117648005485535)
(X_105  0.10294118523597717)
(X_106  0.0990196168422699)
(X_107  0.09509804844856262)
(X_108  0.0676470622420311)
(X_109  0.0676470622420311)
(X_110  0.07156863063573837)
(X_111  0.1872549057006836)
(X_112  0.0833333432674408)
(X_113  0.1872549057006836)
(X_114  0.09117648005485535)
(X_115  0.0990196168422699)
(X_116  0.10294118523597717)
(X_117  0.10294118523597717)
(X_118  0.10294118523597717)
(X_119  0.10294118523597717)
(X_120  0.09117648005485535)
(X_121  0.09117648005485535)
(X_122  0.0833333432674408)
(X_123  0.07156863063573837)
(X_124  0.06372549384832382)
(X_125  0.0676470622420311)
(X_126  0.09117648005485535)
(X_127  0.11078432202339172)
(X_128  0.19117647409439087)
(X_129  0.19117647409439087)
(X_130  0.19117647409439087)
(X_131  0.19901961088180542)
(X_132  0.2029411792755127)
(X_133  0.19509804248809814)
(X_134  0.17941176891326904)
(X_135  0.16372549533843994)
(X_136  0.17549020051956177)
(X_137  0.07549020648002625)
(X_138  0.0833333432674408)
(X_139  0.19901961088180542)
(X_140  0.16764706373214722)
(X_141  0.1715686321258545)
(X_142  0.17549020051956177)
(X_143  0.17941176891326904)
(X_144  0.07941177487373352)
(X_145  0.07941177487373352)
(X_146  0.07941177487373352)
(X_147  0.17941176891326904)
(X_148  0.1872549057006836)
(X_149  0.17941176891326904)
(X_150  0.07156863063573837)
(X_151  0.0676470622420311)
(X_152  0.1715686321258545)
(X_153  0.17941176891326904)
(X_154  0.19117647409439087)
(X_155  0.19901961088180542)
(X_156  0.0833333432674408)
(X_157  0.18333333730697632)
(X_158  0.1872549057006836)
(X_159  0.19509804248809814)
(X_160  0.2029411792755127)
(X_161  0.0990196168422699)
(X_162  0.08725491166114807)
(X_163  0.17941176891326904)
(X_164  0.07941177487373352)
(X_165  0.07156863063573837)
(X_166  0.0676470622420311)
(X_167  0.16764706373214722)
(X_168  0.12254902720451355)
(X_169  0.22647058963775635)
(X_170  0.23039215803146362)
(X_171  0.2343137264251709)
(X_172  0.23823529481887817)
(X_173  0.14215686917304993)
(X_174  0.14215686917304993)
(X_175  0.14215686917304993)
(X_176  0.20686274766921997)
(X_177  0.0990196168422699)
(X_178  0.09509804844856262)
(X_179  0.10294118523597717)
(X_180  0.11862745881080627)
(X_181  0.11862745881080627)
(X_182  0.0990196168422699)
(X_183  0.0833333432674408)
(X_184  0.21078431606292725)
(X_185  0.2029411792755127)
(X_186  0.19117647409439087)
(X_187  0.19117647409439087)
(X_188  0.19901961088180542)
(X_189  0.10686275362968445)
(X_190  0.11078432202339172)
(X_191  0.20686274766921997)
(X_192  0.22647058963775635)
(X_193  0.21078431606292725)
(X_194  0.09117648005485535)
(X_195  0.07941177487373352)
(X_196  0.26372548937797546)
(X_197  0.36764708161354065)
(X_198  0.3794117867946625)
(X_199  0.29509803652763367)
(X_200  0.3068627417087555)
(X_201  0.41862747073173523)
(X_202  0.32647058367729187)
(X_203  0.33039215207099915)
(X_204  0.3068627417087555)
(X_205  0.29509803652763367)
(X_206  0.2911764681339264)
(X_207  0.39901962876319885)
(X_208  0.3029411733150482)
(X_209  0.27941176295280457)
(X_210  0.22843138873577118)
(X_211  0.18137255311012268)
(X_212  0.30490198731422424)
(X_213  0.30098041892051697)
(X_214  0.3127451241016388)
(X_215  0.3401961028575897)
(X_216  0.2911764681339264)
(X_217  0.44607844948768616)
(X_218  0.4892157018184662)
(X_219  0.5127450823783875)
(X_220  0.5441176295280457)
(X_221  0.42450979351997375)
(X_222  0.4009803831577301)
(X_223  0.4852941334247589)
(X_224  0.3499999940395355)
(X_225  0.3813725411891937)
(X_226  0.457843154668808)
(X_227  0.43039217591285706)
(X_228  0.3499999940395355)
(X_229  0.36176469922065735)
(X_230  0.3696078360080719)
(X_231  0.39313724637031555)
(X_232  0.4049019515514374)
(X_233  0.3382352888584137)
(X_234  0.3382352888584137)
(X_235  0.36176469922065735)
(X_236  0.3382352888584137)
(X_237  0.32647058367729187)
(X_238  0.3539215624332428)
(X_239  0.3696078360080719)
(X_240  0.3813725411891937)
(X_241  0.48137256503105164)
(X_242  0.5127450823783875)
(X_243  0.5637255311012268)
(X_244  0.5990196466445923)
(X_245  0.595098078250885)
(X_246  0.5715686678886414)
(X_247  0.5637255311012268)
(X_248  0.4754902124404907)
(X_249  0.5147058963775635)
(X_250  0.5696078538894653)
(X_251  0.7009804248809814)
(X_252  0.3499999940395355)
(X_253  0.385294109582901)
(X_254  0.3656862676143646)
(X_255  0.3382352888584137)
(X_256  0.44607844948768616)
(X_257  0.4382353127002716)
(X_258  0.4225490391254425)
(X_259  0.3343137204647064)
(X_260  0.3696078360080719)
(X_261  0.3186274468898773)
(X_262  0.3343137204647064)
(X_263  0.37745097279548645)
(X_264  0.3696078360080719)
(X_265  0.3735294044017792)
(X_266  0.5127450823783875)
(X_267  0.5323529243469238)
(X_268  0.5480391979217529)
(X_269  0.5166666507720947)
(X_270  0.4892157018184662)
(X_271  0.47745099663734436)
(X_272  0.48137256503105164)
(X_273  0.5009803771972656)
(X_274  0.5441176295280457)
(X_275  0.48725491762161255)
(X_276  0.4950980544090271)
(X_277  0.48725491762161255)
(X_278  0.4833333492279053)
(X_279  0.4911764860153198)
(X_280  0.3950980603694916)
(X_281  0.41862747073173523)
(X_282  0.3754902184009552)
(X_283  0.21666668355464935)
(X_284  0.20098040997982025)
(X_285  0.2813725471496582)
(X_286  0.2539215683937073)
(X_287  0.2656862735748291)
(X_288  0.20098040997982025)
(X_289  0.16960784792900085)
(X_290  0.20098040997982025)
(X_291  0.3480392396450043)
(X_292  0.240196093916893)
(X_293  0.25196078419685364)
(X_294  0.29901960492134094)
(X_295  0.41862747073173523)
(X_296  0.40294119715690613)
(X_297  0.43039217591285706)
(X_298  0.3813725411891937)
(X_299  0.4205882251262665)
(X_300  0.520588219165802)
(X_301  0.49313727021217346)
(X_302  0.4852941334247589)
(X_303  0.3970588147640228)
(X_304  0.3578431308269501)
(X_305  0.3656862676143646)
(X_306  0.3499999940395355)
(X_307  0.32647058367729187)
(X_308  0.4421568810939789)
(X_309  0.45000001788139343)
(X_310  0.3911764919757843)
(X_311  0.22843138873577118)
(X_312  0.2245098203420639)
(X_313  0.2245098203420639)
(X_314  0.22843138873577118)
(X_315  0.2598039209842682)
(X_316  0.41470590233802795)
(X_317  0.3911764919757843)
(X_318  0.41470590233802795)
(X_319  0.43039217591285706)
(X_320  0.387254923582077)
(X_321  0.26764705777168274)
(X_322  0.2911764681339264)
(X_323  0.29509803652763367)
(X_324  0.32647058367729187)
(X_325  0.3068627417087555)
(X_326  0.2911764681339264)
(X_327  0.3794117867946625)
(X_328  0.3715686500072479)
(X_329  0.27156862616539)
(X_330  0.40294119715690613)
(X_331  0.4382353127002716)
(X_332  0.33039215207099915)
(X_333  0.49705883860588074)
(X_334  0.42843136191368103)
(X_335  0.3892156779766083)
(X_336  0.47745099663734436)
(X_337  0.5088235139846802)
(X_338  0.4852941334247589)
(X_339  0.46568629145622253)
(X_340  0.5009803771972656)
(X_341  0.5362744927406311)
(X_342  0.4637255072593689)
(X_343  0.5029411911964417)
(X_344  0.6500000357627869)
(X_345  0.6343137621879578)
(X_346  0.6539216041564941)
(X_347  0.5421568751335144)
(X_348  0.46764707565307617)
(X_349  0.42450979351997375)
(X_350  0.42450979351997375)
(X_351  0.4166666567325592)
(X_352  0.638235330581665)
(X_353  0.5676470994949341)
(X_354  0.4852941334247589)
(X_355  0.3343137204647064)
(X_356  0.41470590233802795)
(X_357  0.41470590233802795)
(X_358  0.4382353127002716)
(X_359  0.46568629145622253)
(X_360  0.48137256503105164)
(X_361  0.5245097875595093)
(X_362  0.44411763548851013)
(X_363  0.41274508833885193)
(X_364  0.34215685725212097)
(X_365  0.5009803771972656)
(X_366  0.520588219165802)
(X_367  0.5323529243469238)
(X_368  0.5754902362823486)
(X_369  0.5911765098571777)
(X_370  0.4833333492279053)
(X_371  0.4990196228027344)
(X_372  0.44411763548851013)
(X_373  0.4598039388656616)
(X_374  0.6107843518257141)
(X_375  0.6186274886131287)
(X_376  0.4598039388656616)
(X_377  0.44019606709480286)
(X_378  0.4598039388656616)
(X_379  0.45588237047195435)
(X_380  0.6264706254005432)
(X_381  0.6225490570068359)
(X_382  0.6421568989753723)
(X_383  0.6774510145187378)
(X_384  0.5813725590705872)
(X_385  0.5382353067398071)
(X_386  0.4833333492279053)
(X_387  0.4480392038822174)
(X_388  0.5401960611343384)
(X_389  0.49313727021217346)
(X_390  0.3382352888584137)
(X_391  0.32647058367729187)
(X_392  0.4421568810939789)
(X_393  0.5049019455909729)
(X_394  0.5284313559532166)
(X_395  0.5284313559532166)
(X_396  0.5441176295280457)
(X_397  0.520588219165802)
(X_398  0.3735294044017792)
(X_399  0.36176469922065735)
(X_400  0.28333333134651184)
(X_401  0.3225490152835846)
(X_402  0.5009803771972656)
(X_403  0.5245097875595093)
(X_404  0.3813725411891937)
(X_405  0.3813725411891937)
(X_406  0.41274508833885193)
(X_407  0.5127450823783875)
(X_408  0.4892157018184662)
(X_409  0.5049019455909729)
(X_410  0.5401960611343384)
(X_411  0.5872549414634705)
(X_412  0.6068627834320068)
(X_413  0.48725491762161255)
(X_414  0.5598039627075195)
(X_415  0.551960825920105)
(X_416  0.45588237047195435)
(X_417  0.3578431308269501)
(X_418  0.2911764681339264)
(X_419  0.3068627417087555)
(X_420  0.3225490152835846)
(X_421  0.3735294044017792)
(X_422  0.37745097279548645)
(X_423  0.36176469922065735)
(X_424  0.36176469922065735)
(X_425  0.33039215207099915)
(X_426  0.27941176295280457)
(X_427  0.36764708161354065)
(X_428  0.3029411733150482)
(X_429  0.34215685725212097)
(X_430  0.41274508833885193)
(X_431  0.4166666567325592)
(X_432  0.3499999940395355)
(X_433  0.4264706075191498)
(X_434  0.34607842564582825)
(X_435  0.3343137204647064)
(X_436  0.41862747073173523)
(X_437  0.4382353127002716)
(X_438  0.3735294044017792)
(X_439  0.4892157018184662)
(X_440  0.46568629145622253)
(X_441  0.31470587849617004)
(X_442  0.28333333134651184)
(X_443  0.27941176295280457)
(X_444  0.240196093916893)
(X_445  0.17352941632270813)
(X_446  0.1460784375667572)
(X_447  0.2813725471496582)
(X_448  0.40294119715690613)
(X_449  0.36176469922065735)
(X_450  0.385294109582901)
(X_451  0.3343137204647064)
(X_452  0.27941176295280457)
(X_453  0.344117671251297)
(X_454  0.30490198731422424)
(X_455  0.2617647051811218)
(X_456  0.25784313678741455)
(X_457  0.3401961028575897)
(X_458  0.39901962876319885)
(X_459  0.3754902184009552)
(X_460  0.33627453446388245)
(X_461  0.3127451241016388)
(X_462  0.18137255311012268)
(X_463  0.14215686917304993)
(X_464  0.15784314274787903)
(X_465  0.15392157435417175)
(X_466  0.1460784375667572)
(X_467  0.13823530077934265)
(X_468  0.23039215803146362)
(X_469  0.22254902124404907)
(X_470  0.21470588445663452)
(X_471  0.21078431606292725)
(X_472  0.19901961088180542)
(X_473  0.19901961088180542)
(X_474  0.19509804248809814)
(X_475  0.19509804248809814)
(X_476  0.16568627953529358)
(X_477  0.2088235467672348)
(X_478  0.31666669249534607)
(X_479  0.2774509787559509)
(X_480  0.13823530077934265)
(X_481  0.12647059559822083)
(X_482  0.10294118523597717)
(X_483  0.16764706373214722)
(X_484  0.18333333730697632)
(X_485  0.24607843160629272)
(X_486  0.2852941155433655)
(X_487  0.1617647111415863)
(X_488  0.13823530077934265)
(X_489  0.2343137264251709)
(X_490  0.2186274528503418)
(X_491  0.1872549057006836)
(X_492  0.09509804844856262)
(X_493  0.09509804844856262)
(X_494  0.19117647409439087)
(X_495  0.1872549057006836)
(X_496  0.18333333730697632)
(X_497  0.18333333730697632)
(X_498  0.17941176891326904)
(X_499  0.07549020648002625)
(X_500  0.17941176891326904)
(X_501  0.0833333432674408)
(X_502  0.08725491166114807)
(X_503  0.09117648005485535)
(X_504  0.2029411792755127)
(X_505  0.12254902720451355)
(X_506  0.21470588445663452)
(X_507  0.18333333730697632)
(X_508  0.16764706373214722)
(X_509  0.07156863063573837)
(X_510  0.05588235333561897)
(X_511  0.12843137979507446)
(X_512  0.04411764815449715)
(X_513  0.07549020648002625)
(X_514  0.09117648005485535)
(X_515  0.07549020648002625)
(X_516  0.0676470622420311)
(X_517  0.08725491166114807)
(X_518  0.08725491166114807)
(X_519  0.0676470622420311)
(X_520  0.06372549384832382)
(X_521  0.06372549384832382)
(X_522  0.06372549384832382)
(X_523  0.0676470622420311)
(X_524  0.0676470622420311)
(X_525  0.1715686321258545)
(X_526  0.1715686321258545)
(X_527  0.1715686321258545)
(X_528  0.17549020051956177)
(X_529  0.07941177487373352)
(X_530  0.0833333432674408)
(X_531  0.08725491166114807)
(X_532  0.21470588445663452)
(X_533  0.21470588445663452)
(X_534  0.19901961088180542)
(X_535  0.17549020051956177)
(X_536  0.17549020051956177)
(X_537  0.0833333432674408)
(X_538  0.0676470622420311)
(X_539  0.036274511367082596)
(X_540  0.04411764815449715)
(X_541  0.15980392694473267)
(X_542  0.1558823585510254)
(X_543  0.14803922176361084)
(X_544  0.1558823585510254)
(X_545  0.07941177487373352)
(X_546  0.0833333432674408)
(X_547  0.07156863063573837)
(X_548  0.16372549533843994)
(X_549  0.06372549384832382)
(X_550  0.0676470622420311)
(X_551  0.0676470622420311)
(X_552  0.1715686321258545)
(X_553  0.1715686321258545)
(X_554  0.17549020051956177)
(X_555  0.07549020648002625)
(X_556  0.18333333730697632)
(X_557  0.0833333432674408)
(X_558  0.18333333730697632)
(X_559  0.17941176891326904)
(X_560  0.17549020051956177)
(X_561  0.07156863063573837)
(X_562  0.06372549384832382)
(X_563  0.05588235333561897)
(X_564  0.06372549384832382)
(X_565  0.07156863063573837)
(X_566  0.0519607849419117)
(X_567  0.02450980618596077)
(X_568  0.04019607976078987)
(X_569  0.04411764815449715)
(X_570  0.04019607976078987)
(X_571  0.04019607976078987)
(X_572  0.0519607849419117)
(X_573  0.0676470622420311)
(X_574  0.06372549384832382)
(X_575  0.04803921654820442)
(X_576  0.05980392172932625)
(X_577  0.05980392172932625)
(X_578  0.05980392172932625)
(X_579  0.1558823585510254)
(X_580  0.1558823585510254)
(X_581  0.05588235333561897)
(X_582  0.1558823585510254)
(X_583  0.1558823585510254)
(X_584  0.17549020051956177)
(X_585  0.07156863063573837)
(X_586  0.07156863063573837)
(X_587  0.0676470622420311)
(X_588  0.136274516582489)
(X_589  0.03235294297337532)
(X_590  0.036274511367082596)
(X_591  0.04803921654820442)
(X_592  0.05980392172932625)
(X_593  0.06372549384832382)
(X_594  0.14803922176361084)
(X_595  0.13235294818878174)
(X_596  0.136274516582489)
(X_597  0.1401960849761963)
(X_598  0.04411764815449715)
(X_599  0.04803921654820442)
(X_600  0.0519607849419117)
(X_601  0.05588235333561897)
(X_602  0.04803921654820442)
(X_603  0.036274511367082596)
(X_604  0.15980392694473267)
(X_605  0.1558823585510254)
(X_606  0.1558823585510254)
(X_607  0.15196079015731812)
(X_608  0.14803922176361084)
(X_609  0.04803921654820442)
(X_610  0.14411765336990356)
(X_611  0.14411765336990356)
(X_612  0.04803921654820442)
(X_613  0.04803921654820442)
(X_614  0.14803922176361084)
(X_615  0.15196079015731812)
(X_616  0.14411765336990356)
(X_617  0.04019607976078987)
(X_618  0.04411764815449715)
(X_619  0.0519607849419117)
(X_620  0.05980392172932625)
(X_621  0.15980392694473267)
(X_622  0.1558823585510254)
(X_623  0.15196079015731812)
(X_624  0.1401960849761963)
(X_625  0.1401960849761963)
(X_626  0.14803922176361084)
(X_627  0.15196079015731812)
(X_628  0.0519607849419117)
(X_629  0.04803921654820442)
(X_630  0.04411764815449715)
(X_631  0.04803921654820442)
(X_632  0.0519607849419117)
(X_633  0.04803921654820442)
(X_634  0.04803921654820442)
(X_635  0.04803921654820442)
(X_636  0.04803921654820442)
(X_637  0.14411765336990356)
(X_638  0.14411765336990356)
(X_639  0.04411764815449715)
(X_640  0.036274511367082596)
(X_641  0.136274516582489)
(X_642  0.136274516582489)
(X_643  0.136274516582489)
(X_644  0.15196079015731812)
(X_645  0.04411764815449715)
(X_646  0.1401960849761963)
(X_647  0.1401960849761963)
(X_648  0.136274516582489)
(X_649  0.12843137979507446)
(X_650  0.12843137979507446)
(X_651  0.136274516582489)
(X_652  0.12843137979507446)
(X_653  0.13235294818878174)
(X_654  0.036274511367082596)
(X_655  0.04411764815449715)
(X_656  0.036274511367082596)
(X_657  0.03235294297337532)
(X_658  0.04019607976078987)
(X_659  0.0519607849419117)
(X_660  0.12450980395078659)
(X_661  0.12450980395078659)
(X_662  0.12450980395078659)
(X_663  0.028431374579668045)
(X_664  0.028431374579668045)
(X_665  0.12843137979507446)
(X_666  0.12843137979507446)
(X_667  0.028431374579668045)
(X_668  0.04411764815449715)
(X_669  0.04019607976078987)
(X_670  0.036274511367082596)
(X_671  0.03235294297337532)
(X_672  0.136274516582489)
(X_673  0.02450980618596077)
(X_674  0.02450980618596077)
(X_675  0.04019607976078987)
(X_676  0.04019607976078987)
(X_677  0.12843137979507446)
(X_678  0.12843137979507446)
(X_679  0.1401960849761963)
(X_680  0.13235294818878174)
(X_681  0.13235294818878174)
(X_682  0.12843137979507446)
(X_683  0.028431374579668045)
(X_684  0.12450980395078659)
(X_685  0.028431374579668045)
(X_686  0.028431374579668045)
(X_687  0.03235294297337532)
(X_688  0.12058823555707932)
(X_689  0.12450980395078659)
(X_690  0.028431374579668045)
(X_691  0.02450980618596077)
(X_692  0.11666666716337204)
(X_693  0.11274509876966476)
(X_694  0.11666666716337204)
(X_695  0.12058823555707932)
(X_696  0.12843137979507446)
(X_697  0.12843137979507446)
(X_698  0.12450980395078659)
(X_699  0.12450980395078659)
(X_700  0.136274516582489)
(X_701  0.02450980618596077)
(X_702  0.12450980395078659)
(X_703  0.136274516582489)
(X_704  0.136274516582489)
(X_705  0.02450980618596077)
(X_706  0.02450980618596077)
(X_707  0.036274511367082596)
(X_708  0.028431374579668045)
(X_709  0.028431374579668045)
(X_710  0.02450980618596077)
(X_711  0.02450980618596077)
(X_712  0.12450980395078659)
(X_713  0.02450980618596077)
(X_714  0.02450980618596077)
(X_715  0.028431374579668045)
(X_716  0.12058823555707932)
(X_717  0.12450980395078659)
(X_718  0.028431374579668045)
(X_719  0.02450980618596077)
(X_720  0.01666666939854622)
(X_721  0.11274509876966476)
(X_722  0.11666666716337204)
(X_723  0.12058823555707932)
(X_724  0.12450980395078659)
(X_725  0.12058823555707932)
(X_726  0.12058823555707932)
(X_727  0.12058823555707932)
(X_728  0.12843137979507446)
(X_729  0.11666666716337204)
(X_730  0.11666666716337204)
(X_731  0.12843137979507446)
(X_732  0.12843137979507446)
(X_733  0.11666666716337204)
(X_734  0.11666666716337204)
(X_735  0.12843137979507446)
(X_736  0.12058823555707932)
(X_737  0.12058823555707932)
(X_738  0.020588237792253494)
(X_739  0.020588237792253494)
(X_740  0.020588237792253494)
(X_741  0.020588237792253494)
(X_742  0.020588237792253494)
(X_743  0.020588237792253494)
(X_744  0.01666666939854622)
(X_745  0.02450980618596077)
(X_746  0.028431374579668045)
(X_747  0.02450980618596077)
(X_748  0.01666666939854622)
(X_749  0.012745101936161518)
(X_750  0.012745101936161518)
(X_751  0.020588237792253494)
(X_752  0.11666666716337204)
(X_753  0.11666666716337204)
(X_754  0.11666666716337204)
(X_755  0.11666666716337204)
(X_756  0.12843137979507446)
(X_757  0.012745101936161518)
(X_758  0.11274509876966476)
(X_759  0.12450980395078659)
(X_760  0.02450980618596077)
(X_761  0.10882353037595749)
(X_762  0.10882353037595749)
(X_763  0.12058823555707932)
(X_764  0.008823529817163944)
(X_765  0.10882353037595749)
(X_766  0.012745101936161518)
(X_767  0.01666666939854622)
(X_768  0.01666666939854622)
(X_769  0.01666666939854622)
(X_770  0.01666666939854622)
(X_771  0.01666666939854622)
(X_772  0.01666666939854622)
(X_773  0.020588237792253494)
(X_774  0.02450980618596077)
(X_775  0.020588237792253494)
(X_776  0.012745101936161518)
(X_777  0.10882353037595749)
(X_778  0.11274509876966476)
(X_779  0.11666666716337204)
(X_780  0.008823529817163944)
(X_781  0.008823529817163944)
(X_782  0.012745101936161518)
(X_783  0.012745101936161518)
(Y_0 -31.300029754638672)
(Y_1 25.929471969604492)
(Y_2 -22.74745750427246)
(Y_3 27.339147567749023))