((X_0  0.9107843041419983)
(X_1  0.8990195989608765)
(X_2  0.8833333253860474)
(X_3  0.8715686202049255)
(X_4  0.8676470518112183)
(X_5  0.8715686202049255)
(X_6  0.979411780834198)
(X_7  0.9872549176216125)
(X_8  0.979411780834198)
(X_9  0.9676470756530762)
(X_10  0.8598039150238037)
(X_11  0.9558823704719543)
(X_12  0.9598039388656616)
(X_13  0.9637255072593689)
(X_14  0.863725483417511)
(X_15  0.8598039150238037)
(X_16  0.8519607782363892)
(X_17  0.8362745046615601)
(X_18  0.8166666626930237)
(X_19  0.8127450942993164)
(X_20  0.9245098233222961)
(X_21  0.8362745046615601)
(X_22  0.8401960730552673)
(X_23  0.936274528503418)
(X_24  0.8127450942993164)
(X_25  0.7970588207244873)
(X_26  0.7813725471496582)
(X_27  0.7774509787559509)
(X_28  0.3598039448261261)
(X_29  0.26372548937797546)
(X_30  0.26764705777168274)
(X_31  0.36764708161354065)
(X_32  0.3637255132198334)
(X_33  0.25196078419685364)
(X_34  0.240196093916893)
(X_35  0.23235295712947845)
(X_36  0.21666668355464935)
(X_37  0.20490197837352753)
(X_38  0.29313725233078003)
(X_39  0.28921568393707275)
(X_40  0.2970588207244873)
(X_41  0.30490198731422424)
(X_42  0.3088235557079315)
(X_43  0.3088235557079315)
(X_44  0.3088235557079315)
(X_45  0.29313725233078003)
(X_46  0.1774509847164154)
(X_47  0.2696078419685364)
(X_48  0.2696078419685364)
(X_49  0.27352941036224365)
(X_50  0.2696078419685364)
(X_51  0.2656862735748291)
(X_52  0.2696078419685364)
(X_53  0.15784314274787903)
(X_54  0.14215686917304993)
(X_55  0.13823530077934265)
(X_56  0.036274511367082596)
(X_57  0.04411764815449715)
(X_58  0.05588235333561897)
(X_59  0.16372549533843994)
(X_60  0.16764706373214722)
(X_61  0.06372549384832382)
(X_62  0.05588235333561897)
(X_63  0.04803921654820442)
(X_64  0.07941177487373352)
(X_65  0.16764706373214722)
(X_66  0.1558823585510254)
(X_67  0.15196079015731812)
(X_68  0.15980392694473267)
(X_69  0.16764706373214722)
(X_70  0.1715686321258545)
(X_71  0.1715686321258545)
(X_72  0.07156863063573837)
(X_73  0.06372549384832382)
(X_74  0.05588235333561897)
(X_75  0.0519607849419117)
(X_76  0.05588235333561897)
(X_77  0.1558823585510254)
(X_78  0.15196079015731812)
(X_79  0.14803922176361084)
(X_80  0.15980392694473267)
(X_81  0.15196079015731812)
(X_82  0.1401960849761963)
(X_83  0.136274516582489)
(X_84  0.04803921654820442)
(X_85  0.04411764815449715)
(X_86  0.04019607976078987)
(X_87  0.036274511367082596)
(X_88  0.14411765336990356)
(X_89  0.1558823585510254)
(X_90  0.16764706373214722)
(X_91  0.17549020051956177)
(X_92  0.1558823585510254)
(X_93  0.14803922176361084)
(X_94  0.136274516582489)
(X_95  0.136274516582489)
(X_96  0.1401960849761963)
(X_97  0.04411764815449715)
(X_98  0.04019607976078987)
(X_99  0.03235294297337532)
(X_100  0.036274511367082596)
(X_101  0.036274511367082596)
(X_102  0.136274516582489)
(X_103  0.1401960849761963)
(X_104  0.14803922176361084)
(X_105  0.15196079015731812)
(X_106  0.15196079015731812)
(X_107  0.15196079015731812)
(X_108  0.04803921654820442)
(X_109  0.04019607976078987)
(X_110  0.036274511367082596)
(X_111  0.136274516582489)
(X_112  0.1715686321258545)
(X_113  0.16372549533843994)
(X_114  0.15196079015731812)
(X_115  0.136274516582489)
(X_116  0.12450980395078659)
(X_117  0.11666666716337204)
(X_118  0.11666666716337204)
(X_119  0.01666666939854622)
(X_120  0.06372549384832382)
(X_121  0.05980392172932625)
(X_122  0.05588235333561897)
(X_123  0.05980392172932625)
(X_124  0.16764706373214722)
(X_125  0.16764706373214722)
(X_126  0.05980392172932625)
(X_127  0.0519607849419117)
(X_128  0.05980392172932625)
(X_129  0.15980392694473267)
(X_130  0.15980392694473267)
(X_131  0.05980392172932625)
(X_132  0.1558823585510254)
(X_133  0.05588235333561897)
(X_134  0.05588235333561897)
(X_135  0.05980392172932625)
(X_136  0.1558823585510254)
(X_137  0.15196079015731812)
(X_138  0.14803922176361084)
(X_139  0.04803921654820442)
(X_140  0.36764708161354065)
(X_141  0.26764705777168274)
(X_142  0.26372548937797546)
(X_143  0.24411766231060028)
(X_144  0.21666668355464935)
(X_145  0.1774509847164154)
(X_146  0.24215686321258545)
(X_147  0.11862745881080627)
(X_148  0.15196079015731812)
(X_149  0.04019607976078987)
(X_150  0.03235294297337532)
(X_151  0.12843137979507446)
(X_152  0.13235294818878174)
(X_153  0.136274516582489)
(X_154  0.036274511367082596)
(X_155  0.13235294818878174)
(X_156  0.04019607976078987)
(X_157  0.1401960849761963)
(X_158  0.1401960849761963)
(X_159  0.03235294297337532)
(X_160  0.12450980395078659)
(X_161  0.12058823555707932)
(X_162  0.12450980395078659)
(X_163  0.13235294818878174)
(X_164  0.14803922176361084)
(X_165  0.1401960849761963)
(X_166  0.13235294818878174)
(X_167  0.13235294818878174)
(X_168  0.33039215207099915)
(X_169  0.3343137204647064)
(X_170  0.3382352888584137)
(X_171  0.3343137204647064)
(X_172  0.3186274468898773)
(X_173  0.2872548997402191)
(X_174  0.3598039448261261)
(X_175  0.3401961028575897)
(X_176  0.14215686917304993)
(X_177  0.114705890417099)
(X_178  0.07549020648002625)
(X_179  0.14411765336990356)
(X_180  0.12843137979507446)
(X_181  0.13235294818878174)
(X_182  0.136274516582489)
(X_183  0.136274516582489)
(X_184  0.03235294297337532)
(X_185  0.04411764815449715)
(X_186  0.05588235333561897)
(X_187  0.0676470622420311)
(X_188  0.07941177487373352)
(X_189  0.0990196168422699)
(X_190  0.23039215803146362)
(X_191  0.25)
(X_192  0.2617647051811218)
(X_193  0.25)
(X_194  0.2343137264251709)
(X_195  0.22647058963775635)
(X_196  0.3598039448261261)
(X_197  0.3598039448261261)
(X_198  0.3637255132198334)
(X_199  0.3715686500072479)
(X_200  0.27941176295280457)
(X_201  0.2911764681339264)
(X_202  0.29901960492134094)
(X_203  0.3029411733150482)
(X_204  0.33039215207099915)
(X_205  0.28333333134651184)
(X_206  0.21274511516094208)
(X_207  0.15000000596046448)
(X_208  0.114705890417099)
(X_209  0.10686275362968445)
(X_210  0.21470588445663452)
(X_211  0.2186274528503418)
(X_212  0.19901961088180542)
(X_213  0.22254902124404907)
(X_214  0.25784313678741455)
(X_215  0.29313725233078003)
(X_216  0.23627452552318573)
(X_217  0.2911764681339264)
(X_218  0.34607842564582825)
(X_219  0.3813725411891937)
(X_220  0.4735294282436371)
(X_221  0.4539215862751007)
(X_222  0.3343137204647064)
(X_223  0.3186274468898773)
(X_224  0.3637255132198334)
(X_225  0.35196080803871155)
(X_226  0.23627452552318573)
(X_227  0.31666669249534607)
(X_228  0.20098040997982025)
(X_229  0.1931372582912445)
(X_230  0.1931372582912445)
(X_231  0.1931372582912445)
(X_232  0.3245098292827606)
(X_233  0.31666669249534607)
(X_234  0.3088235557079315)
(X_235  0.30490198731422424)
(X_236  0.3088235557079315)
(X_237  0.3245098292827606)
(X_238  0.3401961028575897)
(X_239  0.35196080803871155)
(X_240  0.27156862616539)
(X_241  0.27941176295280457)
(X_242  0.2911764681339264)
(X_243  0.29509803652763367)
(X_244  0.29901960492134094)
(X_245  0.3029411733150482)
(X_246  0.3068627417087555)
(X_247  0.4107843339443207)
(X_248  0.3950980603694916)
(X_249  0.3911764919757843)
(X_250  0.2911764681339264)
(X_251  0.2911764681339264)
(X_252  0.6460784673690796)
(X_253  0.638235330581665)
(X_254  0.5186274647712708)
(X_255  0.5990196466445923)
(X_256  0.5794118046760559)
(X_257  0.5637255311012268)
(X_258  0.551960825920105)
(X_259  0.4480392038822174)
(X_260  0.3892156779766083)
(X_261  0.4696078598499298)
(X_262  0.4382353127002716)
(X_263  0.39901962876319885)
(X_264  0.36764708161354065)
(X_265  0.3480392396450043)
(X_266  0.33627453446388245)
(X_267  0.33235296607017517)
(X_268  0.23627452552318573)
(X_269  0.240196093916893)
(X_270  0.24803923070430756)
(X_271  0.26764705777168274)
(X_272  0.2911764681339264)
(X_273  0.3068627417087555)
(X_274  0.3186274468898773)
(X_275  0.3186274468898773)
(X_276  0.29509803652763367)
(X_277  0.2911764681339264)
(X_278  0.387254923582077)
(X_279  0.38333335518836975)
(X_280  0.3735294044017792)
(X_281  0.385294109582901)
(X_282  0.4049019515514374)
(X_283  0.4362744987010956)
(X_284  0.46764707565307617)
(X_285  0.595098078250885)
(X_286  0.5147058963775635)
(X_287  0.5264706015586853)
(X_288  0.6931372880935669)
(X_289  0.6813725829124451)
(X_290  0.6617647409439087)
(X_291  0.638235330581665)
(X_292  0.6186274886131287)
(X_293  0.6107843518257141)
(X_294  0.5068627595901489)
(X_295  0.5029411911964417)
(X_296  0.6539216041564941)
(X_297  0.6264706254005432)
(X_298  0.4833333492279053)
(X_299  0.4362744987010956)
(X_300  0.3892156779766083)
(X_301  0.34607842564582825)
(X_302  0.31078431010246277)
(X_303  0.387254923582077)
(X_304  0.3754902184009552)
(X_305  0.3715686500072479)
(X_306  0.26764705777168274)
(X_307  0.26372548937797546)
(X_308  0.21274511516094208)
(X_309  0.22058825194835663)
(X_310  0.22843138873577118)
(X_311  0.24411766231060028)
(X_312  0.26764705777168274)
(X_313  0.2872548997402191)
(X_314  0.3068627417087555)
(X_315  0.41862747073173523)
(X_316  0.3578431308269501)
(X_317  0.457843154668808)
(X_318  0.3539215624332428)
(X_319  0.3578431308269501)
(X_320  0.36176469922065735)
(X_321  0.4696078598499298)
(X_322  0.47745099663734436)
(X_323  0.4852941334247589)
(X_324  0.4480392038822174)
(X_325  0.5598039627075195)
(X_326  0.5676470994949341)
(X_327  0.46764707565307617)
(X_328  0.4637255072593689)
(X_329  0.46764707565307617)
(X_330  0.48725491762161255)
(X_331  0.5029411911964417)
(X_332  0.5754902362823486)
(X_333  0.5754902362823486)
(X_334  0.5715686678886414)
(X_335  0.5715686678886414)
(X_336  0.22058825194835663)
(X_337  0.3127451241016388)
(X_338  0.19705882668495178)
(X_339  0.18529412150382996)
(X_340  0.2813725471496582)
(X_341  0.2852941155433655)
(X_342  0.29313725233078003)
(X_343  0.20098040997982025)
(X_344  0.3401961028575897)
(X_345  0.33627453446388245)
(X_346  0.3284313976764679)
(X_347  0.31666669249534607)
(X_348  0.30490198731422424)
(X_349  0.2970588207244873)
(X_350  0.28921568393707275)
(X_351  0.18529412150382996)
(X_352  0.27941176295280457)
(X_353  0.31078431010246277)
(X_354  0.43431374430656433)
(X_355  0.3186274468898773)
(X_356  0.28333333134651184)
(X_357  0.27156862616539)
(X_358  0.29901960492134094)
(X_359  0.43431374430656433)
(X_360  0.4735294282436371)
(X_361  0.4696078598499298)
(X_362  0.46568629145622253)
(X_363  0.46176472306251526)
(X_364  0.15784314274787903)
(X_365  0.15392157435417175)
(X_366  0.15000000596046448)
(X_367  0.24607843160629272)
(X_368  0.2539215683937073)
(X_369  0.2656862735748291)
(X_370  0.2813725471496582)
(X_371  0.28921568393707275)
(X_372  0.18921568989753723)
(X_373  0.18921568989753723)
(X_374  0.18529412150382996)
(X_375  0.2774509787559509)
(X_376  0.2696078419685364)
(X_377  0.25784313678741455)
(X_378  0.25)
(X_379  0.14215686917304993)
(X_380  0.14215686917304993)
(X_381  0.2852941155433655)
(X_382  0.3245098292827606)
(X_383  0.32058826088905334)
(X_384  0.28921568393707275)
(X_385  0.2813725471496582)
(X_386  0.21274511516094208)
(X_387  0.25196078419685364)
(X_388  0.35196080803871155)
(X_389  0.344117671251297)
(X_390  0.33627453446388245)
(X_391  0.2245098203420639)
(X_392  0.12647059559822083)
(X_393  0.12647059559822083)
(X_394  0.12254902720451355)
(X_395  0.22254902124404907)
(X_396  0.2186274528503418)
(X_397  0.21078431606292725)
(X_398  0.20686274766921997)
(X_399  0.2029411792755127)
(X_400  0.114705890417099)
(X_401  0.22254902124404907)
(X_402  0.13431373238563538)
(X_403  0.1460784375667572)
(X_404  0.15392157435417175)
(X_405  0.15784314274787903)
(X_406  0.15784314274787903)
(X_407  0.25784313678741455)
(X_408  0.15784314274787903)
(X_409  0.18137255311012268)
(X_410  0.20098040997982025)
(X_411  0.1931372582912445)
(X_412  0.16960784792900085)
(X_413  0.24607843160629272)
(X_414  0.25)
(X_415  0.25784313678741455)
(X_416  0.18529412150382996)
(X_417  0.18137255311012268)
(X_418  0.2774509787559509)
(X_419  0.2696078419685364)
(X_420  0.008823529817163944)
(X_421  0.02450980618596077)
(X_422  0.14411765336990356)
(X_423  0.16372549533843994)
(X_424  0.17549020051956177)
(X_425  0.17549020051956177)
(X_426  0.0676470622420311)
(X_427  0.05980392172932625)
(X_428  0.06372549384832382)
(X_429  0.16764706373214722)
(X_430  0.17549020051956177)
(X_431  0.07941177487373352)
(X_432  0.17549020051956177)
(X_433  0.16764706373214722)
(X_434  0.15980392694473267)
(X_435  0.0519607849419117)
(X_436  0.04803921654820442)
(X_437  0.05588235333561897)
(X_438  0.16764706373214722)
(X_439  0.17941176891326904)
(X_440  0.08725491166114807)
(X_441  0.07941177487373352)
(X_442  0.0676470622420311)
(X_443  0.05588235333561897)
(X_444  0.18333333730697632)
(X_445  0.18333333730697632)
(X_446  0.1872549057006836)
(X_447  0.09117648005485535)
(X_448  0.04019607976078987)
(X_449  0.1401960849761963)
(X_450  0.14411765336990356)
(X_451  0.14411765336990356)
(X_452  0.14411765336990356)
(X_453  0.14411765336990356)
(X_454  0.1401960849761963)
(X_455  0.04019607976078987)
(X_456  0.04019607976078987)
(X_457  0.04019607976078987)
(X_458  0.04019607976078987)
(X_459  0.04411764815449715)
(X_460  0.14803922176361084)
(X_461  0.14803922176361084)
(X_462  0.15196079015731812)
(X_463  0.15196079015731812)
(X_464  0.1401960849761963)
(X_465  0.1401960849761963)
(X_466  0.1401960849761963)
(X_467  0.04019607976078987)
(X_468  0.04019607976078987)
(X_469  0.04019607976078987)
(X_470  0.04019607976078987)
(X_471  0.04019607976078987)
(X_472  0.14803922176361084)
(X_473  0.15196079015731812)
(X_474  0.15980392694473267)
(X_475  0.16764706373214722)
(X_476  0.028431374579668045)
(X_477  0.028431374579668045)
(X_478  0.03235294297337532)
(X_479  0.036274511367082596)
(X_480  0.036274511367082596)
(X_481  0.03235294297337532)
(X_482  0.028431374579668045)
(X_483  0.028431374579668045)
(X_484  0.036274511367082596)
(X_485  0.036274511367082596)
(X_486  0.04019607976078987)
(X_487  0.04019607976078987)
(X_488  0.1401960849761963)
(X_489  0.1401960849761963)
(X_490  0.14411765336990356)
(X_491  0.14411765336990356)
(X_492  0.12450980395078659)
(X_493  0.12450980395078659)
(X_494  0.02450980618596077)
(X_495  0.02450980618596077)
(X_496  0.02450980618596077)
(X_497  0.12450980395078659)
(X_498  0.02450980618596077)
(X_499  0.12450980395078659)
(X_500  0.02450980618596077)
(X_501  0.12843137979507446)
(X_502  0.03235294297337532)
(X_503  0.1401960849761963)
(X_504  0.01666666939854622)
(X_505  0.11666666716337204)
(X_506  0.12058823555707932)
(X_507  0.12058823555707932)
(X_508  0.12058823555707932)
(X_509  0.020588237792253494)
(X_510  0.01666666939854622)
(X_511  0.01666666939854622)
(X_512  0.036274511367082596)
(X_513  0.03235294297337532)
(X_514  0.03235294297337532)
(X_515  0.03235294297337532)
(X_516  0.13235294818878174)
(X_517  0.13235294818878174)
(X_518  0.12843137979507446)
(X_519  0.12843137979507446)
(X_520  0.11666666716337204)
(X_521  0.11666666716337204)
(X_522  0.11666666716337204)
(X_523  0.11666666716337204)
(X_524  0.11666666716337204)
(X_525  0.01666666939854622)
(X_526  0.01666666939854622)
(X_527  0.01666666939854622)
(X_528  0.008823529817163944)
(X_529  0.012745101936161518)
(X_530  0.01666666939854622)
(X_531  0.020588237792253494)
(X_532  0.10882353037595749)
(X_533  0.012745101936161518)
(X_534  0.012745101936161518)
(X_535  0.01666666939854622)
(X_536  0.01666666939854622)
(X_537  0.11274509876966476)
(X_538  0.11274509876966476)
(X_539  0.008823529817163944)
(X_540  0.028431374579668045)
(X_541  0.12843137979507446)
(X_542  0.12843137979507446)
(X_543  0.12450980395078659)
(X_544  0.020588237792253494)
(X_545  0.020588237792253494)
(X_546  0.01666666939854622)
(X_547  0.11666666716337204)
(X_548  0.12450980395078659)
(X_549  0.12450980395078659)
(X_550  0.12450980395078659)
(X_551  0.12450980395078659)
(X_552  0.02450980618596077)
(X_553  0.02450980618596077)
(X_554  0.02450980618596077)
(X_555  0.02450980618596077)
(X_556  0.01666666939854622)
(X_557  0.01666666939854622)
(X_558  0.020588237792253494)
(X_559  0.020588237792253494)
(X_560  0.008823529817163944)
(X_561  0.008823529817163944)
(X_562  0.012745101936161518)
(X_563  0.01666666939854622)
(X_564  0.01666666939854622)
(X_565  0.012745101936161518)
(X_566  0.008823529817163944)
(X_567  0.008823529817163944)
(X_568  0.12450980395078659)
(X_569  0.020588237792253494)
(X_570  0.020588237792253494)
(X_571  0.01666666939854622)
(X_572  0.11666666716337204)
(X_573  0.012745101936161518)
(X_574  0.012745101936161518)
(X_575  0.008823529817163944)
(X_576  0.12450980395078659)
(X_577  0.12450980395078659)
(X_578  0.12450980395078659)
(X_579  0.02450980618596077)
(X_580  0.02450980618596077)
(X_581  0.02450980618596077)
(X_582  0.02450980618596077)
(X_583  0.02450980618596077)
(X_584  0.12058823555707932)
(X_585  0.12450980395078659)
(X_586  0.12450980395078659)
(X_587  0.12450980395078659)
(X_588  0.10882353037595749)
(X_589  0.10882353037595749)
(X_590  0.11274509876966476)
(X_591  0.11274509876966476)
(X_592  0.11274509876966476)
(X_593  0.11274509876966476)
(X_594  0.008823529817163944)
(X_595  0.008823529817163944)
(X_596  0.01666666939854622)
(X_597  0.01666666939854622)
(X_598  0.01666666939854622)
(X_599  0.11274509876966476)
(X_600  0.11274509876966476)
(X_601  0.11274509876966476)
(X_602  0.11274509876966476)
(X_603  0.11274509876966476)
(X_604  0.11274509876966476)
(X_605  0.11274509876966476)
(X_606  0.012745101936161518)
(X_607  0.11274509876966476)
(X_608  0.11274509876966476)
(X_609  0.11274509876966476)
(X_610  0.012745101936161518)
(X_611  0.012745101936161518)
(X_612  0.012745101936161518)
(X_613  0.11274509876966476)
(X_614  0.01666666939854622)
(X_615  0.11666666716337204)
(X_616  0.10098039358854294)
(X_617  0.10490196198225021)
(X_618  0.008823529817163944)
(X_619  0.008823529817163944)
(X_620  0.008823529817163944)
(X_621  0.008823529817163944)
(X_622  0.004901961423456669)
(X_623  0.0009803927969187498)
(X_624  0.10882353037595749)
(X_625  0.10882353037595749)
(X_626  0.11274509876966476)
(X_627  0.012745101936161518)
(X_628  0.012745101936161518)
(X_629  0.012745101936161518)
(X_630  0.11274509876966476)
(X_631  0.11666666716337204)
(X_632  0.004901961423456669)
(X_633  0.004901961423456669)
(X_634  0.10490196198225021)
(X_635  0.10490196198225021)
(X_636  0.10490196198225021)
(X_637  0.10490196198225021)
(X_638  0.10490196198225021)
(X_639  0.10490196198225021)
(X_640  0.10490196198225021)
(X_641  0.10490196198225021)
(X_642  0.008823529817163944)
(X_643  0.11274509876966476)
(X_644  0.09705882519483566)
(X_645  0.10098039358854294)
(X_646  0.10098039358854294)
(X_647  0.004901961423456669)
(X_648  0.004901961423456669)
(X_649  0.0009803927969187498)
(X_650  0.0009803927969187498)
(X_651  -0.0029411755967885256)
(X_652  0.004901961423456669)
(X_653  0.008823529817163944)
(X_654  0.008823529817163944)
(X_655  0.012745101936161518)
(X_656  0.11274509876966476)
(X_657  0.11666666716337204)
(X_658  0.11666666716337204)
(X_659  0.12058823555707932)
(X_660  0.10882353037595749)
(X_661  0.10882353037595749)
(X_662  0.008823529817163944)
(X_663  0.008823529817163944)
(X_664  0.008823529817163944)
(X_665  0.008823529817163944)
(X_666  0.008823529817163944)
(X_667  0.008823529817163944)
(X_668  0.0009803927969187498)
(X_669  0.004901961423456669)
(X_670  0.008823529817163944)
(X_671  0.11274509876966476)
(X_672  0.004901961423456669)
(X_673  0.10490196198225021)
(X_674  0.10490196198225021)
(X_675  0.10490196198225021)
(X_676  0.10490196198225021)
(X_677  0.10490196198225021)
(X_678  0.10490196198225021)
(X_679  0.10490196198225021)
(X_680  0.10098039358854294)
(X_681  0.10490196198225021)
(X_682  0.10490196198225021)
(X_683  0.0009803927969187498)
(X_684  -0.006862743757665157)
(X_685  0.09313725680112839)
(X_686  0.10098039358854294)
(X_687  0.10882353037595749)
(X_688  0.10882353037595749)
(X_689  0.11274509876966476)
(X_690  0.11274509876966476)
(X_691  0.10490196198225021)
(X_692  0.09705882519483566)
(X_693  0.09313725680112839)
(X_694  0.10098039358854294)
(X_695  0.10882353037595749)
(X_696  0.11666666716337204)
(X_697  0.012745101936161518)
(X_698  0.008823529817163944)
(X_699  0.008823529817163944)
(X_700  0.10490196198225021)
(X_701  0.10490196198225021)
(X_702  0.10490196198225021)
(X_703  0.10490196198225021)
(X_704  0.10490196198225021)
(X_705  0.004901961423456669)
(X_706  0.004901961423456669)
(X_707  0.004901961423456669)
(X_708  0.0009803927969187498)
(X_709  0.004901961423456669)
(X_710  0.004901961423456669)
(X_711  0.0009803927969187498)
(X_712  -0.006862743757665157)
(X_713  -0.006862743757665157)
(X_714  0.10098039358854294)
(X_715  0.10882353037595749)
(X_716  0.008823529817163944)
(X_717  0.012745101936161518)
(X_718  0.012745101936161518)
(X_719  0.004901961423456669)
(X_720  -0.0029411755967885256)
(X_721  -0.0029411755967885256)
(X_722  0.0009803927969187498)
(X_723  0.008823529817163944)
(X_724  0.012745101936161518)
(X_725  0.012745101936161518)
(X_726  0.008823529817163944)
(X_727  0.10490196198225021)
(X_728  0.004901961423456669)
(X_729  0.10490196198225021)
(X_730  0.004901961423456669)
(X_731  0.10490196198225021)
(X_732  0.10490196198225021)
(X_733  0.10490196198225021)
(X_734  0.10490196198225021)
(X_735  0.10490196198225021)
(X_736  0.0009803927969187498)
(X_737  0.004901961423456669)
(X_738  0.004901961423456669)
(X_739  0.0009803927969187498)
(X_740  -0.006862743757665157)
(X_741  -0.006862743757665157)
(X_742  0.0009803927969187498)
(X_743  0.008823529817163944)
(X_744  0.004901961423456669)
(X_745  0.008823529817163944)
(X_746  0.012745101936161518)
(X_747  0.004901961423456669)
(X_748  -0.0029411755967885256)
(X_749  0.09705882519483566)
(X_750  0.10098039358854294)
(X_751  0.10882353037595749)
(X_752  0.10882353037595749)
(X_753  0.004901961423456669)
(X_754  0.10098039358854294)
(X_755  0.10098039358854294)
(X_756  0.0009803927969187498)
(X_757  0.0009803927969187498)
(X_758  0.0009803927969187498)
(X_759  0.10098039358854294)
(X_760  0.10098039358854294)
(X_761  0.0009803927969187498)
(X_762  0.10098039358854294)
(X_763  0.10098039358854294)
(X_764  0.10098039358854294)
(X_765  0.10490196198225021)
(X_766  0.10490196198225021)
(X_767  0.10098039358854294)
(X_768  0.09313725680112839)
(X_769  0.09313725680112839)
(X_770  0.10098039358854294)
(X_771  0.10882353037595749)
(X_772  0.10490196198225021)
(X_773  0.008823529817163944)
(X_774  0.008823529817163944)
(X_775  0.004901961423456669)
(X_776  -0.0029411755967885256)
(X_777  -0.0029411755967885256)
(X_778  0.10490196198225021)
(X_779  0.11274509876966476)
(X_780  0.10490196198225021)
(X_781  0.0009803927969187498)
(X_782  -0.0029411755967885256)
(X_783  0.09313725680112839)
(Y_0 36.147666931152344)
(Y_1 -4.0260701179504395)
(Y_2 9.545183181762695)
(Y_3 -42.1512565612793))