((X_0  0.949999988079071)
(X_1  0.949999988079071)
(X_2  0.9460784196853638)
(X_3  0.9382352828979492)
(X_4  0.9225490093231201)
(X_5  0.9029411673545837)
(X_6  0.9872549176216125)
(X_7  0.979411780834198)
(X_8  0.9833333492279053)
(X_9  0.9754902124404907)
(X_10  0.9558823704719543)
(X_11  0.9323529601097107)
(X_12  0.9049019813537598)
(X_13  0.8774510025978088)
(X_14  0.7539215683937073)
(X_15  0.7421568632125854)
(X_16  0.7029411792755127)
(X_17  0.6911764740943909)
(X_18  0.6715686321258545)
(X_19  0.636274516582489)
(X_20  0.6931372880935669)
(X_21  0.6500000357627869)
(X_22  0.6147059202194214)
(X_23  0.595098078250885)
(X_24  0.4637255072593689)
(X_25  0.4323529303073883)
(X_26  0.39313724637031555)
(X_27  0.3656862676143646)
(X_28  0.5127450823783875)
(X_29  0.5049019455909729)
(X_30  0.4892157018184662)
(X_31  0.46568629145622253)
(X_32  0.3382352888584137)
(X_33  0.3068627417087555)
(X_34  0.28333333134651184)
(X_35  0.27156862616539)
(X_36  0.30098041892051697)
(X_37  0.2970588207244873)
(X_38  0.2852941155433655)
(X_39  0.2696078419685364)
(X_40  0.2539215683937073)
(X_41  0.2343137264251709)
(X_42  0.2186274528503418)
(X_43  0.21078431606292725)
(X_44  0.2029411792755127)
(X_45  0.0990196168422699)
(X_46  0.09117648005485535)
(X_47  0.0833333432674408)
(X_48  0.07156863063573837)
(X_49  0.05980392172932625)
(X_50  0.15196079015731812)
(X_51  0.14803922176361084)
(X_52  0.17941176891326904)
(X_53  0.16372549533843994)
(X_54  0.04803921654820442)
(X_55  0.04803921654820442)
(X_56  0.09117648005485535)
(X_57  0.08725491166114807)
(X_58  0.0833333432674408)
(X_59  0.1715686321258545)
(X_60  0.15980392694473267)
(X_61  0.14803922176361084)
(X_62  0.03235294297337532)
(X_63  0.028431374579668045)
(X_64  0.08725491166114807)
(X_65  0.0833333432674408)
(X_66  0.18333333730697632)
(X_67  0.17941176891326904)
(X_68  0.1715686321258545)
(X_69  0.16372549533843994)
(X_70  0.15980392694473267)
(X_71  0.15196079015731812)
(X_72  0.07156863063573837)
(X_73  0.0676470622420311)
(X_74  0.0676470622420311)
(X_75  0.06372549384832382)
(X_76  0.0676470622420311)
(X_77  0.16764706373214722)
(X_78  0.1715686321258545)
(X_79  0.17549020051956177)
(X_80  0.16372549533843994)
(X_81  0.15980392694473267)
(X_82  0.1558823585510254)
(X_83  0.15980392694473267)
(X_84  0.0519607849419117)
(X_85  0.05588235333561897)
(X_86  0.05980392172932625)
(X_87  0.0676470622420311)
(X_88  0.17549020051956177)
(X_89  0.18333333730697632)
(X_90  0.1872549057006836)
(X_91  0.1872549057006836)
(X_92  0.1558823585510254)
(X_93  0.15980392694473267)
(X_94  0.16372549533843994)
(X_95  0.06372549384832382)
(X_96  0.06372549384832382)
(X_97  0.06372549384832382)
(X_98  0.06372549384832382)
(X_99  0.05980392172932625)
(X_100  0.0676470622420311)
(X_101  0.0676470622420311)
(X_102  0.07156863063573837)
(X_103  0.07156863063573837)
(X_104  0.1715686321258545)
(X_105  0.1715686321258545)
(X_106  0.16764706373214722)
(X_107  0.16764706373214722)
(X_108  0.07941177487373352)
(X_109  0.07941177487373352)
(X_110  0.07941177487373352)
(X_111  0.07941177487373352)
(X_112  0.1558823585510254)
(X_113  0.1558823585510254)
(X_114  0.15980392694473267)
(X_115  0.15980392694473267)
(X_116  0.16372549533843994)
(X_117  0.16372549533843994)
(X_118  0.0676470622420311)
(X_119  0.0676470622420311)
(X_120  0.0519607849419117)
(X_121  0.0519607849419117)
(X_122  0.05588235333561897)
(X_123  0.05980392172932625)
(X_124  0.05980392172932625)
(X_125  0.05980392172932625)
(X_126  0.05980392172932625)
(X_127  0.05588235333561897)
(X_128  0.14803922176361084)
(X_129  0.15196079015731812)
(X_130  0.06372549384832382)
(X_131  0.07549020648002625)
(X_132  0.07941177487373352)
(X_133  0.07549020648002625)
(X_134  0.0676470622420311)
(X_135  0.06372549384832382)
(X_136  0.14411765336990356)
(X_137  0.14803922176361084)
(X_138  0.14803922176361084)
(X_139  0.0519607849419117)
(X_140  0.0676470622420311)
(X_141  0.16764706373214722)
(X_142  0.06372549384832382)
(X_143  0.05980392172932625)
(X_144  0.05980392172932625)
(X_145  0.05980392172932625)
(X_146  0.05980392172932625)
(X_147  0.06372549384832382)
(X_148  0.1558823585510254)
(X_149  0.05980392172932625)
(X_150  0.05980392172932625)
(X_151  0.15980392694473267)
(X_152  0.15980392694473267)
(X_153  0.15980392694473267)
(X_154  0.1558823585510254)
(X_155  0.1558823585510254)
(X_156  0.14803922176361084)
(X_157  0.15196079015731812)
(X_158  0.1558823585510254)
(X_159  0.05980392172932625)
(X_160  0.1558823585510254)
(X_161  0.14803922176361084)
(X_162  0.1401960849761963)
(X_163  0.13235294818878174)
(X_164  0.15980392694473267)
(X_165  0.16372549533843994)
(X_166  0.16372549533843994)
(X_167  0.15980392694473267)
(X_168  0.07549020648002625)
(X_169  0.07156863063573837)
(X_170  0.06372549384832382)
(X_171  0.05980392172932625)
(X_172  0.05588235333561897)
(X_173  0.15980392694473267)
(X_174  0.16372549533843994)
(X_175  0.16372549533843994)
(X_176  0.15196079015731812)
(X_177  0.05588235333561897)
(X_178  0.05588235333561897)
(X_179  0.15980392694473267)
(X_180  0.15980392694473267)
(X_181  0.1558823585510254)
(X_182  0.15196079015731812)
(X_183  0.15196079015731812)
(X_184  0.06372549384832382)
(X_185  0.05980392172932625)
(X_186  0.05588235333561897)
(X_187  0.0519607849419117)
(X_188  0.0519607849419117)
(X_189  0.05588235333561897)
(X_190  0.15980392694473267)
(X_191  0.16372549533843994)
(X_192  0.1558823585510254)
(X_193  0.16764706373214722)
(X_194  0.17941176891326904)
(X_195  0.17549020051956177)
(X_196  0.22254902124404907)
(X_197  0.21470588445663452)
(X_198  0.19901961088180542)
(X_199  0.17941176891326904)
(X_200  0.06372549384832382)
(X_201  0.05588235333561897)
(X_202  0.04803921654820442)
(X_203  0.04803921654820442)
(X_204  0.04411764815449715)
(X_205  0.04411764815449715)
(X_206  0.04803921654820442)
(X_207  0.04803921654820442)
(X_208  0.04803921654820442)
(X_209  0.04803921654820442)
(X_210  0.04411764815449715)
(X_211  0.04411764815449715)
(X_212  0.16764706373214722)
(X_213  0.16372549533843994)
(X_214  0.16372549533843994)
(X_215  0.17549020051956177)
(X_216  0.2029411792755127)
(X_217  0.13823530077934265)
(X_218  0.17352941632270813)
(X_219  0.1931372582912445)
(X_220  0.33235296607017517)
(X_221  0.3598039448261261)
(X_222  0.2911764681339264)
(X_223  0.31470587849617004)
(X_224  0.3343137204647064)
(X_225  0.3186274468898773)
(X_226  0.3029411733150482)
(X_227  0.3950980603694916)
(X_228  0.27941176295280457)
(X_229  0.24411766231060028)
(X_230  0.18921568989753723)
(X_231  0.15000000596046448)
(X_232  0.1872549057006836)
(X_233  0.16764706373214722)
(X_234  0.16372549533843994)
(X_235  0.17941176891326904)
(X_236  0.1715686321258545)
(X_237  0.14803922176361084)
(X_238  0.1401960849761963)
(X_239  0.15196079015731812)
(X_240  0.12647059559822083)
(X_241  0.2656862735748291)
(X_242  0.2245098203420639)
(X_243  0.27941176295280457)
(X_244  0.31078431010246277)
(X_245  0.3225490152835846)
(X_246  0.32647058367729187)
(X_247  0.32647058367729187)
(X_248  0.3343137204647064)
(X_249  0.33039215207099915)
(X_250  0.3225490152835846)
(X_251  0.41862747073173523)
(X_252  0.38333335518836975)
(X_253  0.38333335518836975)
(X_254  0.3911764919757843)
(X_255  0.41470590233802795)
(X_256  0.43431374430656433)
(X_257  0.4382353127002716)
(X_258  0.41862747073173523)
(X_259  0.29901960492134094)
(X_260  0.29901960492134094)
(X_261  0.344117671251297)
(X_262  0.2813725471496582)
(X_263  0.2539215683937073)
(X_264  0.24607843160629272)
(X_265  0.2617647051811218)
(X_266  0.21274511516094208)
(X_267  0.26372548937797546)
(X_268  0.24803923070430756)
(X_269  0.26764705777168274)
(X_270  0.2872548997402191)
(X_271  0.29901960492134094)
(X_272  0.29509803652763367)
(X_273  0.28333333134651184)
(X_274  0.2754901945590973)
(X_275  0.27156862616539)
(X_276  0.27156862616539)
(X_277  0.26764705777168274)
(X_278  0.3598039448261261)
(X_279  0.35196080803871155)
(X_280  0.19705882668495178)
(X_281  0.1931372582912445)
(X_282  0.19705882668495178)
(X_283  0.21274511516094208)
(X_284  0.23235295712947845)
(X_285  0.3401961028575897)
(X_286  0.33235296607017517)
(X_287  0.22058825194835663)
(X_288  0.24411766231060028)
(X_289  0.3088235557079315)
(X_290  0.2696078419685364)
(X_291  0.25)
(X_292  0.24215686321258545)
(X_293  0.1460784375667572)
(X_294  0.16960784792900085)
(X_295  0.19705882668495178)
(X_296  0.29313725233078003)
(X_297  0.30098041892051697)
(X_298  0.30490198731422424)
(X_299  0.30490198731422424)
(X_300  0.20098040997982025)
(X_301  0.20098040997982025)
(X_302  0.2088235467672348)
(X_303  0.21274511516094208)
(X_304  0.16960784792900085)
(X_305  0.17352941632270813)
(X_306  0.18137255311012268)
(X_307  0.18921568989753723)
(X_308  0.2872548997402191)
(X_309  0.2754901945590973)
(X_310  0.2558823525905609)
(X_311  0.24411766231060028)
(X_312  0.240196093916893)
(X_313  0.22843138873577118)
(X_314  0.21274511516094208)
(X_315  0.20098040997982025)
(X_316  0.19705882668495178)
(X_317  0.20098040997982025)
(X_318  0.2088235467672348)
(X_319  0.21274511516094208)
(X_320  0.30098041892051697)
(X_321  0.2813725471496582)
(X_322  0.2617647051811218)
(X_323  0.25)
(X_324  0.18137255311012268)
(X_325  0.29313725233078003)
(X_326  0.3088235557079315)
(X_327  0.3245098292827606)
(X_328  0.23627452552318573)
(X_329  0.25196078419685364)
(X_330  0.2754901945590973)
(X_331  0.2911764681339264)
(X_332  0.41470590233802795)
(X_333  0.4225490391254425)
(X_334  0.43431374430656433)
(X_335  0.34607842564582825)
(X_336  0.6578431725502014)
(X_337  0.6460784673690796)
(X_338  0.5303921699523926)
(X_339  0.6186274886131287)
(X_340  0.6107843518257141)
(X_341  0.6068627834320068)
(X_342  0.5029411911964417)
(X_343  0.4990196228027344)
(X_344  0.595098078250885)
(X_345  0.5911765098571777)
(X_346  0.5833333730697632)
(X_347  0.5676470994949341)
(X_348  0.5598039627075195)
(X_349  0.5598039627075195)
(X_350  0.5558823943138123)
(X_351  0.45196080207824707)
(X_352  0.44019606709480286)
(X_353  0.45196080207824707)
(X_354  0.4637255072593689)
(X_355  0.46764707565307617)
(X_356  0.46764707565307617)
(X_357  0.47156864404678345)
(X_358  0.4754902124404907)
(X_359  0.5833333730697632)
(X_360  0.5754902362823486)
(X_361  0.5754902362823486)
(X_362  0.5794118046760559)
(X_363  0.5754902362823486)
(X_364  0.4049019515514374)
(X_365  0.4049019515514374)
(X_366  0.4009803831577301)
(X_367  0.4009803831577301)
(X_368  0.5049019455909729)
(X_369  0.5127450823783875)
(X_370  0.520588219165802)
(X_371  0.5245097875595093)
(X_372  0.4323529303073883)
(X_373  0.44019606709480286)
(X_374  0.4362744987010956)
(X_375  0.4205882251262665)
(X_376  0.5127450823783875)
(X_377  0.5166666507720947)
(X_378  0.5127450823783875)
(X_379  0.5009803771972656)
(X_380  0.4735294282436371)
(X_381  0.3813725411891937)
(X_382  0.385294109582901)
(X_383  0.37745097279548645)
(X_384  0.36176469922065735)
(X_385  0.34607842564582825)
(X_386  0.3382352888584137)
(X_387  0.3382352888584137)
(X_388  0.46568629145622253)
(X_389  0.46568629145622253)
(X_390  0.46176472306251526)
(X_391  0.457843154668808)
(X_392  0.22843138873577118)
(X_393  0.22843138873577118)
(X_394  0.33627453446388245)
(X_395  0.3401961028575897)
(X_396  0.344117671251297)
(X_397  0.3558823764324188)
(X_398  0.36764708161354065)
(X_399  0.3754902184009552)
(X_400  0.3794117867946625)
(X_401  0.4107843339443207)
(X_402  0.43039217591285706)
(X_403  0.43039217591285706)
(X_404  0.32647058367729187)
(X_405  0.3225490152835846)
(X_406  0.3950980603694916)
(X_407  0.3598039448261261)
(X_408  0.26372548937797546)
(X_409  0.26764705777168274)
(X_410  0.26764705777168274)
(X_411  0.26372548937797546)
(X_412  0.25196078419685364)
(X_413  0.344117671251297)
(X_414  0.344117671251297)
(X_415  0.3480392396450043)
(X_416  0.23235295712947845)
(X_417  0.22843138873577118)
(X_418  0.3284313976764679)
(X_419  0.3284313976764679)
(X_420  0.11078432202339172)
(X_421  0.11862745881080627)
(X_422  0.23039215803146362)
(X_423  0.24215686321258545)
(X_424  0.2539215683937073)
(X_425  0.2696078419685364)
(X_426  0.18529412150382996)
(X_427  0.19705882668495178)
(X_428  0.19705882668495178)
(X_429  0.32058826088905334)
(X_430  0.3245098292827606)
(X_431  0.3127451241016388)
(X_432  0.3088235557079315)
(X_433  0.32058826088905334)
(X_434  0.3127451241016388)
(X_435  0.18921568989753723)
(X_436  0.18529412150382996)
(X_437  0.18529412150382996)
(X_438  0.18137255311012268)
(X_439  0.17352941632270813)
(X_440  0.16568627953529358)
(X_441  0.16568627953529358)
(X_442  0.17352941632270813)
(X_443  0.18529412150382996)
(X_444  0.2970588207244873)
(X_445  0.28921568393707275)
(X_446  0.2813725471496582)
(X_447  0.2696078419685364)
(X_448  0.07941177487373352)
(X_449  0.17549020051956177)
(X_450  0.17549020051956177)
(X_451  0.17941176891326904)
(X_452  0.19117647409439087)
(X_453  0.2029411792755127)
(X_454  0.11862745881080627)
(X_455  0.1303921639919281)
(X_456  0.15392157435417175)
(X_457  0.15392157435417175)
(X_458  0.25784313678741455)
(X_459  0.25784313678741455)
(X_460  0.25784313678741455)
(X_461  0.25784313678741455)
(X_462  0.2539215683937073)
(X_463  0.2539215683937073)
(X_464  0.20686274766921997)
(X_465  0.21078431606292725)
(X_466  0.11078432202339172)
(X_467  0.114705890417099)
(X_468  0.114705890417099)
(X_469  0.11078432202339172)
(X_470  0.11078432202339172)
(X_471  0.10686275362968445)
(X_472  0.13431373238563538)
(X_473  0.13431373238563538)
(X_474  0.13431373238563538)
(X_475  0.2343137264251709)
(X_476  0.05980392172932625)
(X_477  0.05588235333561897)
(X_478  0.05588235333561897)
(X_479  0.05588235333561897)
(X_480  0.06372549384832382)
(X_481  0.07941177487373352)
(X_482  0.09117648005485535)
(X_483  0.0990196168422699)
(X_484  0.0990196168422699)
(X_485  0.10294118523597717)
(X_486  0.10294118523597717)
(X_487  0.20686274766921997)
(X_488  0.20686274766921997)
(X_489  0.2029411792755127)
(X_490  0.2029411792755127)
(X_491  0.19901961088180542)
(X_492  0.1872549057006836)
(X_493  0.19117647409439087)
(X_494  0.09117648005485535)
(X_495  0.09509804844856262)
(X_496  0.19509804248809814)
(X_497  0.19117647409439087)
(X_498  0.19117647409439087)
(X_499  0.08725491166114807)
(X_500  0.0833333432674408)
(X_501  0.0833333432674408)
(X_502  0.0833333432674408)
(X_503  0.17941176891326904)
(X_504  0.04411764815449715)
(X_505  0.14411765336990356)
(X_506  0.1401960849761963)
(X_507  0.1401960849761963)
(X_508  0.14411765336990356)
(X_509  0.0519607849419117)
(X_510  0.06372549384832382)
(X_511  0.0676470622420311)
(X_512  0.16764706373214722)
(X_513  0.0676470622420311)
(X_514  0.07156863063573837)
(X_515  0.17549020051956177)
(X_516  0.17549020051956177)
(X_517  0.1715686321258545)
(X_518  0.16764706373214722)
(X_519  0.16764706373214722)
(X_520  0.15980392694473267)
(X_521  0.16372549533843994)
(X_522  0.16372549533843994)
(X_523  0.0676470622420311)
(X_524  0.16764706373214722)
(X_525  0.06372549384832382)
(X_526  0.06372549384832382)
(X_527  0.05980392172932625)
(X_528  0.05980392172932625)
(X_529  0.05588235333561897)
(X_530  0.05588235333561897)
(X_531  0.0519607849419117)
(X_532  0.04411764815449715)
(X_533  0.04019607976078987)
(X_534  0.04019607976078987)
(X_535  0.036274511367082596)
(X_536  0.04019607976078987)
(X_537  0.04411764815449715)
(X_538  0.04803921654820442)
(X_539  0.0519607849419117)
(X_540  0.15196079015731812)
(X_541  0.0519607849419117)
(X_542  0.05588235333561897)
(X_543  0.15980392694473267)
(X_544  0.15980392694473267)
(X_545  0.05588235333561897)
(X_546  0.0519607849419117)
(X_547  0.15196079015731812)
(X_548  0.036274511367082596)
(X_549  0.1401960849761963)
(X_550  0.04019607976078987)
(X_551  0.04411764815449715)
(X_552  0.04411764815449715)
(X_553  0.04019607976078987)
(X_554  0.04019607976078987)
(X_555  0.036274511367082596)
(X_556  0.15196079015731812)
(X_557  0.15196079015731812)
(X_558  0.04803921654820442)
(X_559  0.04411764815449715)
(X_560  0.036274511367082596)
(X_561  0.036274511367082596)
(X_562  0.036274511367082596)
(X_563  0.03235294297337532)
(X_564  0.03235294297337532)
(X_565  0.036274511367082596)
(X_566  0.036274511367082596)
(X_567  0.036274511367082596)
(X_568  0.12450980395078659)
(X_569  0.028431374579668045)
(X_570  0.028431374579668045)
(X_571  0.03235294297337532)
(X_572  0.03235294297337532)
(X_573  0.028431374579668045)
(X_574  0.028431374579668045)
(X_575  0.02450980618596077)
(X_576  0.02450980618596077)
(X_577  0.12843137979507446)
(X_578  0.028431374579668045)
(X_579  0.03235294297337532)
(X_580  0.03235294297337532)
(X_581  0.028431374579668045)
(X_582  0.028431374579668045)
(X_583  0.02450980618596077)
(X_584  0.036274511367082596)
(X_585  0.136274516582489)
(X_586  0.03235294297337532)
(X_587  0.12843137979507446)
(X_588  0.12450980395078659)
(X_589  0.12450980395078659)
(X_590  0.12450980395078659)
(X_591  0.02450980618596077)
(X_592  0.020588237792253494)
(X_593  0.020588237792253494)
(X_594  0.020588237792253494)
(X_595  0.020588237792253494)
(X_596  0.01666666939854622)
(X_597  0.020588237792253494)
(X_598  0.02450980618596077)
(X_599  0.12450980395078659)
(X_600  0.12450980395078659)
(X_601  0.12450980395078659)
(X_602  0.12058823555707932)
(X_603  0.11666666716337204)
(X_604  0.11666666716337204)
(X_605  0.020588237792253494)
(X_606  0.02450980618596077)
(X_607  0.02450980618596077)
(X_608  0.12450980395078659)
(X_609  0.02450980618596077)
(X_610  0.020588237792253494)
(X_611  0.01666666939854622)
(X_612  0.028431374579668045)
(X_613  0.12450980395078659)
(X_614  0.12450980395078659)
(X_615  0.12450980395078659)
(X_616  0.012745101936161518)
(X_617  0.11666666716337204)
(X_618  0.11666666716337204)
(X_619  0.11666666716337204)
(X_620  0.12058823555707932)
(X_621  0.01666666939854622)
(X_622  0.01666666939854622)
(X_623  0.01666666939854622)
(X_624  0.12450980395078659)
(X_625  0.12450980395078659)
(X_626  0.12843137979507446)
(X_627  0.12843137979507446)
(X_628  0.12843137979507446)
(X_629  0.12843137979507446)
(X_630  0.12450980395078659)
(X_631  0.12450980395078659)
(X_632  0.11274509876966476)
(X_633  0.11666666716337204)
(X_634  0.11666666716337204)
(X_635  0.12058823555707932)
(X_636  0.12058823555707932)
(X_637  0.01666666939854622)
(X_638  0.11666666716337204)
(X_639  0.11274509876966476)
(X_640  0.12058823555707932)
(X_641  0.12058823555707932)
(X_642  0.020588237792253494)
(X_643  0.12450980395078659)
(X_644  0.11666666716337204)
(X_645  0.11666666716337204)
(X_646  0.020588237792253494)
(X_647  0.02450980618596077)
(X_648  0.02450980618596077)
(X_649  0.02450980618596077)
(X_650  0.12058823555707932)
(X_651  0.020588237792253494)
(X_652  0.012745101936161518)
(X_653  0.01666666939854622)
(X_654  0.01666666939854622)
(X_655  0.020588237792253494)
(X_656  0.12058823555707932)
(X_657  0.11666666716337204)
(X_658  0.11666666716337204)
(X_659  0.11274509876966476)
(X_660  0.10882353037595749)
(X_661  0.11274509876966476)
(X_662  0.012745101936161518)
(X_663  0.01666666939854622)
(X_664  0.01666666939854622)
(X_665  0.012745101936161518)
(X_666  0.012745101936161518)
(X_667  0.008823529817163944)
(X_668  0.0009803927969187498)
(X_669  0.0009803927969187498)
(X_670  0.004901961423456669)
(X_671  0.10882353037595749)
(X_672  0.008823529817163944)
(X_673  0.10882353037595749)
(X_674  0.10882353037595749)
(X_675  0.10882353037595749)
(X_676  0.10882353037595749)
(X_677  0.10882353037595749)
(X_678  0.10882353037595749)
(X_679  0.10882353037595749)
(X_680  0.11274509876966476)
(X_681  0.11666666716337204)
(X_682  0.11666666716337204)
(X_683  0.012745101936161518)
(X_684  0.008823529817163944)
(X_685  0.008823529817163944)
(X_686  0.11274509876966476)
(X_687  0.12058823555707932)
(X_688  0.10098039358854294)
(X_689  0.10098039358854294)
(X_690  0.10098039358854294)
(X_691  0.10098039358854294)
(X_692  0.10098039358854294)
(X_693  0.10098039358854294)
(X_694  0.10098039358854294)
(X_695  0.10098039358854294)
(X_696  0.10882353037595749)
(X_697  0.008823529817163944)
(X_698  0.008823529817163944)
(X_699  0.008823529817163944)
(X_700  0.10882353037595749)
(X_701  0.10882353037595749)
(X_702  0.10882353037595749)
(X_703  0.10882353037595749)
(X_704  0.10882353037595749)
(X_705  0.10882353037595749)
(X_706  0.008823529817163944)
(X_707  0.008823529817163944)
(X_708  0.012745101936161518)
(X_709  0.012745101936161518)
(X_710  0.012745101936161518)
(X_711  0.008823529817163944)
(X_712  0.004901961423456669)
(X_713  0.004901961423456669)
(X_714  0.008823529817163944)
(X_715  0.11666666716337204)
(X_716  0.0009803927969187498)
(X_717  0.0009803927969187498)
(X_718  0.0009803927969187498)
(X_719  0.0009803927969187498)
(X_720  0.0009803927969187498)
(X_721  0.0009803927969187498)
(X_722  0.0009803927969187498)
(X_723  0.0009803927969187498)
(X_724  0.004901961423456669)
(X_725  0.004901961423456669)
(X_726  0.004901961423456669)
(X_727  0.004901961423456669)
(X_728  0.10882353037595749)
(X_729  0.10882353037595749)
(X_730  0.10882353037595749)
(X_731  0.10882353037595749)
(X_732  0.10882353037595749)
(X_733  0.10882353037595749)
(X_734  0.10882353037595749)
(X_735  0.10882353037595749)
(X_736  0.008823529817163944)
(X_737  0.004901961423456669)
(X_738  0.0009803927969187498)
(X_739  0.0009803927969187498)
(X_740  0.0009803927969187498)
(X_741  0.0009803927969187498)
(X_742  0.004901961423456669)
(X_743  0.004901961423456669)
(X_744  0.0009803927969187498)
(X_745  0.0009803927969187498)
(X_746  0.0009803927969187498)
(X_747  0.0009803927969187498)
(X_748  0.0009803927969187498)
(X_749  0.10098039358854294)
(X_750  0.10098039358854294)
(X_751  0.10098039358854294)
(X_752  0.10098039358854294)
(X_753  0.10098039358854294)
(X_754  0.10098039358854294)
(X_755  0.10098039358854294)
(X_756  0.004901961423456669)
(X_757  0.004901961423456669)
(X_758  0.004901961423456669)
(X_759  0.004901961423456669)
(X_760  0.10490196198225021)
(X_761  0.10490196198225021)
(X_762  0.10490196198225021)
(X_763  0.10490196198225021)
(X_764  0.10490196198225021)
(X_765  0.09705882519483566)
(X_766  0.09313725680112839)
(X_767  0.09313725680112839)
(X_768  0.09705882519483566)
(X_769  0.10098039358854294)
(X_770  0.10098039358854294)
(X_771  0.09705882519483566)
(X_772  0.10098039358854294)
(X_773  0.0009803927969187498)
(X_774  0.0009803927969187498)
(X_775  0.0009803927969187498)
(X_776  0.0009803927969187498)
(X_777  0.0009803927969187498)
(X_778  0.10098039358854294)
(X_779  0.10098039358854294)
(X_780  0.09705882519483566)
(X_781  -0.0029411755967885256)
(X_782  -0.0029411755967885256)
(X_783  0.09705882519483566)
(Y_0 36.04041290283203)
(Y_1 -12.009523391723633)
(Y_2 18.854280471801758)
(Y_3 -44.189659118652344))