((X_0  0.8676470518112183)
(X_1  0.8598039150238037)
(X_2  0.8441176414489746)
(X_3  0.8245097994804382)
(X_4  0.8049019575119019)
(X_5  0.7892156839370728)
(X_6  0.8774510025978088)
(X_7  0.8696078658103943)
(X_8  0.8303921818733215)
(X_9  0.8186274766921997)
(X_10  0.8029412031173706)
(X_11  0.779411792755127)
(X_12  0.751960813999176)
(X_13  0.6284313797950745)
(X_14  0.6127451062202454)
(X_15  0.6009804010391235)
(X_16  0.5578431487083435)
(X_17  0.5460784435272217)
(X_18  0.5186274647712708)
(X_19  0.48725491762161255)
(X_20  0.45196080207824707)
(X_21  0.4205882251262665)
(X_22  0.49313727021217346)
(X_23  0.48137256503105164)
(X_24  0.31078431010246277)
(X_25  0.3029411733150482)
(X_26  0.2872548997402191)
(X_27  0.27156862616539)
(X_28  0.3088235557079315)
(X_29  0.20490197837352753)
(X_30  0.1931372582912445)
(X_31  0.2774509787559509)
(X_32  0.16568627953529358)
(X_33  0.15392157435417175)
(X_34  0.1460784375667572)
(X_35  0.14215686917304993)
(X_36  0.09509804844856262)
(X_37  0.19117647409439087)
(X_38  0.1872549057006836)
(X_39  0.17941176891326904)
(X_40  0.1715686321258545)
(X_41  0.16372549533843994)
(X_42  0.15980392694473267)
(X_43  0.1558823585510254)
(X_44  0.12450980395078659)
(X_45  0.12450980395078659)
(X_46  0.020588237792253494)
(X_47  0.12058823555707932)
(X_48  0.11666666716337204)
(X_49  0.11274509876966476)
(X_50  0.10882353037595749)
(X_51  0.10882353037595749)
(X_52  0.13235294818878174)
(X_53  0.028431374579668045)
(X_54  0.020588237792253494)
(X_55  0.01666666939854622)
(X_56  0.028431374579668045)
(X_57  0.028431374579668045)
(X_58  0.02450980618596077)
(X_59  0.11666666716337204)
(X_60  0.11274509876966476)
(X_61  0.008823529817163944)
(X_62  0.004901961423456669)
(X_63  0.0009803927969187498)
(X_64  0.04019607976078987)
(X_65  0.1401960849761963)
(X_66  0.13235294818878174)
(X_67  0.12843137979507446)
(X_68  0.12058823555707932)
(X_69  0.11666666716337204)
(X_70  0.11274509876966476)
(X_71  0.10882353037595749)
(X_72  0.02450980618596077)
(X_73  0.02450980618596077)
(X_74  0.028431374579668045)
(X_75  0.03235294297337532)
(X_76  0.036274511367082596)
(X_77  0.1401960849761963)
(X_78  0.14411765336990356)
(X_79  0.14803922176361084)
(X_80  0.12058823555707932)
(X_81  0.12058823555707932)
(X_82  0.12450980395078659)
(X_83  0.12450980395078659)
(X_84  0.04411764815449715)
(X_85  0.04411764815449715)
(X_86  0.04803921654820442)
(X_87  0.04803921654820442)
(X_88  0.14803922176361084)
(X_89  0.14803922176361084)
(X_90  0.14411765336990356)
(X_91  0.14411765336990356)
(X_92  0.136274516582489)
(X_93  0.136274516582489)
(X_94  0.13235294818878174)
(X_95  0.12843137979507446)
(X_96  0.12450980395078659)
(X_97  0.12058823555707932)
(X_98  0.01666666939854622)
(X_99  0.01666666939854622)
(X_100  0.028431374579668045)
(X_101  0.028431374579668045)
(X_102  0.12450980395078659)
(X_103  0.12450980395078659)
(X_104  0.12058823555707932)
(X_105  0.12058823555707932)
(X_106  0.11666666716337204)
(X_107  0.11666666716337204)
(X_108  0.012745101936161518)
(X_109  0.012745101936161518)
(X_110  0.012745101936161518)
(X_111  0.012745101936161518)
(X_112  0.12058823555707932)
(X_113  0.12450980395078659)
(X_114  0.12843137979507446)
(X_115  0.13235294818878174)
(X_116  0.13235294818878174)
(X_117  0.12843137979507446)
(X_118  0.12450980395078659)
(X_119  0.12450980395078659)
(X_120  0.012745101936161518)
(X_121  0.01666666939854622)
(X_122  0.020588237792253494)
(X_123  0.02450980618596077)
(X_124  0.13235294818878174)
(X_125  0.136274516582489)
(X_126  0.04411764815449715)
(X_127  0.04411764815449715)
(X_128  0.020588237792253494)
(X_129  0.12058823555707932)
(X_130  0.12450980395078659)
(X_131  0.12450980395078659)
(X_132  0.12843137979507446)
(X_133  0.03235294297337532)
(X_134  0.03235294297337532)
(X_135  0.036274511367082596)
(X_136  0.13235294818878174)
(X_137  0.13235294818878174)
(X_138  0.13235294818878174)
(X_139  0.03235294297337532)
(X_140  0.1401960849761963)
(X_141  0.04411764815449715)
(X_142  0.04411764815449715)
(X_143  0.04411764815449715)
(X_144  0.036274511367082596)
(X_145  0.028431374579668045)
(X_146  0.01666666939854622)
(X_147  0.012745101936161518)
(X_148  0.13235294818878174)
(X_149  0.13235294818878174)
(X_150  0.12843137979507446)
(X_151  0.12058823555707932)
(X_152  0.11666666716337204)
(X_153  0.10882353037595749)
(X_154  0.10490196198225021)
(X_155  0.10490196198225021)
(X_156  0.004901961423456669)
(X_157  0.10490196198225021)
(X_158  0.004901961423456669)
(X_159  0.008823529817163944)
(X_160  0.11274509876966476)
(X_161  0.11274509876966476)
(X_162  0.11666666716337204)
(X_163  0.11666666716337204)
(X_164  0.10490196198225021)
(X_165  0.10490196198225021)
(X_166  0.11274509876966476)
(X_167  0.11666666716337204)
(X_168  0.240196093916893)
(X_169  0.240196093916893)
(X_170  0.23627452552318573)
(X_171  0.22843138873577118)
(X_172  0.21274511516094208)
(X_173  0.19705882668495178)
(X_174  0.2813725471496582)
(X_175  0.2696078419685364)
(X_176  0.1303921639919281)
(X_177  0.11862745881080627)
(X_178  0.10294118523597717)
(X_179  0.17941176891326904)
(X_180  0.15196079015731812)
(X_181  0.12843137979507446)
(X_182  0.11274509876966476)
(X_183  0.10098039358854294)
(X_184  0.03235294297337532)
(X_185  0.03235294297337532)
(X_186  0.03235294297337532)
(X_187  0.036274511367082596)
(X_188  0.036274511367082596)
(X_189  0.04019607976078987)
(X_190  0.1401960849761963)
(X_191  0.1401960849761963)
(X_192  0.2029411792755127)
(X_193  0.21078431606292725)
(X_194  0.2186274528503418)
(X_195  0.22647058963775635)
(X_196  0.3911764919757843)
(X_197  0.387254923582077)
(X_198  0.38333335518836975)
(X_199  0.3715686500072479)
(X_200  0.25196078419685364)
(X_201  0.22843138873577118)
(X_202  0.20490197837352753)
(X_203  0.1931372582912445)
(X_204  0.2245098203420639)
(X_205  0.21666668355464935)
(X_206  0.20098040997982025)
(X_207  0.1774509847164154)
(X_208  0.15784314274787903)
(X_209  0.23823529481887817)
(X_210  0.22254902124404907)
(X_211  0.21078431606292725)
(X_212  0.2029411792755127)
(X_213  0.21078431606292725)
(X_214  0.22254902124404907)
(X_215  0.2343137264251709)
(X_216  0.2539215683937073)
(X_217  0.16568627953529358)
(X_218  0.1774509847164154)
(X_219  0.18529412150382996)
(X_220  0.2813725471496582)
(X_221  0.2852941155433655)
(X_222  0.1931372582912445)
(X_223  0.19705882668495178)
(X_224  0.344117671251297)
(X_225  0.24803923070430756)
(X_226  0.24803923070430756)
(X_227  0.344117671251297)
(X_228  0.23627452552318573)
(X_229  0.2245098203420639)
(X_230  0.21274511516094208)
(X_231  0.20490197837352753)
(X_232  0.3088235557079315)
(X_233  0.30490198731422424)
(X_234  0.30098041892051697)
(X_235  0.28921568393707275)
(X_236  0.2813725471496582)
(X_237  0.2696078419685364)
(X_238  0.25784313678741455)
(X_239  0.2539215683937073)
(X_240  0.1617647111415863)
(X_241  0.16960784792900085)
(X_242  0.1774509847164154)
(X_243  0.18529412150382996)
(X_244  0.1931372582912445)
(X_245  0.1931372582912445)
(X_246  0.1931372582912445)
(X_247  0.28921568393707275)
(X_248  0.2813725471496582)
(X_249  0.18137255311012268)
(X_250  0.18137255311012268)
(X_251  0.2774509787559509)
(X_252  0.30490198731422424)
(X_253  0.30490198731422424)
(X_254  0.20098040997982025)
(X_255  0.2970588207244873)
(X_256  0.28921568393707275)
(X_257  0.2813725471496582)
(X_258  0.27352941036224365)
(X_259  0.2696078419685364)
(X_260  0.25)
(X_261  0.2539215683937073)
(X_262  0.2539215683937073)
(X_263  0.25784313678741455)
(X_264  0.2539215683937073)
(X_265  0.24607843160629272)
(X_266  0.24215686321258545)
(X_267  0.2343137264251709)
(X_268  0.11078432202339172)
(X_269  0.11862745881080627)
(X_270  0.12647059559822083)
(X_271  0.13823530077934265)
(X_272  0.1460784375667572)
(X_273  0.15000000596046448)
(X_274  0.15000000596046448)
(X_275  0.15000000596046448)
(X_276  0.18137255311012268)
(X_277  0.1774509847164154)
(X_278  0.2774509787559509)
(X_279  0.2774509787559509)
(X_280  0.240196093916893)
(X_281  0.23627452552318573)
(X_282  0.22843138873577118)
(X_283  0.22058825194835663)
(X_284  0.21666668355464935)
(X_285  0.3127451241016388)
(X_286  0.2088235467672348)
(X_287  0.2088235467672348)
(X_288  0.28921568393707275)
(X_289  0.28921568393707275)
(X_290  0.28921568393707275)
(X_291  0.2852941155433655)
(X_292  0.27352941036224365)
(X_293  0.25784313678741455)
(X_294  0.13823530077934265)
(X_295  0.1303921639919281)
(X_296  0.2656862735748291)
(X_297  0.27352941036224365)
(X_298  0.18529412150382996)
(X_299  0.19705882668495178)
(X_300  0.2088235467672348)
(X_301  0.21274511516094208)
(X_302  0.21274511516094208)
(X_303  0.3127451241016388)
(X_304  0.28921568393707275)
(X_305  0.18529412150382996)
(X_306  0.18529412150382996)
(X_307  0.18529412150382996)
(X_308  0.48725491762161255)
(X_309  0.4833333492279053)
(X_310  0.4754902124404907)
(X_311  0.46764707565307617)
(X_312  0.4637255072593689)
(X_313  0.4637255072593689)
(X_314  0.4637255072593689)
(X_315  0.46764707565307617)
(X_316  0.5480391979217529)
(X_317  0.5480391979217529)
(X_318  0.45196080207824707)
(X_319  0.44411763548851013)
(X_320  0.4323529303073883)
(X_321  0.5166666507720947)
(X_322  0.49705883860588074)
(X_323  0.4852941334247589)
(X_324  0.3892156779766083)
(X_325  0.49705883860588074)
(X_326  0.4049019515514374)
(X_327  0.41274508833885193)
(X_328  0.4166666567325592)
(X_329  0.4205882251262665)
(X_330  0.4166666567325592)
(X_331  0.4166666567325592)
(X_332  0.5166666507720947)
(X_333  0.5166666507720947)
(X_334  0.5127450823783875)
(X_335  0.5127450823783875)
(X_336  0.23235295712947845)
(X_337  0.3284313976764679)
(X_338  0.22058825194835663)
(X_339  0.21666668355464935)
(X_340  0.3127451241016388)
(X_341  0.31666669249534607)
(X_342  0.32058826088905334)
(X_343  0.22058825194835663)
(X_344  0.30098041892051697)
(X_345  0.3088235557079315)
(X_346  0.32058826088905334)
(X_347  0.33235296607017517)
(X_348  0.33627453446388245)
(X_349  0.33627453446388245)
(X_350  0.33627453446388245)
(X_351  0.23235295712947845)
(X_352  0.24803923070430756)
(X_353  0.35196080803871155)
(X_354  0.3558823764324188)
(X_355  0.2598039209842682)
(X_356  0.2558823525905609)
(X_357  0.25196078419685364)
(X_358  0.24803923070430756)
(X_359  0.3401961028575897)
(X_360  0.32058826088905334)
(X_361  0.31666669249534607)
(X_362  0.31666669249534607)
(X_363  0.31666669249534607)
(X_364  0.12647059559822083)
(X_365  0.12254902720451355)
(X_366  0.12254902720451355)
(X_367  0.2186274528503418)
(X_368  0.2186274528503418)
(X_369  0.2186274528503418)
(X_370  0.22254902124404907)
(X_371  0.22254902124404907)
(X_372  0.1303921639919281)
(X_373  0.13431373238563538)
(X_374  0.14215686917304993)
(X_375  0.24607843160629272)
(X_376  0.2539215683937073)
(X_377  0.25784313678741455)
(X_378  0.25784313678741455)
(X_379  0.15784314274787903)
(X_380  0.13431373238563538)
(X_381  0.23823529481887817)
(X_382  0.23823529481887817)
(X_383  0.23823529481887817)
(X_384  0.23039215803146362)
(X_385  0.22254902124404907)
(X_386  0.114705890417099)
(X_387  0.10686275362968445)
(X_388  0.25)
(X_389  0.25)
(X_390  0.15000000596046448)
(X_391  0.1460784375667572)
(X_392  0.05588235333561897)
(X_393  0.05980392172932625)
(X_394  0.16372549533843994)
(X_395  0.16372549533843994)
(X_396  0.16372549533843994)
(X_397  0.16372549533843994)
(X_398  0.15980392694473267)
(X_399  0.15980392694473267)
(X_400  0.0833333432674408)
(X_401  0.07549020648002625)
(X_402  0.07156863063573837)
(X_403  0.06372549384832382)
(X_404  0.05980392172932625)
(X_405  0.05980392172932625)
(X_406  0.06372549384832382)
(X_407  0.16372549533843994)
(X_408  0.09509804844856262)
(X_409  0.09509804844856262)
(X_410  0.0990196168422699)
(X_411  0.09509804844856262)
(X_412  0.09117648005485535)
(X_413  0.18333333730697632)
(X_414  0.17549020051956177)
(X_415  0.1715686321258545)
(X_416  0.0676470622420311)
(X_417  0.0676470622420311)
(X_418  0.16372549533843994)
(X_419  0.16372549533843994)
(X_420  0.04803921654820442)
(X_421  0.0519607849419117)
(X_422  0.15980392694473267)
(X_423  0.16372549533843994)
(X_424  0.16372549533843994)
(X_425  0.16372549533843994)
(X_426  0.05588235333561897)
(X_427  0.0519607849419117)
(X_428  0.04803921654820442)
(X_429  0.14411765336990356)
(X_430  0.1401960849761963)
(X_431  0.036274511367082596)
(X_432  0.14411765336990356)
(X_433  0.15196079015731812)
(X_434  0.16372549533843994)
(X_435  0.07156863063573837)
(X_436  0.05588235333561897)
(X_437  0.05980392172932625)
(X_438  0.06372549384832382)
(X_439  0.06372549384832382)
(X_440  0.06372549384832382)
(X_441  0.05588235333561897)
(X_442  0.04803921654820442)
(X_443  0.04411764815449715)
(X_444  0.15196079015731812)
(X_445  0.14803922176361084)
(X_446  0.14803922176361084)
(X_447  0.14803922176361084)
(X_448  0.028431374579668045)
(X_449  0.13235294818878174)
(X_450  0.136274516582489)
(X_451  0.1401960849761963)
(X_452  0.1401960849761963)
(X_453  0.136274516582489)
(X_454  0.13235294818878174)
(X_455  0.028431374579668045)
(X_456  0.03235294297337532)
(X_457  0.03235294297337532)
(X_458  0.03235294297337532)
(X_459  0.13235294818878174)
(X_460  0.12843137979507446)
(X_461  0.12843137979507446)
(X_462  0.12450980395078659)
(X_463  0.12450980395078659)
(X_464  0.12843137979507446)
(X_465  0.12843137979507446)
(X_466  0.12843137979507446)
(X_467  0.028431374579668045)
(X_468  0.028431374579668045)
(X_469  0.028431374579668045)
(X_470  0.028431374579668045)
(X_471  0.12843137979507446)
(X_472  0.12843137979507446)
(X_473  0.12843137979507446)
(X_474  0.12843137979507446)
(X_475  0.12843137979507446)
(X_476  0.01666666939854622)
(X_477  0.020588237792253494)
(X_478  0.02450980618596077)
(X_479  0.028431374579668045)
(X_480  0.028431374579668045)
(X_481  0.02450980618596077)
(X_482  0.020588237792253494)
(X_483  0.01666666939854622)
(X_484  0.02450980618596077)
(X_485  0.02450980618596077)
(X_486  0.020588237792253494)
(X_487  0.020588237792253494)
(X_488  0.020588237792253494)
(X_489  0.11666666716337204)
(X_490  0.11666666716337204)
(X_491  0.11666666716337204)
(X_492  0.12058823555707932)
(X_493  0.12058823555707932)
(X_494  0.020588237792253494)
(X_495  0.020588237792253494)
(X_496  0.020588237792253494)
(X_497  0.12058823555707932)
(X_498  0.12058823555707932)
(X_499  0.12058823555707932)
(X_500  0.020588237792253494)
(X_501  0.12058823555707932)
(X_502  0.020588237792253494)
(X_503  0.12058823555707932)
(X_504  0.008823529817163944)
(X_505  0.10882353037595749)
(X_506  0.11274509876966476)
(X_507  0.11666666716337204)
(X_508  0.11666666716337204)
(X_509  0.012745101936161518)
(X_510  0.008823529817163944)
(X_511  0.008823529817163944)
(X_512  0.012745101936161518)
(X_513  0.012745101936161518)
(X_514  0.008823529817163944)
(X_515  0.008823529817163944)
(X_516  0.10490196198225021)
(X_517  0.10490196198225021)
(X_518  0.10490196198225021)
(X_519  0.10490196198225021)
(X_520  0.10882353037595749)
(X_521  0.10882353037595749)
(X_522  0.10882353037595749)
(X_523  0.008823529817163944)
(X_524  0.008823529817163944)
(X_525  0.008823529817163944)
(X_526  0.008823529817163944)
(X_527  0.008823529817163944)
(X_528  0.008823529817163944)
(X_529  0.10882353037595749)
(X_530  0.008823529817163944)
(X_531  0.008823529817163944)
(X_532  0.004901961423456669)
(X_533  0.10490196198225021)
(X_534  0.004901961423456669)
(X_535  0.004901961423456669)
(X_536  0.004901961423456669)
(X_537  0.10490196198225021)
(X_538  0.10490196198225021)
(X_539  0.004901961423456669)
(X_540  0.004901961423456669)
(X_541  0.004901961423456669)
(X_542  0.10490196198225021)
(X_543  0.10098039358854294)
(X_544  0.10098039358854294)
(X_545  -0.0029411755967885256)
(X_546  -0.0029411755967885256)
(X_547  0.09705882519483566)
(X_548  0.10098039358854294)
(X_549  0.10098039358854294)
(X_550  0.10098039358854294)
(X_551  0.0009803927969187498)
(X_552  0.0009803927969187498)
(X_553  0.0009803927969187498)
(X_554  0.0009803927969187498)
(X_555  0.0009803927969187498)
(X_556  0.0009803927969187498)
(X_557  0.0009803927969187498)
(X_558  0.0009803927969187498)
(X_559  0.0009803927969187498)
(X_560  0.004901961423456669)
(X_561  0.004901961423456669)
(X_562  0.004901961423456669)
(X_563  0.0009803927969187498)
(X_564  0.0009803927969187498)
(X_565  0.004901961423456669)
(X_566  0.004901961423456669)
(X_567  0.004901961423456669)
(X_568  0.10490196198225021)
(X_569  0.004901961423456669)
(X_570  0.0009803927969187498)
(X_571  0.10098039358854294)
(X_572  0.10098039358854294)
(X_573  -0.0029411755967885256)
(X_574  -0.0029411755967885256)
(X_575  -0.0029411755967885256)
(X_576  0.10098039358854294)
(X_577  0.10098039358854294)
(X_578  0.10098039358854294)
(X_579  0.0009803927969187498)
(X_580  0.0009803927969187498)
(X_581  0.0009803927969187498)
(X_582  0.0009803927969187498)
(X_583  0.0009803927969187498)
(X_584  0.0009803927969187498)
(X_585  0.10098039358854294)
(X_586  0.10098039358854294)
(X_587  0.10098039358854294)
(X_588  0.10490196198225021)
(X_589  0.10490196198225021)
(X_590  0.10098039358854294)
(X_591  0.09705882519483566)
(X_592  0.09705882519483566)
(X_593  0.10098039358854294)
(X_594  0.004901961423456669)
(X_595  0.004901961423456669)
(X_596  0.0009803927969187498)
(X_597  0.0009803927969187498)
(X_598  0.0009803927969187498)
(X_599  0.10098039358854294)
(X_600  0.09705882519483566)
(X_601  0.09705882519483566)
(X_602  0.09313725680112839)
(X_603  0.09313725680112839)
(X_604  0.09705882519483566)
(X_605  0.09705882519483566)
(X_606  -0.0029411755967885256)
(X_607  0.09705882519483566)
(X_608  0.09705882519483566)
(X_609  0.09705882519483566)
(X_610  -0.0029411755967885256)
(X_611  -0.0029411755967885256)
(X_612  0.09705882519483566)
(X_613  0.09705882519483566)
(X_614  -0.0029411755967885256)
(X_615  0.09705882519483566)
(X_616  0.004901961423456669)
(X_617  0.10098039358854294)
(X_618  0.09705882519483566)
(X_619  -0.006862743757665157)
(X_620  -0.006862743757665157)
(X_621  -0.0029411755967885256)
(X_622  0.0009803927969187498)
(X_623  0.004901961423456669)
(X_624  0.09705882519483566)
(X_625  0.09705882519483566)
(X_626  0.09705882519483566)
(X_627  -0.006862743757665157)
(X_628  -0.006862743757665157)
(X_629  -0.006862743757665157)
(X_630  0.08921568840742111)
(X_631  0.08921568840742111)
(X_632  -0.006862743757665157)
(X_633  -0.006862743757665157)
(X_634  0.09313725680112839)
(X_635  0.09313725680112839)
(X_636  0.09313725680112839)
(X_637  -0.006862743757665157)
(X_638  0.09313725680112839)
(X_639  0.09313725680112839)
(X_640  0.09313725680112839)
(X_641  0.09313725680112839)
(X_642  -0.006862743757665157)
(X_643  -0.006862743757665157)
(X_644  0.10098039358854294)
(X_645  0.09705882519483566)
(X_646  0.08921568840742111)
(X_647  -0.014705880545079708)
(X_648  -0.014705880545079708)
(X_649  -0.010784312151372433)
(X_650  -0.0029411755967885256)
(X_651  0.0009803927969187498)
(X_652  -0.006862743757665157)
(X_653  -0.006862743757665157)
(X_654  -0.006862743757665157)
(X_655  -0.010784312151372433)
(X_656  0.08921568840742111)
(X_657  0.08529412001371384)
(X_658  0.08529412001371384)
(X_659  0.08529412001371384)
(X_660  0.08921568840742111)
(X_661  0.08921568840742111)
(X_662  -0.010784312151372433)
(X_663  -0.010784312151372433)
(X_664  -0.010784312151372433)
(X_665  -0.010784312151372433)
(X_666  -0.010784312151372433)
(X_667  -0.010784312151372433)
(X_668  -0.010784312151372433)
(X_669  -0.010784312151372433)
(X_670  -0.010784312151372433)
(X_671  0.08921568840742111)
(X_672  -0.010784312151372433)
(X_673  0.08921568840742111)
(X_674  0.08921568840742111)
(X_675  0.08921568840742111)
(X_676  0.08921568840742111)
(X_677  0.08921568840742111)
(X_678  0.08921568840742111)
(X_679  0.08921568840742111)
(X_680  0.08529412001371384)
(X_681  0.08529412001371384)
(X_682  0.08529412001371384)
(X_683  -0.010784312151372433)
(X_684  -0.010784312151372433)
(X_685  0.09313725680112839)
(X_686  0.09313725680112839)
(X_687  0.09313725680112839)
(X_688  0.09313725680112839)
(X_689  0.09313725680112839)
(X_690  0.09313725680112839)
(X_691  0.09313725680112839)
(X_692  0.09313725680112839)
(X_693  0.09313725680112839)
(X_694  0.09313725680112839)
(X_695  0.09313725680112839)
(X_696  0.09313725680112839)
(X_697  -0.006862743757665157)
(X_698  -0.006862743757665157)
(X_699  -0.010784312151372433)
(X_700  -0.010784312151372433)
(X_701  0.08921568840742111)
(X_702  0.08921568840742111)
(X_703  0.08921568840742111)
(X_704  0.08921568840742111)
(X_705  0.08921568840742111)
(X_706  -0.010784312151372433)
(X_707  0.08921568840742111)
(X_708  -0.014705880545079708)
(X_709  -0.014705880545079708)
(X_710  -0.014705880545079708)
(X_711  -0.010784312151372433)
(X_712  -0.010784312151372433)
(X_713  -0.006862743757665157)
(X_714  0.09313725680112839)
(X_715  0.09313725680112839)
(X_716  -0.010784312151372433)
(X_717  -0.010784312151372433)
(X_718  -0.010784312151372433)
(X_719  -0.010784312151372433)
(X_720  -0.010784312151372433)
(X_721  -0.010784312151372433)
(X_722  -0.010784312151372433)
(X_723  -0.010784312151372433)
(X_724  -0.010784312151372433)
(X_725  -0.010784312151372433)
(X_726  -0.010784312151372433)
(X_727  -0.010784312151372433)
(X_728  -0.010784312151372433)
(X_729  0.08921568840742111)
(X_730  0.08921568840742111)
(X_731  0.08921568840742111)
(X_732  0.08921568840742111)
(X_733  0.08921568840742111)
(X_734  0.08921568840742111)
(X_735  0.08921568840742111)
(X_736  -0.014705880545079708)
(X_737  -0.014705880545079708)
(X_738  -0.014705880545079708)
(X_739  -0.014705880545079708)
(X_740  -0.010784312151372433)
(X_741  -0.010784312151372433)
(X_742  -0.010784312151372433)
(X_743  -0.010784312151372433)
(X_744  -0.014705880545079708)
(X_745  -0.014705880545079708)
(X_746  -0.014705880545079708)
(X_747  -0.014705880545079708)
(X_748  -0.014705880545079708)
(X_749  0.08529412001371384)
(X_750  0.08529412001371384)
(X_751  0.08529412001371384)
(X_752  0.08529412001371384)
(X_753  0.08529412001371384)
(X_754  0.08529412001371384)
(X_755  0.08137255162000656)
(X_756  -0.014705880545079708)
(X_757  -0.014705880545079708)
(X_758  -0.014705880545079708)
(X_759  0.08529412001371384)
(X_760  0.08529412001371384)
(X_761  -0.014705880545079708)
(X_762  0.08529412001371384)
(X_763  0.08529412001371384)
(X_764  0.08529412001371384)
(X_765  0.08529412001371384)
(X_766  0.08529412001371384)
(X_767  0.08529412001371384)
(X_768  0.08529412001371384)
(X_769  0.08529412001371384)
(X_770  0.08529412001371384)
(X_771  0.08921568840742111)
(X_772  0.08137255162000656)
(X_773  -0.018627449870109558)
(X_774  -0.018627449870109558)
(X_775  -0.018627449870109558)
(X_776  -0.018627449870109558)
(X_777  -0.018627449870109558)
(X_778  0.08137255162000656)
(X_779  0.08137255162000656)
(X_780  0.08137255162000656)
(X_781  0.08137255162000656)
(X_782  0.08137255162000656)
(X_783  -0.022549020126461983)
(Y_0 34.6262321472168)
(Y_1 -7.483251094818115)
(Y_2 12.646310806274414)
(Y_3 -40.93625259399414))