((X_0  1.0499999523162842)
(X_1  1.0499999523162842)
(X_2  0.949999988079071)
(X_3  0.949999988079071)
(X_4  1.0499999523162842)
(X_5  1.0499999523162842)
(X_6  1.0499999523162842)
(X_7  0.949999988079071)
(X_8  1.0499999523162842)
(X_9  1.0499999523162842)
(X_10  1.0499999523162842)
(X_11  1.0499999523162842)
(X_12  0.949999988079071)
(X_13  0.949999988079071)
(X_14  0.949999988079071)
(X_15  0.949999988079071)
(X_16  0.949999988079071)
(X_17  0.949999988079071)
(X_18  0.949999988079071)
(X_19  0.949999988079071)
(X_20  1.0499999523162842)
(X_21  1.0421568155288696)
(X_22  1.0460784435272217)
(X_23  0.949999988079071)
(X_24  1.0499999523162842)
(X_25  1.0499999523162842)
(X_26  1.0382353067398071)
(X_27  1.0303921699523926)
(X_28  1.0499999523162842)
(X_29  1.0499999523162842)
(X_30  1.0499999523162842)
(X_31  1.0499999523162842)
(X_32  1.0499999523162842)
(X_33  0.949999988079071)
(X_34  0.949999988079071)
(X_35  0.949999988079071)
(X_36  1.0499999523162842)
(X_37  0.949999988079071)
(X_38  0.949999988079071)
(X_39  0.949999988079071)
(X_40  0.949999988079071)
(X_41  0.949999988079071)
(X_42  0.949999988079071)
(X_43  0.949999988079071)
(X_44  0.9225490093231201)
(X_45  0.9303921461105347)
(X_46  0.9421568512916565)
(X_47  0.949999988079071)
(X_48  0.949999988079071)
(X_49  0.949999988079071)
(X_50  0.949999988079071)
(X_51  0.949999988079071)
(X_52  1.0460784435272217)
(X_53  1.0499999523162842)
(X_54  1.0499999523162842)
(X_55  1.0499999523162842)
(X_56  1.0499999523162842)
(X_57  0.949999988079071)
(X_58  0.949999988079071)
(X_59  0.949999988079071)
(X_60  0.949999988079071)
(X_61  0.949999988079071)
(X_62  0.949999988079071)
(X_63  0.949999988079071)
(X_64  0.949999988079071)
(X_65  0.949999988079071)
(X_66  0.949999988079071)
(X_67  0.949999988079071)
(X_68  0.949999988079071)
(X_69  0.949999988079071)
(X_70  0.949999988079071)
(X_71  0.949999988079071)
(X_72  0.949999988079071)
(X_73  0.949999988079071)
(X_74  1.0499999523162842)
(X_75  1.0499999523162842)
(X_76  1.0499999523162842)
(X_77  1.0421568155288696)
(X_78  1.0382353067398071)
(X_79  1.034313678741455)
(X_80  1.0264705419540405)
(X_81  1.0303921699523926)
(X_82  1.034313678741455)
(X_83  1.0421568155288696)
(X_84  1.0499999523162842)
(X_85  1.0499999523162842)
(X_86  1.0499999523162842)
(X_87  1.0499999523162842)
(X_88  0.949999988079071)
(X_89  0.949999988079071)
(X_90  0.949999988079071)
(X_91  0.949999988079071)
(X_92  0.949999988079071)
(X_93  0.949999988079071)
(X_94  0.949999988079071)
(X_95  0.949999988079071)
(X_96  1.0499999523162842)
(X_97  1.0499999523162842)
(X_98  1.0499999523162842)
(X_99  1.0499999523162842)
(X_100  1.034313678741455)
(X_101  1.0303921699523926)
(X_102  1.0303921699523926)
(X_103  1.034313678741455)
(X_104  0.9421568512916565)
(X_105  0.949999988079071)
(X_106  0.949999988079071)
(X_107  0.949999988079071)
(X_108  0.949999988079071)
(X_109  0.949999988079071)
(X_110  0.949999988079071)
(X_111  1.0382353067398071)
(X_112  0.949999988079071)
(X_113  0.949999988079071)
(X_114  0.949999988079071)
(X_115  0.949999988079071)
(X_116  0.949999988079071)
(X_117  0.949999988079071)
(X_118  0.949999988079071)
(X_119  1.0499999523162842)
(X_120  0.949999988079071)
(X_121  0.949999988079071)
(X_122  0.949999988079071)
(X_123  0.949999988079071)
(X_124  0.949999988079071)
(X_125  0.949999988079071)
(X_126  0.949999988079071)
(X_127  0.949999988079071)
(X_128  1.0499999523162842)
(X_129  1.0499999523162842)
(X_130  1.0499999523162842)
(X_131  1.0499999523162842)
(X_132  1.0499999523162842)
(X_133  1.0499999523162842)
(X_134  1.0499999523162842)
(X_135  1.0499999523162842)
(X_136  0.9264705777168274)
(X_137  0.9303921461105347)
(X_138  1.0421568155288696)
(X_139  1.0499999523162842)
(X_140  1.0499999523162842)
(X_141  1.0499999523162842)
(X_142  1.0499999523162842)
(X_143  1.0499999523162842)
(X_144  0.949999988079071)
(X_145  0.949999988079071)
(X_146  0.949999988079071)
(X_147  1.0499999523162842)
(X_148  0.949999988079071)
(X_149  0.949999988079071)
(X_150  1.0499999523162842)
(X_151  0.949999988079071)
(X_152  1.0499999523162842)
(X_153  1.0499999523162842)
(X_154  1.0499999523162842)
(X_155  1.0499999523162842)
(X_156  0.9382352828979492)
(X_157  0.9264705777168274)
(X_158  1.018627405166626)
(X_159  1.022549033164978)
(X_160  1.0382353067398071)
(X_161  0.9421568512916565)
(X_162  0.9382352828979492)
(X_163  0.9303921461105347)
(X_164  0.949999988079071)
(X_165  0.949999988079071)
(X_166  0.9303921461105347)
(X_167  1.0264705419540405)
(X_168  1.0499999523162842)
(X_169  1.0499999523162842)
(X_170  1.0499999523162842)
(X_171  1.0499999523162842)
(X_172  1.0499999523162842)
(X_173  0.949999988079071)
(X_174  0.949999988079071)
(X_175  0.949999988079071)
(X_176  1.0499999523162842)
(X_177  1.0499999523162842)
(X_178  1.0499999523162842)
(X_179  0.949999988079071)
(X_180  0.949999988079071)
(X_181  0.949999988079071)
(X_182  0.949999988079071)
(X_183  0.949999988079071)
(X_184  1.0499999523162842)
(X_185  1.0499999523162842)
(X_186  1.0499999523162842)
(X_187  1.0499999523162842)
(X_188  1.0499999523162842)
(X_189  0.949999988079071)
(X_190  0.9303921461105347)
(X_191  0.9990196228027344)
(X_192  0.9441176652908325)
(X_193  0.8774510025978088)
(X_194  0.6833333373069763)
(X_195  0.6127451062202454)
(X_196  0.949999988079071)
(X_197  1.0499999523162842)
(X_198  1.0499999523162842)
(X_199  0.949999988079071)
(X_200  0.949999988079071)
(X_201  1.0499999523162842)
(X_202  1.0499999523162842)
(X_203  1.0499999523162842)
(X_204  0.949999988079071)
(X_205  1.0499999523162842)
(X_206  1.0499999523162842)
(X_207  0.949999988079071)
(X_208  0.949999988079071)
(X_209  0.949999988079071)
(X_210  0.949999988079071)
(X_211  0.949999988079071)
(X_212  1.0264705419540405)
(X_213  0.9872549176216125)
(X_214  0.9205882549285889)
(X_215  0.8382353186607361)
(X_216  0.7323529720306396)
(X_217  0.6029412150382996)
(X_218  0.4696078598499298)
(X_219  0.387254923582077)
(X_220  0.28921568393707275)
(X_221  0.1460784375667572)
(X_222  0.09117648005485535)
(X_223  0.1558823585510254)
(X_224  0.949999988079071)
(X_225  0.949999988079071)
(X_226  1.0382353067398071)
(X_227  1.0421568155288696)
(X_228  1.0499999523162842)
(X_229  1.0499999523162842)
(X_230  1.0460784435272217)
(X_231  0.9264705777168274)
(X_232  1.0499999523162842)
(X_233  0.9421568512916565)
(X_234  0.9225490093231201)
(X_235  0.9029411673545837)
(X_236  0.8519607782363892)
(X_237  0.7460784316062927)
(X_238  0.6049019694328308)
(X_239  0.5068627595901489)
(X_240  0.31078431010246277)
(X_241  0.2598039209842682)
(X_242  0.2774509787559509)
(X_243  0.19901961088180542)
(X_244  0.14411765336990356)
(X_245  0.12843137979507446)
(X_246  0.136274516582489)
(X_247  0.04411764815449715)
(X_248  0.05588235333561897)
(X_249  0.05588235333561897)
(X_250  0.05980392172932625)
(X_251  0.05980392172932625)
(X_252  0.9382352828979492)
(X_253  0.9382352828979492)
(X_254  0.9460784196853638)
(X_255  0.949999988079071)
(X_256  1.0421568155288696)
(X_257  0.9950980544090271)
(X_258  0.9284313917160034)
(X_259  0.8774510025978088)
(X_260  0.6284313797950745)
(X_261  0.5303921699523926)
(X_262  0.4852941334247589)
(X_263  0.3558823764324188)
(X_264  0.1617647111415863)
(X_265  0.10294118523597717)
(X_266  0.06372549384832382)
(X_267  0.04019607976078987)
(X_268  0.05980392172932625)
(X_269  0.0519607849419117)
(X_270  0.14411765336990356)
(X_271  0.03235294297337532)
(X_272  0.12843137979507446)
(X_273  0.13235294818878174)
(X_274  0.136274516582489)
(X_275  0.04019607976078987)
(X_276  0.14803922176361084)
(X_277  0.14803922176361084)
(X_278  0.0519607849419117)
(X_279  0.05588235333561897)
(X_280  0.9284313917160034)
(X_281  0.8617647290229797)
(X_282  0.7480392456054688)
(X_283  0.6186274886131287)
(X_284  0.3892156779766083)
(X_285  0.3715686500072479)
(X_286  0.2696078419685364)
(X_287  0.21078431606292725)
(X_288  0.04411764815449715)
(X_289  0.04019607976078987)
(X_290  0.136274516582489)
(X_291  0.1401960849761963)
(X_292  0.1401960849761963)
(X_293  0.03235294297337532)
(X_294  0.012745101936161518)
(X_295  -0.0029411755967885256)
(X_296  0.12450980395078659)
(X_297  0.036274511367082596)
(X_298  0.04803921654820442)
(X_299  0.05588235333561897)
(X_300  0.15980392694473267)
(X_301  0.15196079015731812)
(X_302  0.14411765336990356)
(X_303  0.036274511367082596)
(X_304  0.03235294297337532)
(X_305  0.12843137979507446)
(X_306  0.12843137979507446)
(X_307  0.02450980618596077)
(X_308  0.32058826088905334)
(X_309  0.16960784792900085)
(X_310  0.0990196168422699)
(X_311  0.04411764815449715)
(X_312  0.02450980618596077)
(X_313  0.03235294297337532)
(X_314  0.05588235333561897)
(X_315  0.0676470622420311)
(X_316  0.15980392694473267)
(X_317  0.16372549533843994)
(X_318  0.16372549533843994)
(X_319  0.15980392694473267)
(X_320  0.04803921654820442)
(X_321  0.036274511367082596)
(X_322  0.028431374579668045)
(X_323  0.028431374579668045)
(X_324  0.15980392694473267)
(X_325  0.05588235333561897)
(X_326  0.14803922176361084)
(X_327  0.1401960849761963)
(X_328  0.13235294818878174)
(X_329  0.12843137979507446)
(X_330  0.12450980395078659)
(X_331  0.12058823555707932)
(X_332  0.04411764815449715)
(X_333  0.04019607976078987)
(X_334  0.03235294297337532)
(X_335  0.020588237792253494)
(X_336  0.05980392172932625)
(X_337  0.15196079015731812)
(X_338  0.1401960849761963)
(X_339  0.1401960849761963)
(X_340  0.14411765336990356)
(X_341  0.15196079015731812)
(X_342  0.05588235333561897)
(X_343  0.05588235333561897)
(X_344  0.11666666716337204)
(X_345  0.12058823555707932)
(X_346  0.020588237792253494)
(X_347  0.01666666939854622)
(X_348  0.020588237792253494)
(X_349  0.036274511367082596)
(X_350  0.06372549384832382)
(X_351  0.18333333730697632)
(X_352  0.12058823555707932)
(X_353  0.12058823555707932)
(X_354  0.11666666716337204)
(X_355  0.12058823555707932)
(X_356  0.12450980395078659)
(X_357  0.136274516582489)
(X_358  0.14803922176361084)
(X_359  0.05588235333561897)
(X_360  0.14803922176361084)
(X_361  0.14411765336990356)
(X_362  0.04019607976078987)
(X_363  0.03235294297337532)
(X_364  0.05588235333561897)
(X_365  0.05588235333561897)
(X_366  0.05980392172932625)
(X_367  0.15980392694473267)
(X_368  0.15196079015731812)
(X_369  0.14411765336990356)
(X_370  0.13235294818878174)
(X_371  0.028431374579668045)
(X_372  0.12450980395078659)
(X_373  0.04411764815449715)
(X_374  0.06372549384832382)
(X_375  0.07156863063573837)
(X_376  0.05588235333561897)
(X_377  0.02450980618596077)
(X_378  -0.0029411755967885256)
(X_379  -0.022549020126461983)
(X_380  0.11666666716337204)
(X_381  0.12058823555707932)
(X_382  0.12843137979507446)
(X_383  0.13235294818878174)
(X_384  0.036274511367082596)
(X_385  0.028431374579668045)
(X_386  0.12450980395078659)
(X_387  0.11666666716337204)
(X_388  0.10490196198225021)
(X_389  0.11274509876966476)
(X_390  0.01666666939854622)
(X_391  0.02450980618596077)
(X_392  0.16372549533843994)
(X_393  0.15196079015731812)
(X_394  0.03235294297337532)
(X_395  0.01666666939854622)
(X_396  0.10882353037595749)
(X_397  0.12058823555707932)
(X_398  0.136274516582489)
(X_399  0.15196079015731812)
(X_400  0.028431374579668045)
(X_401  0.020588237792253494)
(X_402  0.012745101936161518)
(X_403  0.11274509876966476)
(X_404  0.020588237792253494)
(X_405  0.036274511367082596)
(X_406  0.05588235333561897)
(X_407  0.06372549384832382)
(X_408  0.13235294818878174)
(X_409  0.13235294818878174)
(X_410  0.136274516582489)
(X_411  0.136274516582489)
(X_412  0.13235294818878174)
(X_413  0.12058823555707932)
(X_414  0.10882353037595749)
(X_415  0.10098039358854294)
(X_416  0.1558823585510254)
(X_417  0.16372549533843994)
(X_418  0.0833333432674408)
(X_419  0.0990196168422699)
(X_420  0.05588235333561897)
(X_421  0.0519607849419117)
(X_422  0.04411764815449715)
(X_423  0.036274511367082596)
(X_424  0.028431374579668045)
(X_425  0.03235294297337532)
(X_426  0.04411764815449715)
(X_427  0.15196079015731812)
(X_428  0.136274516582489)
(X_429  0.03235294297337532)
(X_430  0.028431374579668045)
(X_431  0.036274511367082596)
(X_432  0.04411764815449715)
(X_433  0.0519607849419117)
(X_434  0.0519607849419117)
(X_435  0.04803921654820442)
(X_436  0.1715686321258545)
(X_437  0.17549020051956177)
(X_438  0.17941176891326904)
(X_439  0.19509804248809814)
(X_440  0.21470588445663452)
(X_441  0.24215686321258545)
(X_442  0.16568627953529358)
(X_443  0.18137255311012268)
(X_444  0.1931372582912445)
(X_445  0.20490197837352753)
(X_446  0.2245098203420639)
(X_447  0.3401961028575897)
(X_448  0.12843137979507446)
(X_449  0.04019607976078987)
(X_450  0.0676470622420311)
(X_451  0.17941176891326904)
(X_452  0.1401960849761963)
(X_453  0.09705882519483566)
(X_454  0.12058823555707932)
(X_455  0.17941176891326904)
(X_456  0.14411765336990356)
(X_457  0.16372549533843994)
(X_458  0.19509804248809814)
(X_459  0.12254902720451355)
(X_460  0.13823530077934265)
(X_461  0.1460784375667572)
(X_462  0.1460784375667572)
(X_463  0.1460784375667572)
(X_464  0.18529412150382996)
(X_465  0.22058825194835663)
(X_466  0.23235295712947845)
(X_467  0.31666669249534607)
(X_468  0.3245098292827606)
(X_469  0.3598039448261261)
(X_470  0.3715686500072479)
(X_471  0.3558823764324188)
(X_472  0.3950980603694916)
(X_473  0.3637255132198334)
(X_474  0.3284313976764679)
(X_475  0.30490198731422424)
(X_476  0.028431374579668045)
(X_477  0.0009803927969187498)
(X_478  0.08137255162000656)
(X_479  0.08921568840742111)
(X_480  0.01666666939854622)
(X_481  0.04411764815449715)
(X_482  0.07941177487373352)
(X_483  0.21078431606292725)
(X_484  0.23039215803146362)
(X_485  0.24607843160629272)
(X_486  0.15392157435417175)
(X_487  0.1460784375667572)
(X_488  0.12647059559822083)
(X_489  0.12254902720451355)
(X_490  0.13823530077934265)
(X_491  0.15784314274787903)
(X_492  0.07941177487373352)
(X_493  0.14215686917304993)
(X_494  0.30490198731422424)
(X_495  0.32058826088905334)
(X_496  0.30490198731422424)
(X_497  0.29313725233078003)
(X_498  0.2852941155433655)
(X_499  0.1774509847164154)
(X_500  0.2539215683937073)
(X_501  0.16960784792900085)
(X_502  0.19705882668495178)
(X_503  0.22058825194835663)
(X_504  0.05588235333561897)
(X_505  0.06372549384832382)
(X_506  0.06372549384832382)
(X_507  0.07156863063573837)
(X_508  0.10294118523597717)
(X_509  0.13823530077934265)
(X_510  0.2539215683937073)
(X_511  0.24607843160629272)
(X_512  0.16568627953529358)
(X_513  0.2852941155433655)
(X_514  0.2970588207244873)
(X_515  0.2852941155433655)
(X_516  0.16960784792900085)
(X_517  0.1774509847164154)
(X_518  0.2245098203420639)
(X_519  0.26372548937797546)
(X_520  0.17352941632270813)
(X_521  0.1931372582912445)
(X_522  0.21274511516094208)
(X_523  0.19705882668495178)
(X_524  0.15392157435417175)
(X_525  0.22647058963775635)
(X_526  0.2539215683937073)
(X_527  0.30098041892051697)
(X_528  0.24411766231060028)
(X_529  0.28333333134651184)
(X_530  0.3382352888584137)
(X_531  0.3696078360080719)
(X_532  0.2813725471496582)
(X_533  0.33235296607017517)
(X_534  0.344117671251297)
(X_535  0.30098041892051697)
(X_536  0.16568627953529358)
(X_537  0.17352941632270813)
(X_538  0.1931372582912445)
(X_539  0.29313725233078003)
(X_540  0.1774509847164154)
(X_541  0.2970588207244873)
(X_542  0.32058826088905334)
(X_543  0.23235295712947845)
(X_544  0.240196093916893)
(X_545  0.26372548937797546)
(X_546  0.3068627417087555)
(X_547  0.3382352888584137)
(X_548  0.4068627655506134)
(X_549  0.38333335518836975)
(X_550  0.3637255132198334)
(X_551  0.3480392396450043)
(X_552  0.3127451241016388)
(X_553  0.29313725233078003)
(X_554  0.3401961028575897)
(X_555  0.31470587849617004)
(X_556  0.387254923582077)
(X_557  0.2911764681339264)
(X_558  0.3950980603694916)
(X_559  0.387254923582077)
(X_560  0.3598039448261261)
(X_561  0.2754901945590973)
(X_562  0.24411766231060028)
(X_563  0.16960784792900085)
(X_564  0.13823530077934265)
(X_565  0.2852941155433655)
(X_566  0.24411766231060028)
(X_567  0.27156862616539)
(X_568  0.3637255132198334)
(X_569  0.3715686500072479)
(X_570  0.3794117867946625)
(X_571  0.39901962876319885)
(X_572  0.31078431010246277)
(X_573  0.31470587849617004)
(X_574  0.3068627417087555)
(X_575  0.29901960492134094)
(X_576  0.26764705777168274)
(X_577  0.2558823525905609)
(X_578  0.38333335518836975)
(X_579  0.43431374430656433)
(X_580  0.4539215862751007)
(X_581  0.4264706075191498)
(X_582  0.41862747073173523)
(X_583  0.43039217591285706)
(X_584  0.43431374430656433)
(X_585  0.3029411733150482)
(X_586  0.2558823525905609)
(X_587  0.3245098292827606)
(X_588  0.2970588207244873)
(X_589  0.1774509847164154)
(X_590  0.15784314274787903)
(X_591  0.16568627953529358)
(X_592  0.22058825194835663)
(X_593  0.2911764681339264)
(X_594  0.33039215207099915)
(X_595  0.43431374430656433)
(X_596  0.45000001788139343)
(X_597  0.4421568810939789)
(X_598  0.4382353127002716)
(X_599  0.44607844948768616)
(X_600  0.3499999940395355)
(X_601  0.3343137204647064)
(X_602  0.29901960492134094)
(X_603  0.26764705777168274)
(X_604  0.3245098292827606)
(X_605  0.3127451241016388)
(X_606  0.3284313976764679)
(X_607  0.38333335518836975)
(X_608  0.4264706075191498)
(X_609  0.41470590233802795)
(X_610  0.3715686500072479)
(X_611  0.3401961028575897)
(X_612  0.2245098203420639)
(X_613  0.1931372582912445)
(X_614  0.15392157435417175)
(X_615  0.2343137264251709)
(X_616  0.387254923582077)
(X_617  0.26372548937797546)
(X_618  0.26372548937797546)
(X_619  0.3029411733150482)
(X_620  0.3382352888584137)
(X_621  0.4421568810939789)
(X_622  0.4225490391254425)
(X_623  0.4068627655506134)
(X_624  0.43039217591285706)
(X_625  0.41862747073173523)
(X_626  0.4068627655506134)
(X_627  0.3950980603694916)
(X_628  0.28333333134651184)
(X_629  0.26764705777168274)
(X_630  0.24803923070430756)
(X_631  0.23627452552318573)
(X_632  0.3284313976764679)
(X_633  0.19705882668495178)
(X_634  0.15784314274787903)
(X_635  0.15000000596046448)
(X_636  0.18137255311012268)
(X_637  0.20490197837352753)
(X_638  0.2852941155433655)
(X_639  0.24607843160629272)
(X_640  0.1460784375667572)
(X_641  0.13823530077934265)
(X_642  0.22254902124404907)
(X_643  0.21470588445663452)
(X_644  0.5617647171020508)
(X_645  0.5186274647712708)
(X_646  0.5754902362823486)
(X_647  0.5245097875595093)
(X_648  0.4382353127002716)
(X_649  0.3480392396450043)
(X_650  0.31666669249534607)
(X_651  0.33627453446388245)
(X_652  0.3637255132198334)
(X_653  0.35196080803871155)
(X_654  0.3284313976764679)
(X_655  0.1931372582912445)
(X_656  0.1617647111415863)
(X_657  0.1460784375667572)
(X_658  0.1460784375667572)
(X_659  0.15784314274787903)
(X_660  0.2774509787559509)
(X_661  0.2656862735748291)
(X_662  0.22254902124404907)
(X_663  0.19509804248809814)
(X_664  0.11862745881080627)
(X_665  0.2617647051811218)
(X_666  0.25)
(X_667  0.10294118523597717)
(X_668  0.2029411792755127)
(X_669  0.2029411792755127)
(X_670  0.19901961088180542)
(X_671  0.07941177487373352)
(X_672  0.595098078250885)
(X_673  0.42450979351997375)
(X_674  0.34607842564582825)
(X_675  0.2911764681339264)
(X_676  0.2245098203420639)
(X_677  0.2617647051811218)
(X_678  0.24215686321258545)
(X_679  0.2617647051811218)
(X_680  0.30490198731422424)
(X_681  0.2852941155433655)
(X_682  0.2539215683937073)
(X_683  0.22647058963775635)
(X_684  0.21078431606292725)
(X_685  0.11078432202339172)
(X_686  0.12254902720451355)
(X_687  0.13431373238563538)
(X_688  0.2343137264251709)
(X_689  0.10294118523597717)
(X_690  0.07156863063573837)
(X_691  0.06372549384832382)
(X_692  0.07156863063573837)
(X_693  0.1872549057006836)
(X_694  0.08725491166114807)
(X_695  0.07941177487373352)
(X_696  0.04411764815449715)
(X_697  0.14411765336990356)
(X_698  0.14411765336990356)
(X_699  0.04411764815449715)
(X_700  0.4009803831577301)
(X_701  0.3382352888584137)
(X_702  0.2754901945590973)
(X_703  0.33235296607017517)
(X_704  0.2774509787559509)
(X_705  0.22254902124404907)
(X_706  0.20686274766921997)
(X_707  0.1303921639919281)
(X_708  0.15000000596046448)
(X_709  0.13431373238563538)
(X_710  0.10686275362968445)
(X_711  0.18333333730697632)
(X_712  0.1715686321258545)
(X_713  0.07156863063573837)
(X_714  0.07941177487373352)
(X_715  0.08725491166114807)
(X_716  0.19117647409439087)
(X_717  0.16764706373214722)
(X_718  0.04019607976078987)
(X_719  0.036274511367082596)
(X_720  0.04411764815449715)
(X_721  0.05588235333561897)
(X_722  0.0519607849419117)
(X_723  0.14411765336990356)
(X_724  0.13235294818878174)
(X_725  0.13235294818878174)
(X_726  0.13235294818878174)
(X_727  0.13235294818878174)
(X_728  0.38333335518836975)
(X_729  0.33235296607017517)
(X_730  0.2852941155433655)
(X_731  0.25784313678741455)
(X_732  0.2186274528503418)
(X_733  0.17549020051956177)
(X_734  0.06372549384832382)
(X_735  0.1872549057006836)
(X_736  0.19117647409439087)
(X_737  0.17941176891326904)
(X_738  0.05980392172932625)
(X_739  0.04411764815449715)
(X_740  0.036274511367082596)
(X_741  0.03235294297337532)
(X_742  0.036274511367082596)
(X_743  0.04019607976078987)
(X_744  0.0519607849419117)
(X_745  0.036274511367082596)
(X_746  0.11666666716337204)
(X_747  0.012745101936161518)
(X_748  0.020588237792253494)
(X_749  0.12450980395078659)
(X_750  0.020588237792253494)
(X_751  0.012745101936161518)
(X_752  0.11666666716337204)
(X_753  0.11666666716337204)
(X_754  0.11666666716337204)
(X_755  0.11666666716337204)
(X_756  0.30490198731422424)
(X_757  0.1617647111415863)
(X_758  0.12647059559822083)
(X_759  0.114705890417099)
(X_760  0.08725491166114807)
(X_761  0.04411764815449715)
(X_762  0.1401960849761963)
(X_763  0.15980392694473267)
(X_764  0.16372549533843994)
(X_765  0.1558823585510254)
(X_766  0.04411764815449715)
(X_767  0.03235294297337532)
(X_768  0.02450980618596077)
(X_769  0.02450980618596077)
(X_770  0.02450980618596077)
(X_771  0.02450980618596077)
(X_772  0.036274511367082596)
(X_773  0.02450980618596077)
(X_774  0.01666666939854622)
(X_775  0.01666666939854622)
(X_776  0.020588237792253494)
(X_777  0.12058823555707932)
(X_778  0.012745101936161518)
(X_779  0.004901961423456669)
(X_780  0.008823529817163944)
(X_781  0.008823529817163944)
(X_782  0.008823529817163944)
(X_783  0.10882353037595749)
(Y_0 -26.589763641357422)
(Y_1 43.56638717651367)
(Y_2 -13.935507774353027)
(Y_3 -1.5631375312805176))