((X_0  0.3225490152835846)
(X_1  0.3225490152835846)
(X_2  0.3225490152835846)
(X_3  0.3225490152835846)
(X_4  0.3225490152835846)
(X_5  0.3186274468898773)
(X_6  0.41862747073173523)
(X_7  0.41862747073173523)
(X_8  0.4107843339443207)
(X_9  0.4107843339443207)
(X_10  0.41470590233802795)
(X_11  0.4225490391254425)
(X_12  0.4264706075191498)
(X_13  0.43039217591285706)
(X_14  0.33039215207099915)
(X_15  0.33039215207099915)
(X_16  0.31470587849617004)
(X_17  0.3225490152835846)
(X_18  0.3343137204647064)
(X_19  0.4382353127002716)
(X_20  0.43431374430656433)
(X_21  0.33039215207099915)
(X_22  0.33039215207099915)
(X_23  0.43039217591285706)
(X_24  0.3186274468898773)
(X_25  0.3186274468898773)
(X_26  0.3186274468898773)
(X_27  0.3186274468898773)
(X_28  0.12450980395078659)
(X_29  0.12450980395078659)
(X_30  0.12843137979507446)
(X_31  0.12843137979507446)
(X_32  0.028431374579668045)
(X_33  0.03235294297337532)
(X_34  0.03235294297337532)
(X_35  0.03235294297337532)
(X_36  0.0519607849419117)
(X_37  0.04803921654820442)
(X_38  0.04019607976078987)
(X_39  0.13235294818878174)
(X_40  0.13235294818878174)
(X_41  0.13235294818878174)
(X_42  0.136274516582489)
(X_43  0.136274516582489)
(X_44  0.12450980395078659)
(X_45  0.03235294297337532)
(X_46  0.04019607976078987)
(X_47  0.04019607976078987)
(X_48  0.036274511367082596)
(X_49  0.036274511367082596)
(X_50  0.04019607976078987)
(X_51  0.14411765336990356)
(X_52  0.12058823555707932)
(X_53  0.020588237792253494)
(X_54  0.020588237792253494)
(X_55  0.020588237792253494)
(X_56  0.06372549384832382)
(X_57  0.05980392172932625)
(X_58  0.05588235333561897)
(X_59  0.15196079015731812)
(X_60  0.14411765336990356)
(X_61  0.136274516582489)
(X_62  0.03235294297337532)
(X_63  0.028431374579668045)
(X_64  0.02450980618596077)
(X_65  0.020588237792253494)
(X_66  0.11274509876966476)
(X_67  0.10882353037595749)
(X_68  0.10882353037595749)
(X_69  0.11666666716337204)
(X_70  0.12843137979507446)
(X_71  0.13235294818878174)
(X_72  0.05980392172932625)
(X_73  0.06372549384832382)
(X_74  0.05980392172932625)
(X_75  0.04803921654820442)
(X_76  0.136274516582489)
(X_77  0.12843137979507446)
(X_78  0.13235294818878174)
(X_79  0.136274516582489)
(X_80  0.14411765336990356)
(X_81  0.14411765336990356)
(X_82  0.14411765336990356)
(X_83  0.14411765336990356)
(X_84  0.04411764815449715)
(X_85  0.04411764815449715)
(X_86  0.04411764815449715)
(X_87  0.04019607976078987)
(X_88  0.136274516582489)
(X_89  0.13235294818878174)
(X_90  0.13235294818878174)
(X_91  0.12843137979507446)
(X_92  0.1401960849761963)
(X_93  0.1401960849761963)
(X_94  0.04019607976078987)
(X_95  0.04019607976078987)
(X_96  0.04019607976078987)
(X_97  0.04411764815449715)
(X_98  0.0519607849419117)
(X_99  0.05588235333561897)
(X_100  0.05588235333561897)
(X_101  0.05588235333561897)
(X_102  0.0519607849419117)
(X_103  0.04019607976078987)
(X_104  0.12843137979507446)
(X_105  0.028431374579668045)
(X_106  0.03235294297337532)
(X_107  0.1401960849761963)
(X_108  0.05980392172932625)
(X_109  0.05980392172932625)
(X_110  0.05980392172932625)
(X_111  0.15980392694473267)
(X_112  0.10098039358854294)
(X_113  0.10490196198225021)
(X_114  0.11274509876966476)
(X_115  0.12058823555707932)
(X_116  0.12843137979507446)
(X_117  0.036274511367082596)
(X_118  0.04411764815449715)
(X_119  0.04803921654820442)
(X_120  0.028431374579668045)
(X_121  0.028431374579668045)
(X_122  0.03235294297337532)
(X_123  0.03235294297337532)
(X_124  0.13235294818878174)
(X_125  0.12843137979507446)
(X_126  0.02450980618596077)
(X_127  0.020588237792253494)
(X_128  0.11666666716337204)
(X_129  0.12058823555707932)
(X_130  0.020588237792253494)
(X_131  0.020588237792253494)
(X_132  0.01666666939854622)
(X_133  0.02450980618596077)
(X_134  0.036274511367082596)
(X_135  0.04803921654820442)
(X_136  0.136274516582489)
(X_137  0.136274516582489)
(X_138  0.136274516582489)
(X_139  0.136274516582489)
(X_140  0.16372549533843994)
(X_141  0.15980392694473267)
(X_142  0.05588235333561897)
(X_143  0.0519607849419117)
(X_144  0.04803921654820442)
(X_145  0.04411764815449715)
(X_146  0.04019607976078987)
(X_147  0.036274511367082596)
(X_148  0.12450980395078659)
(X_149  0.028431374579668045)
(X_150  0.036274511367082596)
(X_151  0.14411765336990356)
(X_152  0.14803922176361084)
(X_153  0.15196079015731812)
(X_154  0.1558823585510254)
(X_155  0.1558823585510254)
(X_156  0.15196079015731812)
(X_157  0.1558823585510254)
(X_158  0.05588235333561897)
(X_159  0.0519607849419117)
(X_160  0.1401960849761963)
(X_161  0.1401960849761963)
(X_162  0.14411765336990356)
(X_163  0.15196079015731812)
(X_164  0.1558823585510254)
(X_165  0.1558823585510254)
(X_166  0.1558823585510254)
(X_167  0.1558823585510254)
(X_168  0.3186274468898773)
(X_169  0.31078431010246277)
(X_170  0.29509803652763367)
(X_171  0.2754901945590973)
(X_172  0.35196080803871155)
(X_173  0.33235296607017517)
(X_174  0.31666669249534607)
(X_175  0.3088235557079315)
(X_176  0.0990196168422699)
(X_177  0.08725491166114807)
(X_178  0.0676470622420311)
(X_179  0.14803922176361084)
(X_180  0.13235294818878174)
(X_181  0.12843137979507446)
(X_182  0.12843137979507446)
(X_183  0.12843137979507446)
(X_184  0.004901961423456669)
(X_185  0.01666666939854622)
(X_186  0.028431374579668045)
(X_187  0.036274511367082596)
(X_188  0.04019607976078987)
(X_189  0.04411764815449715)
(X_190  0.15196079015731812)
(X_191  0.15980392694473267)
(X_192  0.19117647409439087)
(X_193  0.19117647409439087)
(X_194  0.19117647409439087)
(X_195  0.19117647409439087)
(X_196  0.5284313559532166)
(X_197  0.520588219165802)
(X_198  0.5127450823783875)
(X_199  0.5009803771972656)
(X_200  0.3892156779766083)
(X_201  0.37745097279548645)
(X_202  0.3696078360080719)
(X_203  0.36176469922065735)
(X_204  0.3656862676143646)
(X_205  0.32647058367729187)
(X_206  0.2598039209842682)
(X_207  0.18529412150382996)
(X_208  0.12254902720451355)
(X_209  0.07941177487373352)
(X_210  0.05980392172932625)
(X_211  0.15196079015731812)
(X_212  0.19901961088180542)
(X_213  0.22647058963775635)
(X_214  0.16960784792900085)
(X_215  0.21666668355464935)
(X_216  0.2558823525905609)
(X_217  0.29509803652763367)
(X_218  0.32647058367729187)
(X_219  0.44607844948768616)
(X_220  0.457843154668808)
(X_221  0.457843154668808)
(X_222  0.3578431308269501)
(X_223  0.3578431308269501)
(X_224  0.457843154668808)
(X_225  0.3068627417087555)
(X_226  0.3225490152835846)
(X_227  0.36176469922065735)
(X_228  0.3382352888584137)
(X_229  0.31470587849617004)
(X_230  0.3186274468898773)
(X_231  0.3186274468898773)
(X_232  0.3794117867946625)
(X_233  0.387254923582077)
(X_234  0.38333335518836975)
(X_235  0.36764708161354065)
(X_236  0.344117671251297)
(X_237  0.33235296607017517)
(X_238  0.33627453446388245)
(X_239  0.344117671251297)
(X_240  0.29509803652763367)
(X_241  0.40294119715690613)
(X_242  0.3186274468898773)
(X_243  0.32647058367729187)
(X_244  0.32647058367729187)
(X_245  0.41862747073173523)
(X_246  0.40294119715690613)
(X_247  0.3950980603694916)
(X_248  0.43039217591285706)
(X_249  0.33039215207099915)
(X_250  0.33039215207099915)
(X_251  0.33039215207099915)
(X_252  0.38333335518836975)
(X_253  0.31666669249534607)
(X_254  0.22058825194835663)
(X_255  0.3558823764324188)
(X_256  0.3401961028575897)
(X_257  0.3127451241016388)
(X_258  0.30490198731422424)
(X_259  0.2852941155433655)
(X_260  0.3088235557079315)
(X_261  0.3088235557079315)
(X_262  0.30098041892051697)
(X_263  0.2852941155433655)
(X_264  0.2656862735748291)
(X_265  0.2539215683937073)
(X_266  0.25)
(X_267  0.15000000596046448)
(X_268  0.1774509847164154)
(X_269  0.18921568989753723)
(X_270  0.20490197837352753)
(X_271  0.2245098203420639)
(X_272  0.240196093916893)
(X_273  0.24803923070430756)
(X_274  0.25196078419685364)
(X_275  0.25196078419685364)
(X_276  0.2754901945590973)
(X_277  0.2754901945590973)
(X_278  0.3715686500072479)
(X_279  0.36764708161354065)
(X_280  0.5068627595901489)
(X_281  0.4362744987010956)
(X_282  0.42843136191368103)
(X_283  0.4637255072593689)
(X_284  0.45588237047195435)
(X_285  0.5401960611343384)
(X_286  0.5245097875595093)
(X_287  0.3892156779766083)
(X_288  0.31470587849617004)
(X_289  0.4068627655506134)
(X_290  0.39901962876319885)
(X_291  0.3950980603694916)
(X_292  0.3950980603694916)
(X_293  0.3911764919757843)
(X_294  0.28333333134651184)
(X_295  0.2754901945590973)
(X_296  0.35196080803871155)
(X_297  0.35196080803871155)
(X_298  0.3480392396450043)
(X_299  0.24803923070430756)
(X_300  0.35196080803871155)
(X_301  0.3598039448261261)
(X_302  0.26372548937797546)
(X_303  0.3715686500072479)
(X_304  0.27156862616539)
(X_305  0.27156862616539)
(X_306  0.27156862616539)
(X_307  0.26764705777168274)
(X_308  0.4950980544090271)
(X_309  0.4480392038822174)
(X_310  0.45588237047195435)
(X_311  0.48725491762161255)
(X_312  0.4833333492279053)
(X_313  0.479411780834198)
(X_314  0.4754902124404907)
(X_315  0.45196080207824707)
(X_316  0.479411780834198)
(X_317  0.4754902124404907)
(X_318  0.4754902124404907)
(X_319  0.48725491762161255)
(X_320  0.5107843279838562)
(X_321  0.6225490570068359)
(X_322  0.6186274886131287)
(X_323  0.6107843518257141)
(X_324  0.5264706015586853)
(X_325  0.6147059202194214)
(X_326  0.595098078250885)
(X_327  0.4754902124404907)
(X_328  0.4637255072593689)
(X_329  0.4637255072593689)
(X_330  0.47156864404678345)
(X_331  0.4754902124404907)
(X_332  0.5676470994949341)
(X_333  0.5715686678886414)
(X_334  0.5754902362823486)
(X_335  0.5794118046760559)
(X_336  0.26764705777168274)
(X_337  0.35196080803871155)
(X_338  0.27941176295280457)
(X_339  0.4068627655506134)
(X_340  0.38333335518836975)
(X_341  0.387254923582077)
(X_342  0.3029411733150482)
(X_343  0.29509803652763367)
(X_344  0.38333335518836975)
(X_345  0.3794117867946625)
(X_346  0.2872548997402191)
(X_347  0.3068627417087555)
(X_348  0.4382353127002716)
(X_349  0.4539215862751007)
(X_350  0.4539215862751007)
(X_351  0.34607842564582825)
(X_352  0.37745097279548645)
(X_353  0.3656862676143646)
(X_354  0.45000001788139343)
(X_355  0.3382352888584137)
(X_356  0.3382352888584137)
(X_357  0.3499999940395355)
(X_358  0.36176469922065735)
(X_359  0.4735294282436371)
(X_360  0.47745099663734436)
(X_361  0.48137256503105164)
(X_362  0.4852941334247589)
(X_363  0.4892157018184662)
(X_364  0.21274511516094208)
(X_365  0.2088235467672348)
(X_366  0.24411766231060028)
(X_367  0.2598039209842682)
(X_368  0.3245098292827606)
(X_369  0.3284313976764679)
(X_370  0.3558823764324188)
(X_371  0.3480392396450043)
(X_372  0.20490197837352753)
(X_373  0.2088235467672348)
(X_374  0.21666668355464935)
(X_375  0.22843138873577118)
(X_376  0.344117671251297)
(X_377  0.3480392396450043)
(X_378  0.344117671251297)
(X_379  0.240196093916893)
(X_380  0.3401961028575897)
(X_381  0.33627453446388245)
(X_382  0.3245098292827606)
(X_383  0.32058826088905334)
(X_384  0.32058826088905334)
(X_385  0.22843138873577118)
(X_386  0.240196093916893)
(X_387  0.24411766231060028)
(X_388  0.36764708161354065)
(X_389  0.36764708161354065)
(X_390  0.36764708161354065)
(X_391  0.3637255132198334)
(X_392  0.14215686917304993)
(X_393  0.13431373238563538)
(X_394  0.2656862735748291)
(X_395  0.2774509787559509)
(X_396  0.2539215683937073)
(X_397  0.2617647051811218)
(X_398  0.2813725471496582)
(X_399  0.2617647051811218)
(X_400  0.15392157435417175)
(X_401  0.2617647051811218)
(X_402  0.27352941036224365)
(X_403  0.27352941036224365)
(X_404  0.16960784792900085)
(X_405  0.1617647111415863)
(X_406  0.15784314274787903)
(X_407  0.25784313678741455)
(X_408  0.18529412150382996)
(X_409  0.18137255311012268)
(X_410  0.17352941632270813)
(X_411  0.16568627953529358)
(X_412  0.15784314274787903)
(X_413  0.2539215683937073)
(X_414  0.2539215683937073)
(X_415  0.25)
(X_416  0.16960784792900085)
(X_417  0.16960784792900085)
(X_418  0.2656862735748291)
(X_419  0.2617647051811218)
(X_420  0.0676470622420311)
(X_421  0.04803921654820442)
(X_422  0.1715686321258545)
(X_423  0.19117647409439087)
(X_424  0.1872549057006836)
(X_425  0.20686274766921997)
(X_426  0.2186274528503418)
(X_427  0.0833333432674408)
(X_428  0.09509804844856262)
(X_429  0.21078431606292725)
(X_430  0.22647058963775635)
(X_431  0.22254902124404907)
(X_432  0.21078431606292725)
(X_433  0.19509804248809814)
(X_434  0.09509804844856262)
(X_435  0.0990196168422699)
(X_436  0.11078432202339172)
(X_437  0.11078432202339172)
(X_438  0.21470588445663452)
(X_439  0.21470588445663452)
(X_440  0.114705890417099)
(X_441  0.11078432202339172)
(X_442  0.10686275362968445)
(X_443  0.10294118523597717)
(X_444  0.2029411792755127)
(X_445  0.2029411792755127)
(X_446  0.2029411792755127)
(X_447  0.2029411792755127)
(X_448  0.036274511367082596)
(X_449  0.1401960849761963)
(X_450  0.14411765336990356)
(X_451  0.15196079015731812)
(X_452  0.15196079015731812)
(X_453  0.0519607849419117)
(X_454  0.14803922176361084)
(X_455  0.04411764815449715)
(X_456  0.05588235333561897)
(X_457  0.05588235333561897)
(X_458  0.05588235333561897)
(X_459  0.1558823585510254)
(X_460  0.1558823585510254)
(X_461  0.1558823585510254)
(X_462  0.1558823585510254)
(X_463  0.1558823585510254)
(X_464  0.14803922176361084)
(X_465  0.15196079015731812)
(X_466  0.1558823585510254)
(X_467  0.05980392172932625)
(X_468  0.05980392172932625)
(X_469  0.05588235333561897)
(X_470  0.0519607849419117)
(X_471  0.04803921654820442)
(X_472  0.0519607849419117)
(X_473  0.0519607849419117)
(X_474  0.0519607849419117)
(X_475  0.15196079015731812)
(X_476  0.02450980618596077)
(X_477  0.028431374579668045)
(X_478  0.036274511367082596)
(X_479  0.04019607976078987)
(X_480  0.04019607976078987)
(X_481  0.04019607976078987)
(X_482  0.036274511367082596)
(X_483  0.03235294297337532)
(X_484  0.03235294297337532)
(X_485  0.03235294297337532)
(X_486  0.03235294297337532)
(X_487  0.13235294818878174)
(X_488  0.13235294818878174)
(X_489  0.13235294818878174)
(X_490  0.13235294818878174)
(X_491  0.13235294818878174)
(X_492  0.12843137979507446)
(X_493  0.12843137979507446)
(X_494  0.036274511367082596)
(X_495  0.136274516582489)
(X_496  0.136274516582489)
(X_497  0.136274516582489)
(X_498  0.028431374579668045)
(X_499  0.028431374579668045)
(X_500  0.036274511367082596)
(X_501  0.036274511367082596)
(X_502  0.036274511367082596)
(X_503  0.136274516582489)
(X_504  0.012745101936161518)
(X_505  0.11666666716337204)
(X_506  0.12058823555707932)
(X_507  0.12450980395078659)
(X_508  0.12450980395078659)
(X_509  0.02450980618596077)
(X_510  0.02450980618596077)
(X_511  0.020588237792253494)
(X_512  0.01666666939854622)
(X_513  0.01666666939854622)
(X_514  0.01666666939854622)
(X_515  0.11666666716337204)
(X_516  0.11666666716337204)
(X_517  0.11666666716337204)
(X_518  0.01666666939854622)
(X_519  0.11666666716337204)
(X_520  0.11274509876966476)
(X_521  0.11274509876966476)
(X_522  0.11666666716337204)
(X_523  0.020588237792253494)
(X_524  0.12058823555707932)
(X_525  0.01666666939854622)
(X_526  0.012745101936161518)
(X_527  0.012745101936161518)
(X_528  0.020588237792253494)
(X_529  0.020588237792253494)
(X_530  0.020588237792253494)
(X_531  0.020588237792253494)
(X_532  0.008823529817163944)
(X_533  0.008823529817163944)
(X_534  0.012745101936161518)
(X_535  0.012745101936161518)
(X_536  0.01666666939854622)
(X_537  0.01666666939854622)
(X_538  0.01666666939854622)
(X_539  0.01666666939854622)
(X_540  0.012745101936161518)
(X_541  0.012745101936161518)
(X_542  0.012745101936161518)
(X_543  0.11274509876966476)
(X_544  0.11274509876966476)
(X_545  0.012745101936161518)
(X_546  0.012745101936161518)
(X_547  0.11274509876966476)
(X_548  0.012745101936161518)
(X_549  0.11274509876966476)
(X_550  0.012745101936161518)
(X_551  0.01666666939854622)
(X_552  0.01666666939854622)
(X_553  0.012745101936161518)
(X_554  0.012745101936161518)
(X_555  0.012745101936161518)
(X_556  0.10882353037595749)
(X_557  0.10882353037595749)
(X_558  0.008823529817163944)
(X_559  0.008823529817163944)
(X_560  0.008823529817163944)
(X_561  0.008823529817163944)
(X_562  0.008823529817163944)
(X_563  0.008823529817163944)
(X_564  0.008823529817163944)
(X_565  0.012745101936161518)
(X_566  0.01666666939854622)
(X_567  0.11666666716337204)
(X_568  0.11274509876966476)
(X_569  0.012745101936161518)
(X_570  0.012745101936161518)
(X_571  0.012745101936161518)
(X_572  0.012745101936161518)
(X_573  0.012745101936161518)
(X_574  0.012745101936161518)
(X_575  0.012745101936161518)
(X_576  0.012745101936161518)
(X_577  0.11274509876966476)
(X_578  0.008823529817163944)
(X_579  0.008823529817163944)
(X_580  0.008823529817163944)
(X_581  0.008823529817163944)
(X_582  0.012745101936161518)
(X_583  0.012745101936161518)
(X_584  0.004901961423456669)
(X_585  0.10490196198225021)
(X_586  0.004901961423456669)
(X_587  0.10490196198225021)
(X_588  0.10882353037595749)
(X_589  0.10490196198225021)
(X_590  0.10490196198225021)
(X_591  0.004901961423456669)
(X_592  0.004901961423456669)
(X_593  0.008823529817163944)
(X_594  0.012745101936161518)
(X_595  0.01666666939854622)
(X_596  0.0009803927969187498)
(X_597  0.0009803927969187498)
(X_598  0.0009803927969187498)
(X_599  0.10098039358854294)
(X_600  0.10098039358854294)
(X_601  0.10098039358854294)
(X_602  0.10098039358854294)
(X_603  0.10098039358854294)
(X_604  0.10490196198225021)
(X_605  0.004901961423456669)
(X_606  0.0009803927969187498)
(X_607  0.09705882519483566)
(X_608  0.09705882519483566)
(X_609  0.10098039358854294)
(X_610  0.004901961423456669)
(X_611  0.004901961423456669)
(X_612  0.004901961423456669)
(X_613  0.10490196198225021)
(X_614  0.10490196198225021)
(X_615  0.10490196198225021)
(X_616  0.004901961423456669)
(X_617  0.10098039358854294)
(X_618  0.09705882519483566)
(X_619  0.09705882519483566)
(X_620  0.09705882519483566)
(X_621  0.0009803927969187498)
(X_622  0.008823529817163944)
(X_623  0.012745101936161518)
(X_624  0.10098039358854294)
(X_625  0.10098039358854294)
(X_626  0.10098039358854294)
(X_627  0.10098039358854294)
(X_628  0.10098039358854294)
(X_629  0.10098039358854294)
(X_630  0.10098039358854294)
(X_631  0.10098039358854294)
(X_632  0.10490196198225021)
(X_633  0.10098039358854294)
(X_634  0.09705882519483566)
(X_635  0.09313725680112839)
(X_636  0.09313725680112839)
(X_637  0.09705882519483566)
(X_638  0.10098039358854294)
(X_639  0.10490196198225021)
(X_640  0.10490196198225021)
(X_641  0.10490196198225021)
(X_642  0.10490196198225021)
(X_643  0.10490196198225021)
(X_644  0.09705882519483566)
(X_645  0.09705882519483566)
(X_646  -0.006862743757665157)
(X_647  -0.010784312151372433)
(X_648  -0.006862743757665157)
(X_649  -0.0029411755967885256)
(X_650  0.10098039358854294)
(X_651  0.008823529817163944)
(X_652  0.004901961423456669)
(X_653  0.004901961423456669)
(X_654  0.004901961423456669)
(X_655  0.004901961423456669)
(X_656  0.10490196198225021)
(X_657  0.10490196198225021)
(X_658  0.10490196198225021)
(X_659  0.10490196198225021)
(X_660  0.11274509876966476)
(X_661  0.10882353037595749)
(X_662  0.004901961423456669)
(X_663  0.0009803927969187498)
(X_664  0.0009803927969187498)
(X_665  0.004901961423456669)
(X_666  0.008823529817163944)
(X_667  0.012745101936161518)
(X_668  0.0009803927969187498)
(X_669  0.0009803927969187498)
(X_670  0.0009803927969187498)
(X_671  0.10098039358854294)
(X_672  0.0009803927969187498)
(X_673  0.09705882519483566)
(X_674  -0.0029411755967885256)
(X_675  0.09313725680112839)
(X_676  0.09313725680112839)
(X_677  0.09705882519483566)
(X_678  0.09705882519483566)
(X_679  0.10098039358854294)
(X_680  0.10490196198225021)
(X_681  0.10098039358854294)
(X_682  0.09705882519483566)
(X_683  -0.006862743757665157)
(X_684  -0.006862743757665157)
(X_685  0.09313725680112839)
(X_686  0.09313725680112839)
(X_687  0.09705882519483566)
(X_688  0.09313725680112839)
(X_689  0.09313725680112839)
(X_690  0.09313725680112839)
(X_691  0.09705882519483566)
(X_692  0.09705882519483566)
(X_693  0.10098039358854294)
(X_694  0.10098039358854294)
(X_695  0.10098039358854294)
(X_696  0.10490196198225021)
(X_697  0.0009803927969187498)
(X_698  -0.0029411755967885256)
(X_699  -0.0029411755967885256)
(X_700  0.10098039358854294)
(X_701  0.09705882519483566)
(X_702  0.09705882519483566)
(X_703  0.09313725680112839)
(X_704  0.09313725680112839)
(X_705  -0.0029411755967885256)
(X_706  -0.0029411755967885256)
(X_707  0.0009803927969187498)
(X_708  0.004901961423456669)
(X_709  0.0009803927969187498)
(X_710  -0.0029411755967885256)
(X_711  -0.006862743757665157)
(X_712  -0.006862743757665157)
(X_713  -0.006862743757665157)
(X_714  0.09313725680112839)
(X_715  0.09705882519483566)
(X_716  -0.006862743757665157)
(X_717  -0.006862743757665157)
(X_718  -0.006862743757665157)
(X_719  -0.0029411755967885256)
(X_720  -0.0029411755967885256)
(X_721  -0.0029411755967885256)
(X_722  0.0009803927969187498)
(X_723  0.0009803927969187498)
(X_724  0.0009803927969187498)
(X_725  0.0009803927969187498)
(X_726  -0.0029411755967885256)
(X_727  0.09313725680112839)
(X_728  0.09705882519483566)
(X_729  0.09705882519483566)
(X_730  0.09313725680112839)
(X_731  0.09313725680112839)
(X_732  0.09313725680112839)
(X_733  0.09313725680112839)
(X_734  0.09705882519483566)
(X_735  0.09705882519483566)
(X_736  0.0009803927969187498)
(X_737  0.0009803927969187498)
(X_738  -0.0029411755967885256)
(X_739  -0.006862743757665157)
(X_740  -0.006862743757665157)
(X_741  -0.006862743757665157)
(X_742  -0.006862743757665157)
(X_743  -0.006862743757665157)
(X_744  -0.006862743757665157)
(X_745  -0.006862743757665157)
(X_746  -0.006862743757665157)
(X_747  -0.006862743757665157)
(X_748  -0.0029411755967885256)
(X_749  -0.0029411755967885256)
(X_750  0.09705882519483566)
(X_751  0.0009803927969187498)
(X_752  0.09705882519483566)
(X_753  0.09313725680112839)
(X_754  0.08921568840742111)
(X_755  0.08921568840742111)
(X_756  -0.0029411755967885256)
(X_757  -0.0029411755967885256)
(X_758  -0.006862743757665157)
(X_759  0.08921568840742111)
(X_760  0.08921568840742111)
(X_761  0.09313725680112839)
(X_762  0.09705882519483566)
(X_763  0.09705882519483566)
(X_764  0.10098039358854294)
(X_765  0.09705882519483566)
(X_766  0.09313725680112839)
(X_767  0.09313725680112839)
(X_768  0.08921568840742111)
(X_769  0.08921568840742111)
(X_770  0.09313725680112839)
(X_771  0.09313725680112839)
(X_772  0.08921568840742111)
(X_773  -0.010784312151372433)
(X_774  -0.006862743757665157)
(X_775  -0.006862743757665157)
(X_776  -0.006862743757665157)
(X_777  -0.0029411755967885256)
(X_778  0.09705882519483566)
(X_779  0.09705882519483566)
(X_780  0.09313725680112839)
(X_781  -0.010784312151372433)
(X_782  -0.014705880545079708)
(X_783  0.08137255162000656)
(Y_0 32.06861114501953)
(Y_1 -5.0557942390441895)
(Y_2 7.819125175476074)
(Y_3 -36.114688873291016))