((X_0  1.0499999523162842)
(X_1  0.949999988079071)
(X_2  0.9382352828979492)
(X_3  0.9715686440467834)
(X_4  0.820588231086731)
(X_5  0.8617647290229797)
(X_6  0.6245098114013672)
(X_7  0.4833333492279053)
(X_8  0.3382352888584137)
(X_9  0.35196080803871155)
(X_10  0.24215686321258545)
(X_11  0.07549020648002625)
(X_12  0.0676470622420311)
(X_13  0.19117647409439087)
(X_14  0.2029411792755127)
(X_15  0.19901961088180542)
(X_16  0.11078432202339172)
(X_17  0.0990196168422699)
(X_18  0.08725491166114807)
(X_19  0.0833333432674408)
(X_20  0.1872549057006836)
(X_21  0.19509804248809814)
(X_22  0.19901961088180542)
(X_23  0.10294118523597717)
(X_24  0.19509804248809814)
(X_25  0.19509804248809814)
(X_26  0.19509804248809814)
(X_27  0.19509804248809814)
(X_28  0.6696078777313232)
(X_29  0.4833333492279053)
(X_30  0.3499999940395355)
(X_31  0.23627452552318573)
(X_32  0.16960784792900085)
(X_33  0.13823530077934265)
(X_34  0.114705890417099)
(X_35  0.19117647409439087)
(X_36  0.11078432202339172)
(X_37  0.10294118523597717)
(X_38  0.09509804844856262)
(X_39  0.09509804844856262)
(X_40  0.0990196168422699)
(X_41  0.09509804844856262)
(X_42  0.1872549057006836)
(X_43  0.07549020648002625)
(X_44  0.16372549533843994)
(X_45  0.0676470622420311)
(X_46  0.07549020648002625)
(X_47  0.09117648005485535)
(X_48  0.0990196168422699)
(X_49  0.09509804844856262)
(X_50  0.0833333432674408)
(X_51  0.0676470622420311)
(X_52  0.18333333730697632)
(X_53  0.18333333730697632)
(X_54  0.18333333730697632)
(X_55  0.18333333730697632)
(X_56  0.24215686321258545)
(X_57  0.10686275362968445)
(X_58  0.09509804844856262)
(X_59  0.11078432202339172)
(X_60  0.10686275362968445)
(X_61  0.07941177487373352)
(X_62  0.0676470622420311)
(X_63  0.0833333432674408)
(X_64  0.06372549384832382)
(X_65  0.0833333432674408)
(X_66  0.10686275362968445)
(X_67  0.21078431606292725)
(X_68  0.2029411792755127)
(X_69  0.09509804844856262)
(X_70  0.10294118523597717)
(X_71  0.11078432202339172)
(X_72  0.12254902720451355)
(X_73  0.11078432202339172)
(X_74  0.0990196168422699)
(X_75  0.09117648005485535)
(X_76  0.19117647409439087)
(X_77  0.19509804248809814)
(X_78  0.19117647409439087)
(X_79  0.1872549057006836)
(X_80  0.18333333730697632)
(X_81  0.1872549057006836)
(X_82  0.1872549057006836)
(X_83  0.19117647409439087)
(X_84  0.18333333730697632)
(X_85  0.17549020051956177)
(X_86  0.17549020051956177)
(X_87  0.17941176891326904)
(X_88  0.07549020648002625)
(X_89  0.07941177487373352)
(X_90  0.10294118523597717)
(X_91  0.1303921639919281)
(X_92  0.1715686321258545)
(X_93  0.0833333432674408)
(X_94  0.09509804844856262)
(X_95  0.08725491166114807)
(X_96  0.16764706373214722)
(X_97  0.15980392694473267)
(X_98  0.16764706373214722)
(X_99  0.18333333730697632)
(X_100  0.1872549057006836)
(X_101  0.17941176891326904)
(X_102  0.1715686321258545)
(X_103  0.0676470622420311)
(X_104  0.07156863063573837)
(X_105  0.07156863063573837)
(X_106  0.07156863063573837)
(X_107  0.06372549384832382)
(X_108  0.06372549384832382)
(X_109  0.06372549384832382)
(X_110  0.06372549384832382)
(X_111  0.16372549533843994)
(X_112  0.12254902720451355)
(X_113  0.2617647051811218)
(X_114  0.25784313678741455)
(X_115  0.10294118523597717)
(X_116  0.07156863063573837)
(X_117  0.08725491166114807)
(X_118  0.09509804844856262)
(X_119  0.07941177487373352)
(X_120  0.17549020051956177)
(X_121  0.0833333432674408)
(X_122  0.0990196168422699)
(X_123  0.21078431606292725)
(X_124  0.21470588445663452)
(X_125  0.10294118523597717)
(X_126  0.0833333432674408)
(X_127  0.0676470622420311)
(X_128  0.12843137979507446)
(X_129  0.1401960849761963)
(X_130  0.16372549533843994)
(X_131  0.19117647409439087)
(X_132  0.2029411792755127)
(X_133  0.09509804844856262)
(X_134  0.07549020648002625)
(X_135  0.1558823585510254)
(X_136  0.0833333432674408)
(X_137  0.0833333432674408)
(X_138  0.17941176891326904)
(X_139  0.17549020051956177)
(X_140  0.22647058963775635)
(X_141  0.3401961028575897)
(X_142  0.41862747073173523)
(X_143  0.41470590233802795)
(X_144  0.3029411733150482)
(X_145  0.29901960492134094)
(X_146  0.24411766231060028)
(X_147  0.2696078419685364)
(X_148  0.22647058963775635)
(X_149  0.19509804248809814)
(X_150  0.15980392694473267)
(X_151  0.14803922176361084)
(X_152  0.15980392694473267)
(X_153  0.1715686321258545)
(X_154  0.1715686321258545)
(X_155  0.16372549533843994)
(X_156  0.12647059559822083)
(X_157  0.10686275362968445)
(X_158  0.18333333730697632)
(X_159  0.16372549533843994)
(X_160  0.15980392694473267)
(X_161  0.05980392172932625)
(X_162  0.06372549384832382)
(X_163  0.16372549533843994)
(X_164  0.17549020051956177)
(X_165  0.07549020648002625)
(X_166  0.1715686321258545)
(X_167  0.16764706373214722)
(X_168  0.5754902362823486)
(X_169  0.6186274886131287)
(X_170  0.5382353067398071)
(X_171  0.6225490570068359)
(X_172  0.5990196466445923)
(X_173  0.5911765098571777)
(X_174  0.5754902362823486)
(X_175  0.45196080207824707)
(X_176  0.48137256503105164)
(X_177  0.43039217591285706)
(X_178  0.3637255132198334)
(X_179  0.3245098292827606)
(X_180  0.3245098292827606)
(X_181  0.35196080803871155)
(X_182  0.3754902184009552)
(X_183  0.2911764681339264)
(X_184  0.36764708161354065)
(X_185  0.3284313976764679)
(X_186  0.2696078419685364)
(X_187  0.2186274528503418)
(X_188  0.09117648005485535)
(X_189  0.08725491166114807)
(X_190  0.09509804844856262)
(X_191  0.19901961088180542)
(X_192  0.19509804248809814)
(X_193  0.19509804248809814)
(X_194  0.19509804248809814)
(X_195  0.19509804248809814)
(X_196  0.44019606709480286)
(X_197  0.5245097875595093)
(X_198  0.5166666507720947)
(X_199  0.4166666567325592)
(X_200  0.39313724637031555)
(X_201  0.46176472306251526)
(X_202  0.46176472306251526)
(X_203  0.4852941334247589)
(X_204  0.36176469922065735)
(X_205  0.45000001788139343)
(X_206  0.43431374430656433)
(X_207  0.4264706075191498)
(X_208  0.32647058367729187)
(X_209  0.33039215207099915)
(X_210  0.3343137204647064)
(X_211  0.3343137204647064)
(X_212  0.4735294282436371)
(X_213  0.48137256503105164)
(X_214  0.4852941334247589)
(X_215  0.4852941334247589)
(X_216  0.46568629145622253)
(X_217  0.32647058367729187)
(X_218  0.3754902184009552)
(X_219  0.3401961028575897)
(X_220  0.3715686500072479)
(X_221  0.27156862616539)
(X_222  0.2754901945590973)
(X_223  0.38333335518836975)
(X_224  0.3499999940395355)
(X_225  0.36176469922065735)
(X_226  0.3696078360080719)
(X_227  0.39313724637031555)
(X_228  0.4049019515514374)
(X_229  0.3656862676143646)
(X_230  0.36176469922065735)
(X_231  0.42843136191368103)
(X_232  0.4539215862751007)
(X_233  0.34607842564582825)
(X_234  0.27941176295280457)
(X_235  0.18529412150382996)
(X_236  0.18137255311012268)
(X_237  0.24803923070430756)
(X_238  0.27156862616539)
(X_239  0.240196093916893)
(X_240  0.27156862616539)
(X_241  0.3715686500072479)
(X_242  0.41862747073173523)
(X_243  0.4852941334247589)
(X_244  0.49313727021217346)
(X_245  0.46176472306251526)
(X_246  0.48137256503105164)
(X_247  0.5401960611343384)
(X_248  0.39313724637031555)
(X_249  0.3735294044017792)
(X_250  0.34607842564582825)
(X_251  0.43039217591285706)
(X_252  0.3382352888584137)
(X_253  0.44019606709480286)
(X_254  0.5421568751335144)
(X_255  0.7049019932746887)
(X_256  0.7362745404243469)
(X_257  0.7049019932746887)
(X_258  0.6500000357627869)
(X_259  0.6264706254005432)
(X_260  0.4598039388656616)
(X_261  0.44411763548851013)
(X_262  0.3696078360080719)
(X_263  0.2872548997402191)
(X_264  0.3950980603694916)
(X_265  0.48137256503105164)
(X_266  0.5245097875595093)
(X_267  0.5049019455909729)
(X_268  0.4892157018184662)
(X_269  0.4264706075191498)
(X_270  0.3480392396450043)
(X_271  0.33235296607017517)
(X_272  0.3794117867946625)
(X_273  0.43039217591285706)
(X_274  0.3186274468898773)
(X_275  0.3794117867946625)
(X_276  0.41862747073173523)
(X_277  0.3029411733150482)
(X_278  0.28333333134651184)
(X_279  0.26372548937797546)
(X_280  0.5382353067398071)
(X_281  0.6735294461250305)
(X_282  0.5617647171020508)
(X_283  0.5147058963775635)
(X_284  0.5186274647712708)
(X_285  0.6774510145187378)
(X_286  0.7205882668495178)
(X_287  0.7205882668495178)
(X_288  0.593137264251709)
(X_289  0.6009804010391235)
(X_290  0.5696078538894653)
(X_291  0.522549033164978)
(X_292  0.522549033164978)
(X_293  0.5460784435272217)
(X_294  0.5186274647712708)
(X_295  0.4637255072593689)
(X_296  0.5754902362823486)
(X_297  0.48725491762161255)
(X_298  0.41274508833885193)
(X_299  0.27941176295280457)
(X_300  0.33627453446388245)
(X_301  0.387254923582077)
(X_302  0.41470590233802795)
(X_303  0.2872548997402191)
(X_304  0.240196093916893)
(X_305  0.23627452552318573)
(X_306  0.22843138873577118)
(X_307  0.23235295712947845)
(X_308  0.6303921937942505)
(X_309  0.6068627834320068)
(X_310  0.5598039627075195)
(X_311  0.39313724637031555)
(X_312  0.3499999940395355)
(X_313  0.3813725411891937)
(X_314  0.42450979351997375)
(X_315  0.42450979351997375)
(X_316  0.41274508833885193)
(X_317  0.5480391979217529)
(X_318  0.5833333730697632)
(X_319  0.6186274886131287)
(X_320  0.6578431725502014)
(X_321  0.5696078538894653)
(X_322  0.5264706015586853)
(X_323  0.4637255072593689)
(X_324  0.3892156779766083)
(X_325  0.479411780834198)
(X_326  0.4950980544090271)
(X_327  0.3892156779766083)
(X_328  0.39901962876319885)
(X_329  0.41470590233802795)
(X_330  0.46176472306251526)
(X_331  0.37745097279548645)
(X_332  0.44019606709480286)
(X_333  0.4323529303073883)
(X_334  0.42843136191368103)
(X_335  0.42843136191368103)
(X_336  0.4009803831577301)
(X_337  0.43431374430656433)
(X_338  0.43039217591285706)
(X_339  0.43039217591285706)
(X_340  0.3754902184009552)
(X_341  0.3637255132198334)
(X_342  0.29901960492134094)
(X_343  0.29901960492134094)
(X_344  0.4068627655506134)
(X_345  0.41470590233802795)
(X_346  0.34215685725212097)
(X_347  0.39313724637031555)
(X_348  0.4480392038822174)
(X_349  0.4754902124404907)
(X_350  0.45196080207824707)
(X_351  0.5166666507720947)
(X_352  0.5009803771972656)
(X_353  0.5127450823783875)
(X_354  0.5401960611343384)
(X_355  0.5794118046760559)
(X_356  0.6147059202194214)
(X_357  0.6264706254005432)
(X_358  0.6147059202194214)
(X_359  0.595098078250885)
(X_360  0.44019606709480286)
(X_361  0.4205882251262665)
(X_362  0.3970588147640228)
(X_363  0.3813725411891937)
(X_364  0.3696078360080719)
(X_365  0.2558823525905609)
(X_366  0.3401961028575897)
(X_367  0.3598039448261261)
(X_368  0.3088235557079315)
(X_369  0.3245098292827606)
(X_370  0.3068627417087555)
(X_371  0.32647058367729187)
(X_372  0.3029411733150482)
(X_373  0.29901960492134094)
(X_374  0.3225490152835846)
(X_375  0.48137256503105164)
(X_376  0.4205882251262665)
(X_377  0.4009803831577301)
(X_378  0.34607842564582825)
(X_379  0.29901960492134094)
(X_380  0.387254923582077)
(X_381  0.33235296607017517)
(X_382  0.33235296607017517)
(X_383  0.32647058367729187)
(X_384  0.4009803831577301)
(X_385  0.39313724637031555)
(X_386  0.4539215862751007)
(X_387  0.43431374430656433)
(X_388  0.43431374430656433)
(X_389  0.41470590233802795)
(X_390  0.387254923582077)
(X_391  0.3715686500072479)
(X_392  0.36764708161354065)
(X_393  0.2970588207244873)
(X_394  0.33235296607017517)
(X_395  0.3598039448261261)
(X_396  0.30098041892051697)
(X_397  0.3245098292827606)
(X_398  0.3715686500072479)
(X_399  0.2245098203420639)
(X_400  0.25784313678741455)
(X_401  0.2617647051811218)
(X_402  0.3127451241016388)
(X_403  0.40294119715690613)
(X_404  0.457843154668808)
(X_405  0.32647058367729187)
(X_406  0.2558823525905609)
(X_407  0.20490197837352753)
(X_408  0.22058825194835663)
(X_409  0.18921568989753723)
(X_410  0.29313725233078003)
(X_411  0.3401961028575897)
(X_412  0.3558823764324188)
(X_413  0.32058826088905334)
(X_414  0.30490198731422424)
(X_415  0.32058826088905334)
(X_416  0.18529412150382996)
(X_417  0.17352941632270813)
(X_418  0.15784314274787903)
(X_419  0.15392157435417175)
(X_420  0.2245098203420639)
(X_421  0.16960784792900085)
(X_422  0.1931372582912445)
(X_423  0.1774509847164154)
(X_424  0.11862745881080627)
(X_425  0.1931372582912445)
(X_426  0.26764705777168274)
(X_427  0.2852941155433655)
(X_428  0.20490197837352753)
(X_429  0.16568627953529358)
(X_430  0.1617647111415863)
(X_431  0.21274511516094208)
(X_432  0.24411766231060028)
(X_433  0.3127451241016388)
(X_434  0.2656862735748291)
(X_435  0.13823530077934265)
(X_436  0.24215686321258545)
(X_437  0.22647058963775635)
(X_438  0.2343137264251709)
(X_439  0.2617647051811218)
(X_440  0.2774509787559509)
(X_441  0.2656862735748291)
(X_442  0.14215686917304993)
(X_443  0.13823530077934265)
(X_444  0.12647059559822083)
(X_445  0.114705890417099)
(X_446  0.10686275362968445)
(X_447  0.19901961088180542)
(X_448  0.2343137264251709)
(X_449  0.2343137264251709)
(X_450  0.22647058963775635)
(X_451  0.22254902124404907)
(X_452  0.22254902124404907)
(X_453  0.22254902124404907)
(X_454  0.22254902124404907)
(X_455  0.22254902124404907)
(X_456  0.24215686321258545)
(X_457  0.24607843160629272)
(X_458  0.2539215683937073)
(X_459  0.15392157435417175)
(X_460  0.24607843160629272)
(X_461  0.2343137264251709)
(X_462  0.2186274528503418)
(X_463  0.21078431606292725)
(X_464  0.08725491166114807)
(X_465  0.0833333432674408)
(X_466  0.18333333730697632)
(X_467  0.19117647409439087)
(X_468  0.2029411792755127)
(X_469  0.21078431606292725)
(X_470  0.21078431606292725)
(X_471  0.21078431606292725)
(X_472  0.15980392694473267)
(X_473  0.15980392694473267)
(X_474  0.15980392694473267)
(X_475  0.15980392694473267)
(X_476  0.11078432202339172)
(X_477  0.11078432202339172)
(X_478  0.20686274766921997)
(X_479  0.2029411792755127)
(X_480  0.2029411792755127)
(X_481  0.10294118523597717)
(X_482  0.10686275362968445)
(X_483  0.10686275362968445)
(X_484  0.22647058963775635)
(X_485  0.23039215803146362)
(X_486  0.1303921639919281)
(X_487  0.12647059559822083)
(X_488  0.114705890417099)
(X_489  0.0990196168422699)
(X_490  0.07941177487373352)
(X_491  0.0676470622420311)
(X_492  0.05980392172932625)
(X_493  0.05588235333561897)
(X_494  0.1558823585510254)
(X_495  0.16372549533843994)
(X_496  0.17549020051956177)
(X_497  0.18333333730697632)
(X_498  0.18333333730697632)
(X_499  0.17941176891326904)
(X_500  0.05588235333561897)
(X_501  0.05588235333561897)
(X_502  0.05588235333561897)
(X_503  0.05588235333561897)
(X_504  0.07941177487373352)
(X_505  0.07941177487373352)
(X_506  0.07941177487373352)
(X_507  0.07549020648002625)
(X_508  0.07941177487373352)
(X_509  0.07941177487373352)
(X_510  0.0833333432674408)
(X_511  0.08725491166114807)
(X_512  0.09509804844856262)
(X_513  0.0990196168422699)
(X_514  0.0990196168422699)
(X_515  0.09509804844856262)
(X_516  0.08725491166114807)
(X_517  0.07156863063573837)
(X_518  0.05588235333561897)
(X_519  0.04411764815449715)
(X_520  0.0519607849419117)
(X_521  0.04803921654820442)
(X_522  0.04803921654820442)
(X_523  0.05588235333561897)
(X_524  0.06372549384832382)
(X_525  0.07156863063573837)
(X_526  0.07156863063573837)
(X_527  0.16372549533843994)
(X_528  0.0519607849419117)
(X_529  0.0519607849419117)
(X_530  0.0519607849419117)
(X_531  0.0519607849419117)
(X_532  0.1558823585510254)
(X_533  0.1558823585510254)
(X_534  0.1558823585510254)
(X_535  0.1558823585510254)
(X_536  0.1558823585510254)
(X_537  0.06372549384832382)
(X_538  0.0676470622420311)
(X_539  0.0676470622420311)
(X_540  0.06372549384832382)
(X_541  0.0676470622420311)
(X_542  0.1715686321258545)
(X_543  0.07549020648002625)
(X_544  0.07156863063573837)
(X_545  0.06372549384832382)
(X_546  0.05588235333561897)
(X_547  0.0519607849419117)
(X_548  0.14803922176361084)
(X_549  0.14411765336990356)
(X_550  0.1401960849761963)
(X_551  0.14411765336990356)
(X_552  0.1558823585510254)
(X_553  0.15980392694473267)
(X_554  0.1558823585510254)
(X_555  0.0519607849419117)
(X_556  0.04019607976078987)
(X_557  0.04019607976078987)
(X_558  0.04019607976078987)
(X_559  0.1401960849761963)
(X_560  0.14411765336990356)
(X_561  0.04411764815449715)
(X_562  0.14411765336990356)
(X_563  0.14411765336990356)
(X_564  0.14803922176361084)
(X_565  0.15196079015731812)
(X_566  0.1558823585510254)
(X_567  0.15980392694473267)
(X_568  0.04803921654820442)
(X_569  0.0519607849419117)
(X_570  0.05588235333561897)
(X_571  0.05588235333561897)
(X_572  0.05588235333561897)
(X_573  0.0519607849419117)
(X_574  0.04803921654820442)
(X_575  0.04411764815449715)
(X_576  0.03235294297337532)
(X_577  0.02450980618596077)
(X_578  0.12058823555707932)
(X_579  0.12450980395078659)
(X_580  0.13235294818878174)
(X_581  0.136274516582489)
(X_582  0.13235294818878174)
(X_583  0.12450980395078659)
(X_584  0.13235294818878174)
(X_585  0.03235294297337532)
(X_586  0.03235294297337532)
(X_587  0.03235294297337532)
(X_588  0.04411764815449715)
(X_589  0.04411764815449715)
(X_590  0.04019607976078987)
(X_591  0.04019607976078987)
(X_592  0.04019607976078987)
(X_593  0.14411765336990356)
(X_594  0.14803922176361084)
(X_595  0.14803922176361084)
(X_596  0.14411765336990356)
(X_597  0.14411765336990356)
(X_598  0.04411764815449715)
(X_599  0.04019607976078987)
(X_600  0.036274511367082596)
(X_601  0.028431374579668045)
(X_602  0.020588237792253494)
(X_603  0.01666666939854622)
(X_604  0.036274511367082596)
(X_605  0.028431374579668045)
(X_606  0.12450980395078659)
(X_607  0.12450980395078659)
(X_608  0.13235294818878174)
(X_609  0.13235294818878174)
(X_610  0.12843137979507446)
(X_611  0.12058823555707932)
(X_612  0.020588237792253494)
(X_613  0.020588237792253494)
(X_614  0.020588237792253494)
(X_615  0.12058823555707932)
(X_616  0.14411765336990356)
(X_617  0.04411764815449715)
(X_618  0.04019607976078987)
(X_619  0.036274511367082596)
(X_620  0.036274511367082596)
(X_621  0.136274516582489)
(X_622  0.1401960849761963)
(X_623  0.1401960849761963)
(X_624  0.136274516582489)
(X_625  0.136274516582489)
(X_626  0.136274516582489)
(X_627  0.13235294818878174)
(X_628  0.028431374579668045)
(X_629  0.02450980618596077)
(X_630  0.12058823555707932)
(X_631  0.01666666939854622)
(X_632  0.14411765336990356)
(X_633  0.136274516582489)
(X_634  0.03235294297337532)
(X_635  0.03235294297337532)
(X_636  0.036274511367082596)
(X_637  0.136274516582489)
(X_638  0.12843137979507446)
(X_639  0.12450980395078659)
(X_640  0.11666666716337204)
(X_641  0.11666666716337204)
(X_642  0.11666666716337204)
(X_643  0.11666666716337204)
(X_644  0.04411764815449715)
(X_645  0.04411764815449715)
(X_646  0.04019607976078987)
(X_647  0.136274516582489)
(X_648  0.13235294818878174)
(X_649  0.13235294818878174)
(X_650  0.13235294818878174)
(X_651  0.13235294818878174)
(X_652  0.12450980395078659)
(X_653  0.028431374579668045)
(X_654  0.028431374579668045)
(X_655  0.03235294297337532)
(X_656  0.03235294297337532)
(X_657  0.036274511367082596)
(X_658  0.036274511367082596)
(X_659  0.04019607976078987)
(X_660  0.12843137979507446)
(X_661  0.12058823555707932)
(X_662  0.11274509876966476)
(X_663  0.012745101936161518)
(X_664  0.01666666939854622)
(X_665  0.01666666939854622)
(X_666  0.008823529817163944)
(X_667  0.004901961423456669)
(X_668  0.012745101936161518)
(X_669  0.012745101936161518)
(X_670  0.012745101936161518)
(X_671  0.012745101936161518)
(X_672  0.1401960849761963)
(X_673  0.03235294297337532)
(X_674  0.02450980618596077)
(X_675  0.02450980618596077)
(X_676  0.12843137979507446)
(X_677  0.13235294818878174)
(X_678  0.12843137979507446)
(X_679  0.12450980395078659)
(X_680  0.12058823555707932)
(X_681  0.12843137979507446)
(X_682  0.10882353037595749)
(X_683  0.10490196198225021)
(X_684  0.12450980395078659)
(X_685  0.10490196198225021)
(X_686  -0.010784312151372433)
(X_687  0.028431374579668045)
(X_688  0.09705882519483566)
(X_689  0.09705882519483566)
(X_690  0.10882353037595749)
(X_691  0.12843137979507446)
(X_692  0.13235294818878174)
(X_693  0.12450980395078659)
(X_694  0.012745101936161518)
(X_695  0.008823529817163944)
(X_696  0.012745101936161518)
(X_697  0.12843137979507446)
(X_698  0.136274516582489)
(X_699  0.12450980395078659)
(X_700  0.13235294818878174)
(X_701  0.02450980618596077)
(X_702  0.020588237792253494)
(X_703  0.020588237792253494)
(X_704  0.028431374579668045)
(X_705  0.028431374579668045)
(X_706  0.028431374579668045)
(X_707  0.02450980618596077)
(X_708  -0.010784312151372433)
(X_709  0.008823529817163944)
(X_710  0.008823529817163944)
(X_711  0.12450980395078659)
(X_712  0.15196079015731812)
(X_713  0.136274516582489)
(X_714  0.020588237792253494)
(X_715  0.0519607849419117)
(X_716  0.0519607849419117)
(X_717  0.04019607976078987)
(X_718  0.020588237792253494)
(X_719  0.008823529817163944)
(X_720  0.0009803927969187498)
(X_721  0.10490196198225021)
(X_722  0.02450980618596077)
(X_723  0.14411765336990356)
(X_724  0.15980392694473267)
(X_725  0.20686274766921997)
(X_726  0.2696078419685364)
(X_727  0.3127451241016388)
(X_728  0.12450980395078659)
(X_729  0.020588237792253494)
(X_730  0.11666666716337204)
(X_731  0.11666666716337204)
(X_732  0.12450980395078659)
(X_733  0.12843137979507446)
(X_734  0.12450980395078659)
(X_735  0.11666666716337204)
(X_736  0.13235294818878174)
(X_737  0.136274516582489)
(X_738  0.10490196198225021)
(X_739  0.08921568840742111)
(X_740  0.09705882519483566)
(X_741  0.07745098322629929)
(X_742  0.07352941483259201)
(X_743  0.11666666716337204)
(X_744  0.0009803927969187498)
(X_745  0.04803921654820442)
(X_746  0.12647059559822083)
(X_747  0.2088235467672348)
(X_748  0.3068627417087555)
(X_749  0.520588219165802)
(X_750  0.5303921699523926)
(X_751  0.6009804010391235)
(X_752  0.8539215922355652)
(X_753  0.8970588445663452)
(X_754  0.9598039388656616)
(X_755  1.0029411315917969)
(X_756  0.11666666716337204)
(X_757  0.012745101936161518)
(X_758  0.008823529817163944)
(X_759  0.01666666939854622)
(X_760  0.020588237792253494)
(X_761  0.12450980395078659)
(X_762  0.12058823555707932)
(X_763  0.11274509876966476)
(X_764  0.09313725680112839)
(X_765  0.10490196198225021)
(X_766  -0.0029411755967885256)
(X_767  0.136274516582489)
(X_768  0.24215686321258545)
(X_769  0.24803923070430756)
(X_770  0.3696078360080719)
(X_771  0.4911764860153198)
(X_772  0.6637254953384399)
(X_773  0.7382352948188782)
(X_774  0.820588231086731)
(X_775  0.8676470518112183)
(X_776  0.8911764621734619)
(X_777  0.9225490093231201)
(X_778  0.949999988079071)
(X_779  0.949999988079071)
(X_780  0.9264705777168274)
(X_781  0.9382352828979492)
(X_782  0.9460784196853638)
(X_783  0.9460784196853638)
(Y_0 -32.144161224365234)
(Y_1 47.04928207397461)
(Y_2 -26.98543357849121)
(Y_3 15.107545852661133))