((X_0  1.0499999523162842)
(X_1  0.949999988079071)
(X_2  0.949999988079071)
(X_3  0.949999988079071)
(X_4  0.949999988079071)
(X_5  0.949999988079071)
(X_6  0.949999988079071)
(X_7  0.949999988079071)
(X_8  0.949999988079071)
(X_9  1.0499999523162842)
(X_10  1.0499999523162842)
(X_11  1.0499999523162842)
(X_12  0.9460784196853638)
(X_13  1.0460784435272217)
(X_14  1.0460784435272217)
(X_15  0.9460784196853638)
(X_16  0.9460784196853638)
(X_17  0.9460784196853638)
(X_18  0.9460784196853638)
(X_19  0.9460784196853638)
(X_20  1.0460784435272217)
(X_21  1.0460784435272217)
(X_22  1.0460784435272217)
(X_23  1.0460784435272217)
(X_24  1.0499999523162842)
(X_25  1.0499999523162842)
(X_26  0.949999988079071)
(X_27  0.949999988079071)
(X_28  0.9911764860153198)
(X_29  0.9911764860153198)
(X_30  0.8911764621734619)
(X_31  0.8872548937797546)
(X_32  0.8872548937797546)
(X_33  0.8872548937797546)
(X_34  0.8872548937797546)
(X_35  0.9872549176216125)
(X_36  0.9911764860153198)
(X_37  0.9911764860153198)
(X_38  0.8911764621734619)
(X_39  0.8950980305671692)
(X_40  0.8950980305671692)
(X_41  0.9990196228027344)
(X_42  1.0029411315917969)
(X_43  0.9029411673545837)
(X_44  1.0147058963775635)
(X_45  1.0147058963775635)
(X_46  0.9147058725357056)
(X_47  0.9147058725357056)
(X_48  0.9147058725357056)
(X_49  0.9147058725357056)
(X_50  0.9147058725357056)
(X_51  0.9147058725357056)
(X_52  1.006862759590149)
(X_53  1.006862759590149)
(X_54  0.906862735748291)
(X_55  1.006862759590149)
(X_56  0.344117671251297)
(X_57  0.24411766231060028)
(X_58  0.240196093916893)
(X_59  0.240196093916893)
(X_60  0.23627452552318573)
(X_61  0.23235295712947845)
(X_62  0.23235295712947845)
(X_63  0.23235295712947845)
(X_64  0.23235295712947845)
(X_65  0.23627452552318573)
(X_66  0.33627453446388245)
(X_67  0.344117671251297)
(X_68  0.3480392396450043)
(X_69  0.35196080803871155)
(X_70  0.3558823764324188)
(X_71  0.2558823525905609)
(X_72  0.26764705777168274)
(X_73  0.26764705777168274)
(X_74  0.26764705777168274)
(X_75  0.26764705777168274)
(X_76  0.36764708161354065)
(X_77  0.36764708161354065)
(X_78  0.26764705777168274)
(X_79  0.36764708161354065)
(X_80  0.3598039448261261)
(X_81  0.3637255132198334)
(X_82  0.3637255132198334)
(X_83  0.3637255132198334)
(X_84  0.15980392694473267)
(X_85  0.15980392694473267)
(X_86  0.1558823585510254)
(X_87  0.15196079015731812)
(X_88  0.04803921654820442)
(X_89  0.04411764815449715)
(X_90  0.04411764815449715)
(X_91  0.04019607976078987)
(X_92  0.1401960849761963)
(X_93  0.04019607976078987)
(X_94  0.04019607976078987)
(X_95  0.14411765336990356)
(X_96  0.14803922176361084)
(X_97  0.14803922176361084)
(X_98  0.15196079015731812)
(X_99  0.15196079015731812)
(X_100  0.15196079015731812)
(X_101  0.15196079015731812)
(X_102  0.0519607849419117)
(X_103  0.0519607849419117)
(X_104  0.0519607849419117)
(X_105  0.0519607849419117)
(X_106  0.0519607849419117)
(X_107  0.0519607849419117)
(X_108  0.04019607976078987)
(X_109  0.04019607976078987)
(X_110  0.04411764815449715)
(X_111  0.14803922176361084)
(X_112  0.09117648005485535)
(X_113  0.19117647409439087)
(X_114  0.08725491166114807)
(X_115  0.0833333432674408)
(X_116  0.07941177487373352)
(X_117  0.07549020648002625)
(X_118  0.07156863063573837)
(X_119  0.07156863063573837)
(X_120  0.07549020648002625)
(X_121  0.07549020648002625)
(X_122  0.07156863063573837)
(X_123  0.07156863063573837)
(X_124  0.16764706373214722)
(X_125  0.16764706373214722)
(X_126  0.16372549533843994)
(X_127  0.16372549533843994)
(X_128  0.16372549533843994)
(X_129  0.16372549533843994)
(X_130  0.16372549533843994)
(X_131  0.16372549533843994)
(X_132  0.16372549533843994)
(X_133  0.16372549533843994)
(X_134  0.16372549533843994)
(X_135  0.16372549533843994)
(X_136  0.14411765336990356)
(X_137  0.04411764815449715)
(X_138  0.04803921654820442)
(X_139  0.14803922176361084)
(X_140  0.1558823585510254)
(X_141  0.1558823585510254)
(X_142  0.1558823585510254)
(X_143  0.0519607849419117)
(X_144  0.04803921654820442)
(X_145  0.04803921654820442)
(X_146  0.04411764815449715)
(X_147  0.14411765336990356)
(X_148  0.15980392694473267)
(X_149  0.15980392694473267)
(X_150  0.1558823585510254)
(X_151  0.0519607849419117)
(X_152  0.14411765336990356)
(X_153  0.1401960849761963)
(X_154  0.1401960849761963)
(X_155  0.136274516582489)
(X_156  0.04411764815449715)
(X_157  0.04411764815449715)
(X_158  0.14411765336990356)
(X_159  0.14411765336990356)
(X_160  0.14411765336990356)
(X_161  0.04411764815449715)
(X_162  0.04411764815449715)
(X_163  0.14411765336990356)
(X_164  0.14411765336990356)
(X_165  0.04411764815449715)
(X_166  0.04411764815449715)
(X_167  0.14411765336990356)
(X_168  0.05980392172932625)
(X_169  0.15980392694473267)
(X_170  0.05588235333561897)
(X_171  0.1558823585510254)
(X_172  0.1558823585510254)
(X_173  0.1558823585510254)
(X_174  0.05588235333561897)
(X_175  0.05588235333561897)
(X_176  0.16764706373214722)
(X_177  0.16764706373214722)
(X_178  0.16764706373214722)
(X_179  0.16372549533843994)
(X_180  0.15980392694473267)
(X_181  0.15980392694473267)
(X_182  0.05588235333561897)
(X_183  0.05588235333561897)
(X_184  0.16372549533843994)
(X_185  0.16372549533843994)
(X_186  0.16372549533843994)
(X_187  0.16372549533843994)
(X_188  0.16372549533843994)
(X_189  0.06372549384832382)
(X_190  0.06372549384832382)
(X_191  0.16372549533843994)
(X_192  0.17549020051956177)
(X_193  0.17549020051956177)
(X_194  0.07156863063573837)
(X_195  0.0676470622420311)
(X_196  0.04019607976078987)
(X_197  0.1401960849761963)
(X_198  0.04019607976078987)
(X_199  0.04411764815449715)
(X_200  0.04411764815449715)
(X_201  0.04411764815449715)
(X_202  0.04411764815449715)
(X_203  0.04411764815449715)
(X_204  0.04411764815449715)
(X_205  0.14411765336990356)
(X_206  0.14803922176361084)
(X_207  0.14803922176361084)
(X_208  0.04803921654820442)
(X_209  0.04803921654820442)
(X_210  0.04803921654820442)
(X_211  0.14803922176361084)
(X_212  0.14803922176361084)
(X_213  0.14803922176361084)
(X_214  0.14803922176361084)
(X_215  0.14803922176361084)
(X_216  0.14803922176361084)
(X_217  0.14803922176361084)
(X_218  0.14803922176361084)
(X_219  0.14803922176361084)
(X_220  0.136274516582489)
(X_221  0.136274516582489)
(X_222  0.03235294297337532)
(X_223  0.12843137979507446)
(X_224  0.04019607976078987)
(X_225  0.04803921654820442)
(X_226  0.15196079015731812)
(X_227  0.14411765336990356)
(X_228  0.028431374579668045)
(X_229  0.02450980618596077)
(X_230  0.028431374579668045)
(X_231  0.04019607976078987)
(X_232  0.13235294818878174)
(X_233  0.136274516582489)
(X_234  0.1558823585510254)
(X_235  0.17941176891326904)
(X_236  0.0676470622420311)
(X_237  0.04411764815449715)
(X_238  0.04411764815449715)
(X_239  0.07156863063573837)
(X_240  0.05588235333561897)
(X_241  0.14411765336990356)
(X_242  0.13235294818878174)
(X_243  0.13235294818878174)
(X_244  0.14411765336990356)
(X_245  0.15196079015731812)
(X_246  0.14411765336990356)
(X_247  0.03235294297337532)
(X_248  0.028431374579668045)
(X_249  0.04803921654820442)
(X_250  0.05980392172932625)
(X_251  0.15980392694473267)
(X_252  0.05588235333561897)
(X_253  0.0519607849419117)
(X_254  0.04411764815449715)
(X_255  0.13235294818878174)
(X_256  0.12058823555707932)
(X_257  0.12058823555707932)
(X_258  0.12843137979507446)
(X_259  0.136274516582489)
(X_260  0.0833333432674408)
(X_261  0.06372549384832382)
(X_262  0.15980392694473267)
(X_263  0.17549020051956177)
(X_264  0.0833333432674408)
(X_265  0.07549020648002625)
(X_266  0.16764706373214722)
(X_267  0.17549020051956177)
(X_268  0.15980392694473267)
(X_269  0.15196079015731812)
(X_270  0.1401960849761963)
(X_271  0.04019607976078987)
(X_272  0.04411764815449715)
(X_273  0.15196079015731812)
(X_274  0.15196079015731812)
(X_275  0.0519607849419117)
(X_276  0.04019607976078987)
(X_277  0.036274511367082596)
(X_278  0.036274511367082596)
(X_279  0.04019607976078987)
(X_280  0.17549020051956177)
(X_281  0.1715686321258545)
(X_282  0.0676470622420311)
(X_283  0.07549020648002625)
(X_284  0.0990196168422699)
(X_285  0.12254902720451355)
(X_286  0.24215686321258545)
(X_287  0.2539215683937073)
(X_288  0.21666668355464935)
(X_289  0.22843138873577118)
(X_290  0.2558823525905609)
(X_291  0.2872548997402191)
(X_292  0.29509803652763367)
(X_293  0.27156862616539)
(X_294  0.35196080803871155)
(X_295  0.344117671251297)
(X_296  0.2813725471496582)
(X_297  0.16960784792900085)
(X_298  0.1460784375667572)
(X_299  0.11078432202339172)
(X_300  0.17941176891326904)
(X_301  0.15196079015731812)
(X_302  0.1401960849761963)
(X_303  0.036274511367082596)
(X_304  0.0833333432674408)
(X_305  0.05588235333561897)
(X_306  0.03235294297337532)
(X_307  0.02450980618596077)
(X_308  0.3911764919757843)
(X_309  0.38333335518836975)
(X_310  0.28333333134651184)
(X_311  0.29901960492134094)
(X_312  0.32647058367729187)
(X_313  0.3499999940395355)
(X_314  0.3578431308269501)
(X_315  0.3539215624332428)
(X_316  0.31078431010246277)
(X_317  0.3382352888584137)
(X_318  0.36176469922065735)
(X_319  0.4696078598499298)
(X_320  0.3499999940395355)
(X_321  0.3343137204647064)
(X_322  0.3343137204647064)
(X_323  0.3499999940395355)
(X_324  0.3382352888584137)
(X_325  0.34607842564582825)
(X_326  0.3499999940395355)
(X_327  0.34215685725212097)
(X_328  0.4264706075191498)
(X_329  0.41470590233802795)
(X_330  0.3186274468898773)
(X_331  0.4264706075191498)
(X_332  0.27156862616539)
(X_333  0.25196078419685364)
(X_334  0.22843138873577118)
(X_335  0.21666668355464935)
(X_336  0.3186274468898773)
(X_337  0.41470590233802795)
(X_338  0.4107843339443207)
(X_339  0.3186274468898773)
(X_340  0.43039217591285706)
(X_341  0.4225490391254425)
(X_342  0.40294119715690613)
(X_343  0.2872548997402191)
(X_344  0.3029411733150482)
(X_345  0.2754901945590973)
(X_346  0.33627453446388245)
(X_347  0.31666669249534607)
(X_348  0.22843138873577118)
(X_349  0.2558823525905609)
(X_350  0.2754901945590973)
(X_351  0.27941176295280457)
(X_352  0.38333335518836975)
(X_353  0.40294119715690613)
(X_354  0.41862747073173523)
(X_355  0.3225490152835846)
(X_356  0.41470590233802795)
(X_357  0.4107843339443207)
(X_358  0.41862747073173523)
(X_359  0.4264706075191498)
(X_360  0.46176472306251526)
(X_361  0.4696078598499298)
(X_362  0.37745097279548645)
(X_363  0.37745097279548645)
(X_364  0.23235295712947845)
(X_365  0.344117671251297)
(X_366  0.36764708161354065)
(X_367  0.2911764681339264)
(X_368  0.4107843339443207)
(X_369  0.4107843339443207)
(X_370  0.39901962876319885)
(X_371  0.2872548997402191)
(X_372  0.26372548937797546)
(X_373  0.24803923070430756)
(X_374  0.3401961028575897)
(X_375  0.38333335518836975)
(X_376  0.3578431308269501)
(X_377  0.4009803831577301)
(X_378  0.3696078360080719)
(X_379  0.31470587849617004)
(X_380  0.43039217591285706)
(X_381  0.43039217591285706)
(X_382  0.4264706075191498)
(X_383  0.41470590233802795)
(X_384  0.3029411733150482)
(X_385  0.2911764681339264)
(X_386  0.2911764681339264)
(X_387  0.2911764681339264)
(X_388  0.3950980603694916)
(X_389  0.4107843339443207)
(X_390  0.3225490152835846)
(X_391  0.31470587849617004)
(X_392  0.3088235557079315)
(X_393  0.3245098292827606)
(X_394  0.344117671251297)
(X_395  0.3558823764324188)
(X_396  0.3558823764324188)
(X_397  0.35196080803871155)
(X_398  0.344117671251297)
(X_399  0.24411766231060028)
(X_400  0.22058825194835663)
(X_401  0.2872548997402191)
(X_402  0.46568629145622253)
(X_403  0.5284313559532166)
(X_404  0.46764707565307617)
(X_405  0.479411780834198)
(X_406  0.45196080207824707)
(X_407  0.5088235139846802)
(X_408  0.3754902184009552)
(X_409  0.3637255132198334)
(X_410  0.35196080803871155)
(X_411  0.35196080803871155)
(X_412  0.3715686500072479)
(X_413  0.29901960492134094)
(X_414  0.32647058367729187)
(X_415  0.4421568810939789)
(X_416  0.3068627417087555)
(X_417  0.29901960492134094)
(X_418  0.28333333134651184)
(X_419  0.26764705777168274)
(X_420  0.5558823943138123)
(X_421  0.551960825920105)
(X_422  0.5284313559532166)
(X_423  0.3813725411891937)
(X_424  0.3186274468898773)
(X_425  0.2598039209842682)
(X_426  0.2245098203420639)
(X_427  0.3127451241016388)
(X_428  0.15392157435417175)
(X_429  0.2754901945590973)
(X_430  0.3735294044017792)
(X_431  0.3499999940395355)
(X_432  0.27941176295280457)
(X_433  0.3637255132198334)
(X_434  0.3186274468898773)
(X_435  0.37745097279548645)
(X_436  0.387254923582077)
(X_437  0.35196080803871155)
(X_438  0.30490198731422424)
(X_439  0.2852941155433655)
(X_440  0.30098041892051697)
(X_441  0.22843138873577118)
(X_442  0.2598039209842682)
(X_443  0.27156862616539)
(X_444  0.34215685725212097)
(X_445  0.31470587849617004)
(X_446  0.2872548997402191)
(X_447  0.2754901945590973)
(X_448  0.39901962876319885)
(X_449  0.31470587849617004)
(X_450  0.4264706075191498)
(X_451  0.4225490391254425)
(X_452  0.3186274468898773)
(X_453  0.32647058367729187)
(X_454  0.4539215862751007)
(X_455  0.47745099663734436)
(X_456  0.3186274468898773)
(X_457  0.3950980603694916)
(X_458  0.344117671251297)
(X_459  0.19705882668495178)
(X_460  0.29313725233078003)
(X_461  0.3088235557079315)
(X_462  0.28921568393707275)
(X_463  0.15000000596046448)
(X_464  0.2911764681339264)
(X_465  0.31078431010246277)
(X_466  0.34215685725212097)
(X_467  0.4735294282436371)
(X_468  0.4892157018184662)
(X_469  0.49313727021217346)
(X_470  0.4852941334247589)
(X_471  0.47745099663734436)
(X_472  0.5049019455909729)
(X_473  0.5088235139846802)
(X_474  0.520588219165802)
(X_475  0.5323529243469238)
(X_476  0.16960784792900085)
(X_477  0.18137255311012268)
(X_478  0.19705882668495178)
(X_479  0.19705882668495178)
(X_480  0.1931372582912445)
(X_481  0.20490197837352753)
(X_482  0.23235295712947845)
(X_483  0.2558823525905609)
(X_484  0.36764708161354065)
(X_485  0.3480392396450043)
(X_486  0.3088235557079315)
(X_487  0.1774509847164154)
(X_488  0.18137255311012268)
(X_489  0.19705882668495178)
(X_490  0.18137255311012268)
(X_491  0.1460784375667572)
(X_492  0.22058825194835663)
(X_493  0.21274511516094208)
(X_494  0.30490198731422424)
(X_495  0.30490198731422424)
(X_496  0.3245098292827606)
(X_497  0.3558823764324188)
(X_498  0.387254923582077)
(X_499  0.31078431010246277)
(X_500  0.38333335518836975)
(X_501  0.2754901945590973)
(X_502  0.26372548937797546)
(X_503  0.25196078419685364)
(X_504  0.07156863063573837)
(X_505  0.0833333432674408)
(X_506  0.19509804248809814)
(X_507  0.19901961088180542)
(X_508  0.2029411792755127)
(X_509  0.114705890417099)
(X_510  0.13823530077934265)
(X_511  0.15784314274787903)
(X_512  0.16960784792900085)
(X_513  0.15392157435417175)
(X_514  0.22647058963775635)
(X_515  0.11078432202339172)
(X_516  0.114705890417099)
(X_517  0.12647059559822083)
(X_518  0.11078432202339172)
(X_519  0.0833333432674408)
(X_520  0.12254902720451355)
(X_521  0.10294118523597717)
(X_522  0.07549020648002625)
(X_523  0.06372549384832382)
(X_524  0.07941177487373352)
(X_525  0.2186274528503418)
(X_526  0.2656862735748291)
(X_527  0.2970588207244873)
(X_528  0.27352941036224365)
(X_529  0.15392157435417175)
(X_530  0.12647059559822083)
(X_531  0.10294118523597717)
(X_532  0.14803922176361084)
(X_533  0.15980392694473267)
(X_534  0.16764706373214722)
(X_535  0.1715686321258545)
(X_536  0.1715686321258545)
(X_537  0.17941176891326904)
(X_538  0.09509804844856262)
(X_539  0.11078432202339172)
(X_540  0.0990196168422699)
(X_541  0.18333333730697632)
(X_542  0.16372549533843994)
(X_543  0.05588235333561897)
(X_544  0.05588235333561897)
(X_545  0.05588235333561897)
(X_546  0.136274516582489)
(X_547  0.01666666939854622)
(X_548  0.1558823585510254)
(X_549  0.04803921654820442)
(X_550  0.04411764815449715)
(X_551  0.04411764815449715)
(X_552  0.15196079015731812)
(X_553  0.16764706373214722)
(X_554  0.18333333730697632)
(X_555  0.09509804844856262)
(X_556  0.21078431606292725)
(X_557  0.09509804844856262)
(X_558  0.17549020051956177)
(X_559  0.15980392694473267)
(X_560  0.1401960849761963)
(X_561  0.04411764815449715)
(X_562  0.04803921654820442)
(X_563  0.04803921654820442)
(X_564  0.04803921654820442)
(X_565  0.04803921654820442)
(X_566  0.05588235333561897)
(X_567  0.06372549384832382)
(X_568  0.07156863063573837)
(X_569  0.05588235333561897)
(X_570  0.04411764815449715)
(X_571  0.04411764815449715)
(X_572  0.04803921654820442)
(X_573  0.04019607976078987)
(X_574  0.12450980395078659)
(X_575  0.01666666939854622)
(X_576  0.04019607976078987)
(X_577  0.04803921654820442)
(X_578  0.05588235333561897)
(X_579  0.16372549533843994)
(X_580  0.16372549533843994)
(X_581  0.1558823585510254)
(X_582  0.14803922176361084)
(X_583  0.1401960849761963)
(X_584  0.1558823585510254)
(X_585  0.05588235333561897)
(X_586  0.15196079015731812)
(X_587  0.15196079015731812)
(X_588  0.12843137979507446)
(X_589  0.028431374579668045)
(X_590  0.12843137979507446)
(X_591  0.028431374579668045)
(X_592  0.028431374579668045)
(X_593  0.02450980618596077)
(X_594  0.12450980395078659)
(X_595  0.12450980395078659)
(X_596  0.14411765336990356)
(X_597  0.028431374579668045)
(X_598  0.02450980618596077)
(X_599  0.036274511367082596)
(X_600  0.04411764815449715)
(X_601  0.036274511367082596)
(X_602  0.03235294297337532)
(X_603  0.04019607976078987)
(X_604  0.14803922176361084)
(X_605  0.14803922176361084)
(X_606  0.14803922176361084)
(X_607  0.14411765336990356)
(X_608  0.1401960849761963)
(X_609  0.136274516582489)
(X_610  0.12843137979507446)
(X_611  0.028431374579668045)
(X_612  0.02450980618596077)
(X_613  0.028431374579668045)
(X_614  0.136274516582489)
(X_615  0.14411765336990356)
(X_616  0.12058823555707932)
(X_617  0.11666666716337204)
(X_618  0.01666666939854622)
(X_619  0.020588237792253494)
(X_620  0.02450980618596077)
(X_621  0.12450980395078659)
(X_622  0.020588237792253494)
(X_623  0.01666666939854622)
(X_624  0.13235294818878174)
(X_625  0.012745101936161518)
(X_626  0.10490196198225021)
(X_627  0.020588237792253494)
(X_628  0.028431374579668045)
(X_629  0.01666666939854622)
(X_630  0.020588237792253494)
(X_631  0.036274511367082596)
(X_632  0.04019607976078987)
(X_633  0.036274511367082596)
(X_634  0.028431374579668045)
(X_635  0.020588237792253494)
(X_636  0.12058823555707932)
(X_637  0.12058823555707932)
(X_638  0.12450980395078659)
(X_639  0.028431374579668045)
(X_640  0.11666666716337204)
(X_641  0.12058823555707932)
(X_642  0.12843137979507446)
(X_643  0.136274516582489)
(X_644  0.10490196198225021)
(X_645  0.004901961423456669)
(X_646  0.10490196198225021)
(X_647  0.10882353037595749)
(X_648  0.11666666716337204)
(X_649  0.020588237792253494)
(X_650  0.11666666716337204)
(X_651  0.10882353037595749)
(X_652  0.14803922176361084)
(X_653  0.02450980618596077)
(X_654  0.012745101936161518)
(X_655  0.02450980618596077)
(X_656  0.020588237792253494)
(X_657  0.004901961423456669)
(X_658  0.008823529817163944)
(X_659  0.02450980618596077)
(X_660  0.12058823555707932)
(X_661  0.12058823555707932)
(X_662  0.12450980395078659)
(X_663  0.12450980395078659)
(X_664  0.12450980395078659)
(X_665  0.12450980395078659)
(X_666  0.12450980395078659)
(X_667  0.02450980618596077)
(X_668  0.004901961423456669)
(X_669  0.008823529817163944)
(X_670  0.11274509876966476)
(X_671  0.020588237792253494)
(X_672  0.10098039358854294)
(X_673  0.0009803927969187498)
(X_674  0.0009803927969187498)
(X_675  0.0009803927969187498)
(X_676  0.0009803927969187498)
(X_677  0.10098039358854294)
(X_678  0.10098039358854294)
(X_679  0.0009803927969187498)
(X_680  0.004901961423456669)
(X_681  0.10490196198225021)
(X_682  0.10490196198225021)
(X_683  0.10490196198225021)
(X_684  0.10490196198225021)
(X_685  0.004901961423456669)
(X_686  0.004901961423456669)
(X_687  0.004901961423456669)
(X_688  0.10490196198225021)
(X_689  0.004901961423456669)
(X_690  0.004901961423456669)
(X_691  0.0009803927969187498)
(X_692  0.10098039358854294)
(X_693  0.09705882519483566)
(X_694  -0.0029411755967885256)
(X_695  -0.0029411755967885256)
(X_696  0.10490196198225021)
(X_697  0.10490196198225021)
(X_698  0.10490196198225021)
(X_699  0.10882353037595749)
(X_700  0.10098039358854294)
(X_701  0.10098039358854294)
(X_702  0.10098039358854294)
(X_703  0.10098039358854294)
(X_704  0.0009803927969187498)
(X_705  0.0009803927969187498)
(X_706  0.0009803927969187498)
(X_707  0.0009803927969187498)
(X_708  0.004901961423456669)
(X_709  0.004901961423456669)
(X_710  0.10490196198225021)
(X_711  0.10490196198225021)
(X_712  0.10490196198225021)
(X_713  0.004901961423456669)
(X_714  0.004901961423456669)
(X_715  0.004901961423456669)
(X_716  0.004901961423456669)
(X_717  0.004901961423456669)
(X_718  0.004901961423456669)
(X_719  0.004901961423456669)
(X_720  0.10098039358854294)
(X_721  0.09705882519483566)
(X_722  0.09705882519483566)
(X_723  0.09705882519483566)
(X_724  0.10098039358854294)
(X_725  0.10098039358854294)
(X_726  0.10490196198225021)
(X_727  0.10490196198225021)
(X_728  0.10098039358854294)
(X_729  0.0009803927969187498)
(X_730  0.10098039358854294)
(X_731  0.10098039358854294)
(X_732  0.10098039358854294)
(X_733  0.10098039358854294)
(X_734  0.10098039358854294)
(X_735  0.10098039358854294)
(X_736  0.10490196198225021)
(X_737  0.10490196198225021)
(X_738  0.004901961423456669)
(X_739  0.004901961423456669)
(X_740  0.004901961423456669)
(X_741  0.10490196198225021)
(X_742  0.10490196198225021)
(X_743  0.10490196198225021)
(X_744  0.0009803927969187498)
(X_745  0.0009803927969187498)
(X_746  0.004901961423456669)
(X_747  0.004901961423456669)
(X_748  0.004901961423456669)
(X_749  0.0009803927969187498)
(X_750  -0.0029411755967885256)
(X_751  -0.006862743757665157)
(X_752  0.09705882519483566)
(X_753  0.09705882519483566)
(X_754  0.10098039358854294)
(X_755  0.10098039358854294)
(X_756  0.10098039358854294)
(X_757  0.0009803927969187498)
(X_758  0.0009803927969187498)
(X_759  0.10098039358854294)
(X_760  0.0009803927969187498)
(X_761  0.0009803927969187498)
(X_762  0.10098039358854294)
(X_763  0.10098039358854294)
(X_764  0.10098039358854294)
(X_765  0.10098039358854294)
(X_766  0.10098039358854294)
(X_767  0.10098039358854294)
(X_768  0.0009803927969187498)
(X_769  0.0009803927969187498)
(X_770  0.0009803927969187498)
(X_771  0.0009803927969187498)
(X_772  -0.0029411755967885256)
(X_773  0.0009803927969187498)
(X_774  0.004901961423456669)
(X_775  0.004901961423456669)
(X_776  0.10490196198225021)
(X_777  0.10098039358854294)
(X_778  0.09705882519483566)
(X_779  0.09313725680112839)
(X_780  -0.0029411755967885256)
(X_781  -0.0029411755967885256)
(X_782  -0.0029411755967885256)
(X_783  0.09705882519483566)
(Y_0 -23.3975830078125)
(Y_1 17.588666915893555)
(Y_2 -19.403776168823242)
(Y_3 25.37308120727539))