((X_0  1.0499999523162842)
(X_1  0.949999988079071)
(X_2  0.949999988079071)
(X_3  0.949999988079071)
(X_4  0.949999988079071)
(X_5  1.0499999523162842)
(X_6  0.949999988079071)
(X_7  0.949999988079071)
(X_8  1.0421568155288696)
(X_9  1.0499999523162842)
(X_10  1.0499999523162842)
(X_11  1.0499999523162842)
(X_12  0.9460784196853638)
(X_13  0.9382352828979492)
(X_14  1.0499999523162842)
(X_15  0.949999988079071)
(X_16  0.949999988079071)
(X_17  0.949999988079071)
(X_18  0.949999988079071)
(X_19  0.949999988079071)
(X_20  1.0499999523162842)
(X_21  1.0499999523162842)
(X_22  1.0499999523162842)
(X_23  0.949999988079071)
(X_24  1.0499999523162842)
(X_25  1.0499999523162842)
(X_26  1.0499999523162842)
(X_27  1.0499999523162842)
(X_28  1.0499999523162842)
(X_29  0.949999988079071)
(X_30  0.949999988079071)
(X_31  1.0499999523162842)
(X_32  0.949999988079071)
(X_33  1.0499999523162842)
(X_34  1.0499999523162842)
(X_35  1.0499999523162842)
(X_36  1.0499999523162842)
(X_37  0.949999988079071)
(X_38  0.949999988079071)
(X_39  0.949999988079071)
(X_40  0.9460784196853638)
(X_41  0.9460784196853638)
(X_42  0.9460784196853638)
(X_43  0.9460784196853638)
(X_44  1.0499999523162842)
(X_45  1.0460784435272217)
(X_46  1.0460784435272217)
(X_47  1.0460784435272217)
(X_48  0.9460784196853638)
(X_49  0.949999988079071)
(X_50  0.949999988079071)
(X_51  0.949999988079071)
(X_52  1.0421568155288696)
(X_53  1.0421568155288696)
(X_54  0.9421568512916565)
(X_55  1.0421568155288696)
(X_56  1.0499999523162842)
(X_57  0.949999988079071)
(X_58  0.949999988079071)
(X_59  0.949999988079071)
(X_60  0.949999988079071)
(X_61  0.949999988079071)
(X_62  0.949999988079071)
(X_63  0.949999988079071)
(X_64  0.949999988079071)
(X_65  0.949999988079071)
(X_66  0.949999988079071)
(X_67  1.0499999523162842)
(X_68  1.0499999523162842)
(X_69  0.949999988079071)
(X_70  0.949999988079071)
(X_71  0.9421568512916565)
(X_72  0.949999988079071)
(X_73  0.949999988079071)
(X_74  0.949999988079071)
(X_75  0.949999988079071)
(X_76  0.949999988079071)
(X_77  1.0499999523162842)
(X_78  1.0499999523162842)
(X_79  1.0499999523162842)
(X_80  1.0499999523162842)
(X_81  1.0499999523162842)
(X_82  0.949999988079071)
(X_83  1.0499999523162842)
(X_84  1.0499999523162842)
(X_85  0.949999988079071)
(X_86  0.949999988079071)
(X_87  0.949999988079071)
(X_88  0.949999988079071)
(X_89  1.0499999523162842)
(X_90  1.0499999523162842)
(X_91  1.0499999523162842)
(X_92  0.949999988079071)
(X_93  0.949999988079071)
(X_94  0.949999988079071)
(X_95  0.949999988079071)
(X_96  0.949999988079071)
(X_97  1.0499999523162842)
(X_98  1.0460784435272217)
(X_99  1.0460784435272217)
(X_100  1.0460784435272217)
(X_101  1.0460784435272217)
(X_102  1.0421568155288696)
(X_103  1.0421568155288696)
(X_104  0.9421568512916565)
(X_105  0.9460784196853638)
(X_106  0.9460784196853638)
(X_107  0.949999988079071)
(X_108  0.9421568512916565)
(X_109  0.9421568512916565)
(X_110  0.9421568512916565)
(X_111  1.0421568155288696)
(X_112  0.7813725471496582)
(X_113  0.7813725471496582)
(X_114  0.8813725709915161)
(X_115  0.8813725709915161)
(X_116  0.7813725471496582)
(X_117  0.7813725471496582)
(X_118  0.7813725471496582)
(X_119  0.7813725471496582)
(X_120  0.7735294103622437)
(X_121  0.79313725233078)
(X_122  0.8088235259056091)
(X_123  0.8009803891181946)
(X_124  0.7735294103622437)
(X_125  0.7617647051811218)
(X_126  0.7774509787559509)
(X_127  0.8009803891181946)
(X_128  0.8696078658103943)
(X_129  0.865686297416687)
(X_130  0.8578431606292725)
(X_131  0.8539215922355652)
(X_132  0.8500000238418579)
(X_133  0.8500000238418579)
(X_134  0.8460784554481506)
(X_135  0.8500000238418579)
(X_136  0.8264706134796143)
(X_137  0.8264706134796143)
(X_138  0.8264706134796143)
(X_139  0.8264706134796143)
(X_140  0.0990196168422699)
(X_141  0.0990196168422699)
(X_142  0.19901961088180542)
(X_143  0.19901961088180542)
(X_144  0.19901961088180542)
(X_145  0.0990196168422699)
(X_146  0.0990196168422699)
(X_147  0.19901961088180542)
(X_148  0.21078431606292725)
(X_149  0.24215686321258545)
(X_150  0.2696078419685364)
(X_151  0.2539215683937073)
(X_152  0.22254902124404907)
(X_153  0.20686274766921997)
(X_154  0.2343137264251709)
(X_155  0.2656862735748291)
(X_156  0.21078431606292725)
(X_157  0.20686274766921997)
(X_158  0.19901961088180542)
(X_159  0.19117647409439087)
(X_160  0.18333333730697632)
(X_161  0.07941177487373352)
(X_162  0.07941177487373352)
(X_163  0.07941177487373352)
(X_164  0.0676470622420311)
(X_165  0.0676470622420311)
(X_166  0.0676470622420311)
(X_167  0.16764706373214722)
(X_168  0.01666666939854622)
(X_169  0.11666666716337204)
(X_170  0.11666666716337204)
(X_171  0.11666666716337204)
(X_172  0.11666666716337204)
(X_173  0.01666666939854622)
(X_174  0.01666666939854622)
(X_175  0.01666666939854622)
(X_176  0.036274511367082596)
(X_177  0.15980392694473267)
(X_178  0.17941176891326904)
(X_179  0.07156863063573837)
(X_180  0.0519607849419117)
(X_181  0.04411764815449715)
(X_182  0.06372549384832382)
(X_183  0.08725491166114807)
(X_184  0.14411765336990356)
(X_185  0.1401960849761963)
(X_186  0.13235294818878174)
(X_187  0.12843137979507446)
(X_188  0.12450980395078659)
(X_189  0.12058823555707932)
(X_190  0.12058823555707932)
(X_191  0.12058823555707932)
(X_192  0.12843137979507446)
(X_193  0.028431374579668045)
(X_194  0.028431374579668045)
(X_195  0.028431374579668045)
(X_196  0.036274511367082596)
(X_197  0.136274516582489)
(X_198  0.136274516582489)
(X_199  0.036274511367082596)
(X_200  0.036274511367082596)
(X_201  0.036274511367082596)
(X_202  0.036274511367082596)
(X_203  0.036274511367082596)
(X_204  0.02450980618596077)
(X_205  0.036274511367082596)
(X_206  0.14411765336990356)
(X_207  0.14803922176361084)
(X_208  0.04019607976078987)
(X_209  0.04411764815449715)
(X_210  0.0519607849419117)
(X_211  0.06372549384832382)
(X_212  0.14411765336990356)
(X_213  0.1401960849761963)
(X_214  0.136274516582489)
(X_215  0.136274516582489)
(X_216  0.13235294818878174)
(X_217  0.136274516582489)
(X_218  0.136274516582489)
(X_219  0.1401960849761963)
(X_220  0.1401960849761963)
(X_221  0.1401960849761963)
(X_222  0.1401960849761963)
(X_223  0.1401960849761963)
(X_224  0.0009803927969187498)
(X_225  0.12058823555707932)
(X_226  0.136274516582489)
(X_227  0.136274516582489)
(X_228  0.12450980395078659)
(X_229  0.01666666939854622)
(X_230  0.028431374579668045)
(X_231  0.04411764815449715)
(X_232  0.04019607976078987)
(X_233  0.036274511367082596)
(X_234  0.13235294818878174)
(X_235  0.02450980618596077)
(X_236  0.02450980618596077)
(X_237  0.02450980618596077)
(X_238  0.028431374579668045)
(X_239  0.03235294297337532)
(X_240  0.03235294297337532)
(X_241  0.12450980395078659)
(X_242  0.12450980395078659)
(X_243  0.13235294818878174)
(X_244  0.13235294818878174)
(X_245  0.12450980395078659)
(X_246  0.12058823555707932)
(X_247  0.12843137979507446)
(X_248  0.04411764815449715)
(X_249  0.02450980618596077)
(X_250  0.020588237792253494)
(X_251  0.13235294818878174)
(X_252  0.03235294297337532)
(X_253  0.03235294297337532)
(X_254  0.03235294297337532)
(X_255  0.020588237792253494)
(X_256  0.10882353037595749)
(X_257  0.09313725680112839)
(X_258  0.08529412001371384)
(X_259  0.08529412001371384)
(X_260  0.020588237792253494)
(X_261  0.028431374579668045)
(X_262  0.04019607976078987)
(X_263  0.04803921654820442)
(X_264  0.04803921654820442)
(X_265  0.04019607976078987)
(X_266  0.12450980395078659)
(X_267  0.11666666716337204)
(X_268  0.1401960849761963)
(X_269  0.1401960849761963)
(X_270  0.13235294818878174)
(X_271  0.02450980618596077)
(X_272  0.028431374579668045)
(X_273  0.13235294818878174)
(X_274  0.13235294818878174)
(X_275  0.12450980395078659)
(X_276  0.14803922176361084)
(X_277  0.12843137979507446)
(X_278  0.020588237792253494)
(X_279  0.02450980618596077)
(X_280  0.008823529817163944)
(X_281  0.10882353037595749)
(X_282  0.11274509876966476)
(X_283  0.02450980618596077)
(X_284  0.036274511367082596)
(X_285  0.1401960849761963)
(X_286  0.1401960849761963)
(X_287  0.136274516582489)
(X_288  -0.0029411755967885256)
(X_289  0.004901961423456669)
(X_290  0.01666666939854622)
(X_291  0.12450980395078659)
(X_292  0.12450980395078659)
(X_293  0.01666666939854622)
(X_294  0.008823529817163944)
(X_295  0.10098039358854294)
(X_296  0.11274509876966476)
(X_297  0.02450980618596077)
(X_298  0.01666666939854622)
(X_299  -0.0029411755967885256)
(X_300  0.004901961423456669)
(X_301  0.136274516582489)
(X_302  0.136274516582489)
(X_303  0.01666666939854622)
(X_304  0.04019607976078987)
(X_305  0.028431374579668045)
(X_306  0.028431374579668045)
(X_307  0.03235294297337532)
(X_308  0.10882353037595749)
(X_309  0.10882353037595749)
(X_310  0.11274509876966476)
(X_311  0.008823529817163944)
(X_312  0.004901961423456669)
(X_313  0.0009803927969187498)
(X_314  -0.0029411755967885256)
(X_315  0.09705882519483566)
(X_316  0.11666666716337204)
(X_317  0.11274509876966476)
(X_318  0.10882353037595749)
(X_319  0.10490196198225021)
(X_320  0.10882353037595749)
(X_321  0.012745101936161518)
(X_322  0.020588237792253494)
(X_323  0.02450980618596077)
(X_324  -0.0029411755967885256)
(X_325  0.01666666939854622)
(X_326  0.008823529817163944)
(X_327  0.08529412001371384)
(X_328  0.004901961423456669)
(X_329  0.04411764815449715)
(X_330  0.14803922176361084)
(X_331  0.11274509876966476)
(X_332  0.12450980395078659)
(X_333  0.028431374579668045)
(X_334  0.04411764815449715)
(X_335  0.05980392172932625)
(X_336  0.012745101936161518)
(X_337  0.12450980395078659)
(X_338  0.136274516582489)
(X_339  0.136274516582489)
(X_340  0.12843137979507446)
(X_341  0.02450980618596077)
(X_342  0.03235294297337532)
(X_343  0.04019607976078987)
(X_344  0.136274516582489)
(X_345  0.13235294818878174)
(X_346  0.12843137979507446)
(X_347  0.028431374579668045)
(X_348  0.028431374579668045)
(X_349  0.03235294297337532)
(X_350  0.036274511367082596)
(X_351  0.136274516582489)
(X_352  0.07352941483259201)
(X_353  0.10882353037595749)
(X_354  0.0519607849419117)
(X_355  0.0990196168422699)
(X_356  0.18137255311012268)
(X_357  0.3715686500072479)
(X_358  0.4068627655506134)
(X_359  0.3950980603694916)
(X_360  0.387254923582077)
(X_361  0.3911764919757843)
(X_362  0.31470587849617004)
(X_363  0.34215685725212097)
(X_364  0.036274511367082596)
(X_365  0.136274516582489)
(X_366  0.136274516582489)
(X_367  0.12450980395078659)
(X_368  0.012745101936161518)
(X_369  0.0009803927969187498)
(X_370  -0.010784312151372433)
(X_371  -0.014705880545079708)
(X_372  0.0009803927969187498)
(X_373  0.10882353037595749)
(X_374  0.11666666716337204)
(X_375  0.12058823555707932)
(X_376  0.11666666716337204)
(X_377  0.008823529817163944)
(X_378  0.0009803927969187498)
(X_379  -0.006862743757665157)
(X_380  0.1715686321258545)
(X_381  0.18333333730697632)
(X_382  0.21470588445663452)
(X_383  0.2696078419685364)
(X_384  0.22843138873577118)
(X_385  0.2598039209842682)
(X_386  0.2558823525905609)
(X_387  0.24411766231060028)
(X_388  0.3068627417087555)
(X_389  0.29509803652763367)
(X_390  0.29901960492134094)
(X_391  0.3186274468898773)
(X_392  0.49705883860588074)
(X_393  0.4539215862751007)
(X_394  0.39901962876319885)
(X_395  0.3598039448261261)
(X_396  0.33235296607017517)
(X_397  0.28921568393707275)
(X_398  0.1303921639919281)
(X_399  0.0833333432674408)
(X_400  0.04803921654820442)
(X_401  0.04019607976078987)
(X_402  0.12450980395078659)
(X_403  0.11274509876966476)
(X_404  0.10882353037595749)
(X_405  0.012745101936161518)
(X_406  0.020588237792253494)
(X_407  0.12450980395078659)
(X_408  0.2029411792755127)
(X_409  0.21470588445663452)
(X_410  0.2970588207244873)
(X_411  0.4382353127002716)
(X_412  0.5480391979217529)
(X_413  0.4911764860153198)
(X_414  0.5068627595901489)
(X_415  0.6225490570068359)
(X_416  0.3539215624332428)
(X_417  0.31470587849617004)
(X_418  0.2872548997402191)
(X_419  0.29509803652763367)
(X_420  0.5401960611343384)
(X_421  0.48137256503105164)
(X_422  0.43039217591285706)
(X_423  0.33039215207099915)
(X_424  0.3578431308269501)
(X_425  0.3539215624332428)
(X_426  0.29509803652763367)
(X_427  0.33627453446388245)
(X_428  0.18137255311012268)
(X_429  0.24215686321258545)
(X_430  0.19117647409439087)
(X_431  0.04803921654820442)
(X_432  0.04411764815449715)
(X_433  0.07156863063573837)
(X_434  0.114705890417099)
(X_435  0.15000000596046448)
(X_436  0.3245098292827606)
(X_437  0.3127451241016388)
(X_438  0.3754902184009552)
(X_439  0.5127450823783875)
(X_440  0.5911765098571777)
(X_441  0.479411780834198)
(X_442  0.4598039388656616)
(X_443  0.47156864404678345)
(X_444  0.5774509906768799)
(X_445  0.5186274647712708)
(X_446  0.46764707565307617)
(X_447  0.5676470994949341)
(X_448  0.3284313976764679)
(X_449  0.23235295712947845)
(X_450  0.23627452552318573)
(X_451  0.23627452552318573)
(X_452  0.23235295712947845)
(X_453  0.2245098203420639)
(X_454  0.3245098292827606)
(X_455  0.32058826088905334)
(X_456  0.3088235557079315)
(X_457  0.36764708161354065)
(X_458  0.3637255132198334)
(X_459  0.3754902184009552)
(X_460  0.3480392396450043)
(X_461  0.21666668355464935)
(X_462  0.26764705777168274)
(X_463  0.2598039209842682)
(X_464  0.1774509847164154)
(X_465  0.29509803652763367)
(X_466  0.3578431308269501)
(X_467  0.34215685725212097)
(X_468  0.4225490391254425)
(X_469  0.4068627655506134)
(X_470  0.41862747073173523)
(X_471  0.46568629145622253)
(X_472  0.4852941334247589)
(X_473  0.551960825920105)
(X_474  0.595098078250885)
(X_475  0.5833333730697632)
(X_476  0.114705890417099)
(X_477  0.1460784375667572)
(X_478  0.2774509787559509)
(X_479  0.2852941155433655)
(X_480  0.16568627953529358)
(X_481  0.15392157435417175)
(X_482  0.1617647111415863)
(X_483  0.27352941036224365)
(X_484  0.1931372582912445)
(X_485  0.20098040997982025)
(X_486  0.15784314274787903)
(X_487  0.20098040997982025)
(X_488  0.33627453446388245)
(X_489  0.33627453446388245)
(X_490  0.3637255132198334)
(X_491  0.32058826088905334)
(X_492  0.34215685725212097)
(X_493  0.4696078598499298)
(X_494  0.4225490391254425)
(X_495  0.3558823764324188)
(X_496  0.3401961028575897)
(X_497  0.344117671251297)
(X_498  0.3558823764324188)
(X_499  0.2911764681339264)
(X_500  0.3598039448261261)
(X_501  0.4107843339443207)
(X_502  0.4264706075191498)
(X_503  0.3911764919757843)
(X_504  0.35196080803871155)
(X_505  0.40294119715690613)
(X_506  0.4539215862751007)
(X_507  0.46176472306251526)
(X_508  0.4264706075191498)
(X_509  0.39901962876319885)
(X_510  0.31078431010246277)
(X_511  0.33039215207099915)
(X_512  0.29901960492134094)
(X_513  0.33039215207099915)
(X_514  0.33039215207099915)
(X_515  0.4049019515514374)
(X_516  0.45588237047195435)
(X_517  0.4598039388656616)
(X_518  0.4990196228027344)
(X_519  0.46764707565307617)
(X_520  0.48725491762161255)
(X_521  0.42450979351997375)
(X_522  0.28333333134651184)
(X_523  0.18137255311012268)
(X_524  0.18137255311012268)
(X_525  0.18921568989753723)
(X_526  0.2774509787559509)
(X_527  0.2852941155433655)
(X_528  0.1303921639919281)
(X_529  0.16568627953529358)
(X_530  0.1774509847164154)
(X_531  0.13823530077934265)
(X_532  0.30490198731422424)
(X_533  0.344117671251297)
(X_534  0.3794117867946625)
(X_535  0.3715686500072479)
(X_536  0.33627453446388245)
(X_537  0.30490198731422424)
(X_538  0.30490198731422424)
(X_539  0.32058826088905334)
(X_540  0.3186274468898773)
(X_541  0.44019606709480286)
(X_542  0.5147058963775635)
(X_543  0.5774509906768799)
(X_544  0.5382353067398071)
(X_545  0.48725491762161255)
(X_546  0.5617647171020508)
(X_547  0.6009804010391235)
(X_548  0.5833333730697632)
(X_549  0.3970588147640228)
(X_550  0.24411766231060028)
(X_551  0.25784313678741455)
(X_552  0.2696078419685364)
(X_553  0.2617647051811218)
(X_554  0.2186274528503418)
(X_555  0.0990196168422699)
(X_556  0.1715686321258545)
(X_557  0.0990196168422699)
(X_558  0.10686275362968445)
(X_559  0.0833333432674408)
(X_560  0.3088235557079315)
(X_561  0.2088235467672348)
(X_562  0.2088235467672348)
(X_563  0.20098040997982025)
(X_564  0.18529412150382996)
(X_565  0.16960784792900085)
(X_566  0.15784314274787903)
(X_567  0.15784314274787903)
(X_568  0.2872548997402191)
(X_569  0.4205882251262665)
(X_570  0.4911764860153198)
(X_571  0.4990196228027344)
(X_572  0.3813725411891937)
(X_573  0.27941176295280457)
(X_574  0.3696078360080719)
(X_575  0.45196080207824707)
(X_576  0.3735294044017792)
(X_577  0.3068627417087555)
(X_578  0.2852941155433655)
(X_579  0.22254902124404907)
(X_580  0.23823529481887817)
(X_581  0.2186274528503418)
(X_582  0.16764706373214722)
(X_583  0.1558823585510254)
(X_584  0.1401960849761963)
(X_585  0.05588235333561897)
(X_586  0.15196079015731812)
(X_587  0.03235294297337532)
(X_588  0.2696078419685364)
(X_589  0.1460784375667572)
(X_590  0.12254902720451355)
(X_591  0.2186274528503418)
(X_592  0.22647058963775635)
(X_593  0.2343137264251709)
(X_594  0.22254902124404907)
(X_595  0.20686274766921997)
(X_596  0.387254923582077)
(X_597  0.44607844948768616)
(X_598  0.34607842564582825)
(X_599  0.34215685725212097)
(X_600  0.24803923070430756)
(X_601  0.16568627953529358)
(X_602  0.24803923070430756)
(X_603  0.31470587849617004)
(X_604  0.344117671251297)
(X_605  0.2970588207244873)
(X_606  0.20686274766921997)
(X_607  0.15980392694473267)
(X_608  0.16764706373214722)
(X_609  0.14803922176361084)
(X_610  0.12058823555707932)
(X_611  0.1401960849761963)
(X_612  0.004901961423456669)
(X_613  0.012745101936161518)
(X_614  0.11274509876966476)
(X_615  0.004901961423456669)
(X_616  0.2029411792755127)
(X_617  0.07941177487373352)
(X_618  0.05588235333561897)
(X_619  0.05588235333561897)
(X_620  0.1715686321258545)
(X_621  0.17941176891326904)
(X_622  0.1715686321258545)
(X_623  0.1558823585510254)
(X_624  0.1774509847164154)
(X_625  0.18529412150382996)
(X_626  0.15000000596046448)
(X_627  0.2774509787559509)
(X_628  0.14215686917304993)
(X_629  0.08725491166114807)
(X_630  0.1460784375667572)
(X_631  0.1774509847164154)
(X_632  0.12254902720451355)
(X_633  0.09509804844856262)
(X_634  0.036274511367082596)
(X_635  0.012745101936161518)
(X_636  0.03235294297337532)
(X_637  0.10882353037595749)
(X_638  0.09313725680112839)
(X_639  0.02450980618596077)
(X_640  -0.006862743757665157)
(X_641  0.09705882519483566)
(X_642  0.10098039358854294)
(X_643  0.10490196198225021)
(X_644  0.1558823585510254)
(X_645  0.04019607976078987)
(X_646  0.12058823555707932)
(X_647  0.12058823555707932)
(X_648  0.12843137979507446)
(X_649  0.13235294818878174)
(X_650  0.12058823555707932)
(X_651  0.10882353037595749)
(X_652  0.1558823585510254)
(X_653  0.16764706373214722)
(X_654  0.14803922176361084)
(X_655  0.09509804844856262)
(X_656  0.0676470622420311)
(X_657  -0.0029411755967885256)
(X_658  0.02450980618596077)
(X_659  0.036274511367082596)
(X_660  0.04019607976078987)
(X_661  0.13235294818878174)
(X_662  0.10098039358854294)
(X_663  0.008823529817163944)
(X_664  0.036274511367082596)
(X_665  0.11274509876966476)
(X_666  0.08529412001371384)
(X_667  0.01666666939854622)
(X_668  0.10882353037595749)
(X_669  0.10490196198225021)
(X_670  0.10490196198225021)
(X_671  0.008823529817163944)
(X_672  0.09313725680112839)
(X_673  0.0009803927969187498)
(X_674  0.004901961423456669)
(X_675  0.004901961423456669)
(X_676  -0.0029411755967885256)
(X_677  -0.010784312151372433)
(X_678  -0.006862743757665157)
(X_679  -0.006862743757665157)
(X_680  0.008823529817163944)
(X_681  0.11274509876966476)
(X_682  0.11274509876966476)
(X_683  0.10882353037595749)
(X_684  0.10490196198225021)
(X_685  0.0009803927969187498)
(X_686  0.008823529817163944)
(X_687  0.01666666939854622)
(X_688  0.0009803927969187498)
(X_689  0.0009803927969187498)
(X_690  0.0009803927969187498)
(X_691  0.0009803927969187498)
(X_692  0.0009803927969187498)
(X_693  0.0009803927969187498)
(X_694  0.0009803927969187498)
(X_695  0.10098039358854294)
(X_696  0.10490196198225021)
(X_697  0.10490196198225021)
(X_698  0.10882353037595749)
(X_699  0.10882353037595749)
(X_700  0.09313725680112839)
(X_701  0.0009803927969187498)
(X_702  0.10490196198225021)
(X_703  0.10490196198225021)
(X_704  -0.0029411755967885256)
(X_705  -0.010784312151372433)
(X_706  -0.010784312151372433)
(X_707  -0.006862743757665157)
(X_708  0.10490196198225021)
(X_709  0.10882353037595749)
(X_710  0.10882353037595749)
(X_711  0.10490196198225021)
(X_712  0.10098039358854294)
(X_713  0.0009803927969187498)
(X_714  0.004901961423456669)
(X_715  0.012745101936161518)
(X_716  0.0009803927969187498)
(X_717  0.0009803927969187498)
(X_718  0.0009803927969187498)
(X_719  0.0009803927969187498)
(X_720  0.0009803927969187498)
(X_721  0.10098039358854294)
(X_722  0.10098039358854294)
(X_723  0.10098039358854294)
(X_724  0.10098039358854294)
(X_725  0.10098039358854294)
(X_726  0.10490196198225021)
(X_727  0.10490196198225021)
(X_728  0.09313725680112839)
(X_729  0.09705882519483566)
(X_730  0.10490196198225021)
(X_731  0.10098039358854294)
(X_732  0.09313725680112839)
(X_733  0.08921568840742111)
(X_734  0.08921568840742111)
(X_735  0.09313725680112839)
(X_736  0.09705882519483566)
(X_737  0.10098039358854294)
(X_738  0.004901961423456669)
(X_739  0.0009803927969187498)
(X_740  -0.006862743757665157)
(X_741  -0.006862743757665157)
(X_742  0.0009803927969187498)
(X_743  0.008823529817163944)
(X_744  0.0009803927969187498)
(X_745  0.10098039358854294)
(X_746  0.10098039358854294)
(X_747  0.0009803927969187498)
(X_748  0.0009803927969187498)
(X_749  0.0009803927969187498)
(X_750  0.0009803927969187498)
(X_751  0.0009803927969187498)
(X_752  0.09705882519483566)
(X_753  0.09705882519483566)
(X_754  0.09705882519483566)
(X_755  0.10098039358854294)
(X_756  0.08921568840742111)
(X_757  0.09705882519483566)
(X_758  0.10490196198225021)
(X_759  0.0009803927969187498)
(X_760  -0.006862743757665157)
(X_761  0.08921568840742111)
(X_762  0.08921568840742111)
(X_763  0.09313725680112839)
(X_764  0.09313725680112839)
(X_765  0.09705882519483566)
(X_766  -0.0029411755967885256)
(X_767  -0.006862743757665157)
(X_768  -0.010784312151372433)
(X_769  -0.010784312151372433)
(X_770  -0.006862743757665157)
(X_771  0.0009803927969187498)
(X_772  -0.0029411755967885256)
(X_773  -0.0029411755967885256)
(X_774  -0.0029411755967885256)
(X_775  -0.0029411755967885256)
(X_776  0.09705882519483566)
(X_777  0.09705882519483566)
(X_778  0.09705882519483566)
(X_779  0.09705882519483566)
(X_780  -0.010784312151372433)
(X_781  -0.010784312151372433)
(X_782  -0.006862743757665157)
(X_783  -0.006862743757665157)
(Y_0 -11.594649314880371)
(Y_1 -8.879247665405273)
(Y_2 -8.53232479095459)
(Y_3 29.25547218322754))