((X_0  0.1303921639919281)
(X_1  0.1303921639919281)
(X_2  0.13431373238563538)
(X_3  0.13431373238563538)
(X_4  0.13431373238563538)
(X_5  0.13431373238563538)
(X_6  0.23039215803146362)
(X_7  0.23039215803146362)
(X_8  0.23039215803146362)
(X_9  0.22647058963775635)
(X_10  0.21470588445663452)
(X_11  0.20686274766921997)
(X_12  0.20686274766921997)
(X_13  0.21470588445663452)
(X_14  0.12647059559822083)
(X_15  0.1303921639919281)
(X_16  0.10294118523597717)
(X_17  0.11078432202339172)
(X_18  0.12647059559822083)
(X_19  0.13823530077934265)
(X_20  0.1460784375667572)
(X_21  0.1460784375667572)
(X_22  0.24607843160629272)
(X_23  0.24215686321258545)
(X_24  0.1303921639919281)
(X_25  0.12254902720451355)
(X_26  0.10686275362968445)
(X_27  0.0990196168422699)
(X_28  0.13235294818878174)
(X_29  0.136274516582489)
(X_30  0.04019607976078987)
(X_31  0.1401960849761963)
(X_32  0.1401960849761963)
(X_33  0.04019607976078987)
(X_34  0.036274511367082596)
(X_35  0.03235294297337532)
(X_36  0.14411765336990356)
(X_37  0.036274511367082596)
(X_38  0.03235294297337532)
(X_39  0.12450980395078659)
(X_40  0.12450980395078659)
(X_41  0.13235294818878174)
(X_42  0.136274516582489)
(X_43  0.14411765336990356)
(X_44  0.13235294818878174)
(X_45  0.04019607976078987)
(X_46  0.04803921654820442)
(X_47  0.0519607849419117)
(X_48  0.05588235333561897)
(X_49  0.0519607849419117)
(X_50  0.14803922176361084)
(X_51  0.14411765336990356)
(X_52  0.15980392694473267)
(X_53  0.1558823585510254)
(X_54  0.0519607849419117)
(X_55  0.04803921654820442)
(X_56  0.036274511367082596)
(X_57  0.04019607976078987)
(X_58  0.04411764815449715)
(X_59  0.14411765336990356)
(X_60  0.14411765336990356)
(X_61  0.04411764815449715)
(X_62  0.04019607976078987)
(X_63  0.036274511367082596)
(X_64  0.04019607976078987)
(X_65  0.04019607976078987)
(X_66  0.1401960849761963)
(X_67  0.1401960849761963)
(X_68  0.1401960849761963)
(X_69  0.1401960849761963)
(X_70  0.1401960849761963)
(X_71  0.1401960849761963)
(X_72  0.13235294818878174)
(X_73  0.036274511367082596)
(X_74  0.04411764815449715)
(X_75  0.04803921654820442)
(X_76  0.04803921654820442)
(X_77  0.14411765336990356)
(X_78  0.136274516582489)
(X_79  0.13235294818878174)
(X_80  0.1401960849761963)
(X_81  0.1401960849761963)
(X_82  0.14411765336990356)
(X_83  0.14803922176361084)
(X_84  0.028431374579668045)
(X_85  0.03235294297337532)
(X_86  0.03235294297337532)
(X_87  0.036274511367082596)
(X_88  0.136274516582489)
(X_89  0.13235294818878174)
(X_90  0.13235294818878174)
(X_91  0.12843137979507446)
(X_92  0.11666666716337204)
(X_93  0.12058823555707932)
(X_94  0.12450980395078659)
(X_95  0.028431374579668045)
(X_96  0.028431374579668045)
(X_97  0.02450980618596077)
(X_98  0.020588237792253494)
(X_99  0.01666666939854622)
(X_100  0.12058823555707932)
(X_101  0.02450980618596077)
(X_102  0.028431374579668045)
(X_103  0.03235294297337532)
(X_104  0.13235294818878174)
(X_105  0.13235294818878174)
(X_106  0.12843137979507446)
(X_107  0.12843137979507446)
(X_108  0.020588237792253494)
(X_109  0.02450980618596077)
(X_110  0.03235294297337532)
(X_111  0.036274511367082596)
(X_112  0.12058823555707932)
(X_113  0.12058823555707932)
(X_114  0.12450980395078659)
(X_115  0.12843137979507446)
(X_116  0.028431374579668045)
(X_117  0.12450980395078659)
(X_118  0.12058823555707932)
(X_119  0.020588237792253494)
(X_120  0.008823529817163944)
(X_121  0.012745101936161518)
(X_122  0.020588237792253494)
(X_123  0.02450980618596077)
(X_124  0.02450980618596077)
(X_125  0.020588237792253494)
(X_126  0.012745101936161518)
(X_127  0.008823529817163944)
(X_128  0.12450980395078659)
(X_129  0.12843137979507446)
(X_130  0.028431374579668045)
(X_131  0.028431374579668045)
(X_132  0.028431374579668045)
(X_133  0.028431374579668045)
(X_134  0.02450980618596077)
(X_135  0.02450980618596077)
(X_136  0.13235294818878174)
(X_137  0.13235294818878174)
(X_138  0.12843137979507446)
(X_139  0.12843137979507446)
(X_140  0.13235294818878174)
(X_141  0.13235294818878174)
(X_142  0.136274516582489)
(X_143  0.136274516582489)
(X_144  0.036274511367082596)
(X_145  0.036274511367082596)
(X_146  0.03235294297337532)
(X_147  0.03235294297337532)
(X_148  0.13235294818878174)
(X_149  0.13235294818878174)
(X_150  0.1401960849761963)
(X_151  0.14411765336990356)
(X_152  0.14411765336990356)
(X_153  0.1401960849761963)
(X_154  0.13235294818878174)
(X_155  0.13235294818878174)
(X_156  0.136274516582489)
(X_157  0.136274516582489)
(X_158  0.03235294297337532)
(X_159  0.03235294297337532)
(X_160  0.028431374579668045)
(X_161  0.12843137979507446)
(X_162  0.12843137979507446)
(X_163  0.12450980395078659)
(X_164  0.11666666716337204)
(X_165  0.11274509876966476)
(X_166  0.10490196198225021)
(X_167  0.10098039358854294)
(X_168  0.008823529817163944)
(X_169  0.008823529817163944)
(X_170  0.012745101936161518)
(X_171  0.012745101936161518)
(X_172  0.012745101936161518)
(X_173  0.11274509876966476)
(X_174  0.10882353037595749)
(X_175  0.10882353037595749)
(X_176  0.11274509876966476)
(X_177  0.012745101936161518)
(X_178  0.01666666939854622)
(X_179  0.11666666716337204)
(X_180  0.11666666716337204)
(X_181  0.11666666716337204)
(X_182  0.11274509876966476)
(X_183  0.11274509876966476)
(X_184  0.0009803927969187498)
(X_185  0.004901961423456669)
(X_186  0.008823529817163944)
(X_187  0.012745101936161518)
(X_188  0.020588237792253494)
(X_189  0.03235294297337532)
(X_190  0.1401960849761963)
(X_191  0.14411765336990356)
(X_192  0.12450980395078659)
(X_193  0.12843137979507446)
(X_194  0.13235294818878174)
(X_195  0.1401960849761963)
(X_196  0.136274516582489)
(X_197  0.1401960849761963)
(X_198  0.14411765336990356)
(X_199  0.14411765336990356)
(X_200  0.04411764815449715)
(X_201  0.04411764815449715)
(X_202  0.04019607976078987)
(X_203  0.036274511367082596)
(X_204  0.036274511367082596)
(X_205  0.036274511367082596)
(X_206  0.036274511367082596)
(X_207  0.036274511367082596)
(X_208  0.036274511367082596)
(X_209  0.036274511367082596)
(X_210  0.036274511367082596)
(X_211  0.136274516582489)
(X_212  0.136274516582489)
(X_213  0.14411765336990356)
(X_214  0.15980392694473267)
(X_215  0.07549020648002625)
(X_216  0.0990196168422699)
(X_217  0.12254902720451355)
(X_218  0.14215686917304993)
(X_219  0.15000000596046448)
(X_220  0.18137255311012268)
(X_221  0.1931372582912445)
(X_222  0.21666668355464935)
(X_223  0.23627452552318573)
(X_224  0.23235295712947845)
(X_225  0.35196080803871155)
(X_226  0.2558823525905609)
(X_227  0.22843138873577118)
(X_228  0.19705882668495178)
(X_229  0.16960784792900085)
(X_230  0.14215686917304993)
(X_231  0.114705890417099)
(X_232  0.15980392694473267)
(X_233  0.14803922176361084)
(X_234  0.12450980395078659)
(X_235  0.10490196198225021)
(X_236  0.09705882519483566)
(X_237  0.11666666716337204)
(X_238  0.14411765336990356)
(X_239  0.16764706373214722)
(X_240  0.10294118523597717)
(X_241  0.16960784792900085)
(X_242  0.3480392396450043)
(X_243  0.3911764919757843)
(X_244  0.3950980603694916)
(X_245  0.2872548997402191)
(X_246  0.29509803652763367)
(X_247  0.31078431010246277)
(X_248  0.4225490391254425)
(X_249  0.3029411733150482)
(X_250  0.28333333134651184)
(X_251  0.387254923582077)
(X_252  0.3754902184009552)
(X_253  0.3950980603694916)
(X_254  0.3029411733150482)
(X_255  0.3950980603694916)
(X_256  0.3911764919757843)
(X_257  0.3911764919757843)
(X_258  0.3754902184009552)
(X_259  0.35196080803871155)
(X_260  0.3598039448261261)
(X_261  0.344117671251297)
(X_262  0.3088235557079315)
(X_263  0.27352941036224365)
(X_264  0.25)
(X_265  0.24607843160629272)
(X_266  0.2617647051811218)
(X_267  0.1774509847164154)
(X_268  0.21274511516094208)
(X_269  0.23235295712947845)
(X_270  0.25196078419685364)
(X_271  0.24803923070430756)
(X_272  0.23235295712947845)
(X_273  0.22843138873577118)
(X_274  0.240196093916893)
(X_275  0.2598039209842682)
(X_276  0.22843138873577118)
(X_277  0.2245098203420639)
(X_278  0.3245098292827606)
(X_279  0.3245098292827606)
(X_280  0.240196093916893)
(X_281  0.24411766231060028)
(X_282  0.240196093916893)
(X_283  0.23627452552318573)
(X_284  0.24803923070430756)
(X_285  0.3558823764324188)
(X_286  0.3401961028575897)
(X_287  0.21666668355464935)
(X_288  0.2088235467672348)
(X_289  0.2970588207244873)
(X_290  0.2774509787559509)
(X_291  0.2539215683937073)
(X_292  0.24215686321258545)
(X_293  0.24607843160629272)
(X_294  0.16568627953529358)
(X_295  0.18137255311012268)
(X_296  0.1931372582912445)
(X_297  0.28921568393707275)
(X_298  0.2774509787559509)
(X_299  0.25784313678741455)
(X_300  0.24215686321258545)
(X_301  0.23823529481887817)
(X_302  0.15000000596046448)
(X_303  0.1617647111415863)
(X_304  0.18529412150382996)
(X_305  0.20098040997982025)
(X_306  0.22058825194835663)
(X_307  0.23235295712947845)
(X_308  0.20098040997982025)
(X_309  0.1931372582912445)
(X_310  0.1774509847164154)
(X_311  0.16960784792900085)
(X_312  0.18529412150382996)
(X_313  0.19705882668495178)
(X_314  0.18137255311012268)
(X_315  0.15000000596046448)
(X_316  0.16960784792900085)
(X_317  0.16960784792900085)
(X_318  0.16568627953529358)
(X_319  0.1617647111415863)
(X_320  0.16568627953529358)
(X_321  0.2813725471496582)
(X_322  0.30490198731422424)
(X_323  0.32058826088905334)
(X_324  0.22058825194835663)
(X_325  0.33627453446388245)
(X_326  0.36764708161354065)
(X_327  0.41470590233802795)
(X_328  0.36176469922065735)
(X_329  0.4009803831577301)
(X_330  0.42450979351997375)
(X_331  0.4323529303073883)
(X_332  0.5754902362823486)
(X_333  0.5794118046760559)
(X_334  0.48725491762161255)
(X_335  0.4911764860153198)
(X_336  0.41274508833885193)
(X_337  0.5088235139846802)
(X_338  0.3970588147640228)
(X_339  0.4892157018184662)
(X_340  0.5088235139846802)
(X_341  0.5323529243469238)
(X_342  0.4205882251262665)
(X_343  0.39313724637031555)
(X_344  0.5245097875595093)
(X_345  0.520588219165802)
(X_346  0.41274508833885193)
(X_347  0.4009803831577301)
(X_348  0.4892157018184662)
(X_349  0.4852941334247589)
(X_350  0.49313727021217346)
(X_351  0.4009803831577301)
(X_352  0.4480392038822174)
(X_353  0.44019606709480286)
(X_354  0.42843136191368103)
(X_355  0.4205882251262665)
(X_356  0.40882351994514465)
(X_357  0.385294109582901)
(X_358  0.3578431308269501)
(X_359  0.43431374430656433)
(X_360  0.43039217591285706)
(X_361  0.4068627655506134)
(X_362  0.3794117867946625)
(X_363  0.36764708161354065)
(X_364  0.34607842564582825)
(X_365  0.34607842564582825)
(X_366  0.3343137204647064)
(X_367  0.41862747073173523)
(X_368  0.4225490391254425)
(X_369  0.43039217591285706)
(X_370  0.41862747073173523)
(X_371  0.3950980603694916)
(X_372  0.2872548997402191)
(X_373  0.2872548997402191)
(X_374  0.27941176295280457)
(X_375  0.2598039209842682)
(X_376  0.3401961028575897)
(X_377  0.3284313976764679)
(X_378  0.3245098292827606)
(X_379  0.2245098203420639)
(X_380  0.31666669249534607)
(X_381  0.3088235557079315)
(X_382  0.19705882668495178)
(X_383  0.28921568393707275)
(X_384  0.29313725233078003)
(X_385  0.19705882668495178)
(X_386  0.19705882668495178)
(X_387  0.19705882668495178)
(X_388  0.30098041892051697)
(X_389  0.2696078419685364)
(X_390  0.23823529481887817)
(X_391  0.23039215803146362)
(X_392  0.17352941632270813)
(X_393  0.18137255311012268)
(X_394  0.27352941036224365)
(X_395  0.2539215683937073)
(X_396  0.24215686321258545)
(X_397  0.23823529481887817)
(X_398  0.22647058963775635)
(X_399  0.20686274766921997)
(X_400  0.11078432202339172)
(X_401  0.2186274528503418)
(X_402  0.22254902124404907)
(X_403  0.12254902720451355)
(X_404  0.11078432202339172)
(X_405  0.10686275362968445)
(X_406  0.2029411792755127)
(X_407  0.20686274766921997)
(X_408  0.15784314274787903)
(X_409  0.14215686917304993)
(X_410  0.12254902720451355)
(X_411  0.0990196168422699)
(X_412  0.07941177487373352)
(X_413  0.17549020051956177)
(X_414  0.17941176891326904)
(X_415  0.18333333730697632)
(X_416  0.05980392172932625)
(X_417  0.04411764815449715)
(X_418  0.13235294818878174)
(X_419  0.136274516582489)
(X_420  0.04411764815449715)
(X_421  0.0676470622420311)
(X_422  0.17941176891326904)
(X_423  0.1715686321258545)
(X_424  0.16764706373214722)
(X_425  0.17549020051956177)
(X_426  0.17549020051956177)
(X_427  0.0676470622420311)
(X_428  0.05980392172932625)
(X_429  0.16764706373214722)
(X_430  0.17941176891326904)
(X_431  0.0833333432674408)
(X_432  0.17941176891326904)
(X_433  0.17549020051956177)
(X_434  0.17549020051956177)
(X_435  0.07941177487373352)
(X_436  0.08725491166114807)
(X_437  0.09117648005485535)
(X_438  0.09117648005485535)
(X_439  0.0833333432674408)
(X_440  0.0676470622420311)
(X_441  0.05588235333561897)
(X_442  0.05588235333561897)
(X_443  0.05980392172932625)
(X_444  0.15980392694473267)
(X_445  0.16372549533843994)
(X_446  0.16372549533843994)
(X_447  0.15196079015731812)
(X_448  0.04411764815449715)
(X_449  0.14411765336990356)
(X_450  0.14411765336990356)
(X_451  0.14411765336990356)
(X_452  0.14803922176361084)
(X_453  0.14803922176361084)
(X_454  0.14803922176361084)
(X_455  0.04803921654820442)
(X_456  0.04019607976078987)
(X_457  0.04019607976078987)
(X_458  0.04411764815449715)
(X_459  0.14411765336990356)
(X_460  0.14803922176361084)
(X_461  0.14803922176361084)
(X_462  0.15196079015731812)
(X_463  0.15196079015731812)
(X_464  0.15196079015731812)
(X_465  0.15196079015731812)
(X_466  0.05588235333561897)
(X_467  0.05588235333561897)
(X_468  0.0519607849419117)
(X_469  0.04803921654820442)
(X_470  0.04411764815449715)
(X_471  0.04019607976078987)
(X_472  0.04411764815449715)
(X_473  0.04411764815449715)
(X_474  0.036274511367082596)
(X_475  0.13235294818878174)
(X_476  0.04019607976078987)
(X_477  0.04019607976078987)
(X_478  0.04019607976078987)
(X_479  0.036274511367082596)
(X_480  0.036274511367082596)
(X_481  0.036274511367082596)
(X_482  0.036274511367082596)
(X_483  0.036274511367082596)
(X_484  0.028431374579668045)
(X_485  0.028431374579668045)
(X_486  0.028431374579668045)
(X_487  0.13235294818878174)
(X_488  0.13235294818878174)
(X_489  0.136274516582489)
(X_490  0.136274516582489)
(X_491  0.136274516582489)
(X_492  0.1401960849761963)
(X_493  0.1401960849761963)
(X_494  0.04019607976078987)
(X_495  0.04019607976078987)
(X_496  0.1401960849761963)
(X_497  0.136274516582489)
(X_498  0.13235294818878174)
(X_499  0.028431374579668045)
(X_500  0.03235294297337532)
(X_501  0.03235294297337532)
(X_502  0.028431374579668045)
(X_503  0.02450980618596077)
(X_504  0.03235294297337532)
(X_505  0.12843137979507446)
(X_506  0.12843137979507446)
(X_507  0.12450980395078659)
(X_508  0.12450980395078659)
(X_509  0.020588237792253494)
(X_510  0.020588237792253494)
(X_511  0.01666666939854622)
(X_512  0.11274509876966476)
(X_513  0.012745101936161518)
(X_514  0.012745101936161518)
(X_515  0.11666666716337204)
(X_516  0.11666666716337204)
(X_517  0.11666666716337204)
(X_518  0.11666666716337204)
(X_519  0.12058823555707932)
(X_520  0.12058823555707932)
(X_521  0.12058823555707932)
(X_522  0.12450980395078659)
(X_523  0.02450980618596077)
(X_524  0.020588237792253494)
(X_525  0.020588237792253494)
(X_526  0.01666666939854622)
(X_527  0.012745101936161518)
(X_528  0.020588237792253494)
(X_529  0.020588237792253494)
(X_530  0.01666666939854622)
(X_531  0.01666666939854622)
(X_532  0.020588237792253494)
(X_533  0.020588237792253494)
(X_534  0.01666666939854622)
(X_535  0.012745101936161518)
(X_536  0.008823529817163944)
(X_537  0.004901961423456669)
(X_538  0.004901961423456669)
(X_539  0.0009803927969187498)
(X_540  0.004901961423456669)
(X_541  0.004901961423456669)
(X_542  0.004901961423456669)
(X_543  0.10490196198225021)
(X_544  0.10490196198225021)
(X_545  0.004901961423456669)
(X_546  0.004901961423456669)
(X_547  0.10490196198225021)
(X_548  0.10882353037595749)
(X_549  0.10882353037595749)
(X_550  0.11274509876966476)
(X_551  0.012745101936161518)
(X_552  0.012745101936161518)
(X_553  0.008823529817163944)
(X_554  0.004901961423456669)
(X_555  0.004901961423456669)
(X_556  0.11274509876966476)
(X_557  0.11274509876966476)
(X_558  0.012745101936161518)
(X_559  0.012745101936161518)
(X_560  0.012745101936161518)
(X_561  0.012745101936161518)
(X_562  0.008823529817163944)
(X_563  0.004901961423456669)
(X_564  0.0009803927969187498)
(X_565  -0.0029411755967885256)
(X_566  -0.006862743757665157)
(X_567  -0.006862743757665157)
(X_568  0.10490196198225021)
(X_569  0.004901961423456669)
(X_570  0.004901961423456669)
(X_571  0.0009803927969187498)
(X_572  0.10098039358854294)
(X_573  0.0009803927969187498)
(X_574  0.0009803927969187498)
(X_575  0.0009803927969187498)
(X_576  0.0009803927969187498)
(X_577  0.10490196198225021)
(X_578  0.008823529817163944)
(X_579  0.008823529817163944)
(X_580  0.008823529817163944)
(X_581  0.008823529817163944)
(X_582  0.004901961423456669)
(X_583  0.004901961423456669)
(X_584  0.008823529817163944)
(X_585  0.10882353037595749)
(X_586  0.012745101936161518)
(X_587  0.11274509876966476)
(X_588  0.10882353037595749)
(X_589  0.10882353037595749)
(X_590  0.10490196198225021)
(X_591  0.0009803927969187498)
(X_592  0.0009803927969187498)
(X_593  -0.0029411755967885256)
(X_594  -0.0029411755967885256)
(X_595  -0.006862743757665157)
(X_596  0.004901961423456669)
(X_597  0.004901961423456669)
(X_598  0.10490196198225021)
(X_599  0.10098039358854294)
(X_600  0.10098039358854294)
(X_601  0.10098039358854294)
(X_602  0.10098039358854294)
(X_603  0.09705882519483566)
(X_604  0.10098039358854294)
(X_605  0.0009803927969187498)
(X_606  0.004901961423456669)
(X_607  0.10882353037595749)
(X_608  0.10882353037595749)
(X_609  0.10882353037595749)
(X_610  0.008823529817163944)
(X_611  0.004901961423456669)
(X_612  0.008823529817163944)
(X_613  0.10882353037595749)
(X_614  0.10882353037595749)
(X_615  0.10882353037595749)
(X_616  0.004901961423456669)
(X_617  0.10490196198225021)
(X_618  0.10490196198225021)
(X_619  0.10490196198225021)
(X_620  0.10098039358854294)
(X_621  0.0009803927969187498)
(X_622  0.0009803927969187498)
(X_623  0.0009803927969187498)
(X_624  0.10490196198225021)
(X_625  0.10490196198225021)
(X_626  0.10098039358854294)
(X_627  0.10098039358854294)
(X_628  0.10098039358854294)
(X_629  0.09705882519483566)
(X_630  0.09705882519483566)
(X_631  0.09705882519483566)
(X_632  0.09705882519483566)
(X_633  0.09705882519483566)
(X_634  0.10098039358854294)
(X_635  0.10490196198225021)
(X_636  0.10882353037595749)
(X_637  0.008823529817163944)
(X_638  0.10490196198225021)
(X_639  0.10490196198225021)
(X_640  0.10490196198225021)
(X_641  0.10490196198225021)
(X_642  0.004901961423456669)
(X_643  0.004901961423456669)
(X_644  0.10490196198225021)
(X_645  0.10490196198225021)
(X_646  0.004901961423456669)
(X_647  0.004901961423456669)
(X_648  0.004901961423456669)
(X_649  0.004901961423456669)
(X_650  0.10882353037595749)
(X_651  0.008823529817163944)
(X_652  0.0009803927969187498)
(X_653  0.0009803927969187498)
(X_654  0.0009803927969187498)
(X_655  -0.0029411755967885256)
(X_656  0.09705882519483566)
(X_657  0.09313725680112839)
(X_658  0.09313725680112839)
(X_659  0.09313725680112839)
(X_660  0.09313725680112839)
(X_661  0.09705882519483566)
(X_662  0.0009803927969187498)
(X_663  0.004901961423456669)
(X_664  0.004901961423456669)
(X_665  0.004901961423456669)
(X_666  0.004901961423456669)
(X_667  0.004901961423456669)
(X_668  0.0009803927969187498)
(X_669  0.0009803927969187498)
(X_670  0.0009803927969187498)
(X_671  0.09705882519483566)
(X_672  -0.006862743757665157)
(X_673  0.09705882519483566)
(X_674  0.09705882519483566)
(X_675  0.10098039358854294)
(X_676  0.10098039358854294)
(X_677  0.09705882519483566)
(X_678  0.09705882519483566)
(X_679  0.09313725680112839)
(X_680  0.10098039358854294)
(X_681  0.10098039358854294)
(X_682  0.10098039358854294)
(X_683  0.09705882519483566)
(X_684  -0.0029411755967885256)
(X_685  0.09313725680112839)
(X_686  0.09313725680112839)
(X_687  0.09313725680112839)
(X_688  0.08921568840742111)
(X_689  0.08921568840742111)
(X_690  0.08921568840742111)
(X_691  0.09313725680112839)
(X_692  0.09313725680112839)
(X_693  0.09705882519483566)
(X_694  0.09705882519483566)
(X_695  0.09705882519483566)
(X_696  0.09705882519483566)
(X_697  -0.0029411755967885256)
(X_698  0.0009803927969187498)
(X_699  0.0009803927969187498)
(X_700  -0.006862743757665157)
(X_701  0.09705882519483566)
(X_702  0.09705882519483566)
(X_703  0.10098039358854294)
(X_704  0.10098039358854294)
(X_705  0.09705882519483566)
(X_706  -0.0029411755967885256)
(X_707  -0.006862743757665157)
(X_708  0.0009803927969187498)
(X_709  0.0009803927969187498)
(X_710  -0.0029411755967885256)
(X_711  -0.0029411755967885256)
(X_712  -0.0029411755967885256)
(X_713  -0.006862743757665157)
(X_714  0.09313725680112839)
(X_715  0.09313725680112839)
(X_716  -0.010784312151372433)
(X_717  -0.010784312151372433)
(X_718  -0.010784312151372433)
(X_719  -0.006862743757665157)
(X_720  -0.006862743757665157)
(X_721  -0.0029411755967885256)
(X_722  -0.0029411755967885256)
(X_723  -0.0029411755967885256)
(X_724  -0.006862743757665157)
(X_725  -0.006862743757665157)
(X_726  -0.0029411755967885256)
(X_727  -0.0029411755967885256)
(X_728  0.09313725680112839)
(X_729  0.09313725680112839)
(X_730  0.09705882519483566)
(X_731  0.09705882519483566)
(X_732  0.09705882519483566)
(X_733  0.09705882519483566)
(X_734  0.09313725680112839)
(X_735  0.09313725680112839)
(X_736  0.0009803927969187498)
(X_737  -0.0029411755967885256)
(X_738  -0.0029411755967885256)
(X_739  -0.0029411755967885256)
(X_740  -0.006862743757665157)
(X_741  -0.006862743757665157)
(X_742  -0.006862743757665157)
(X_743  -0.006862743757665157)
(X_744  -0.010784312151372433)
(X_745  -0.010784312151372433)
(X_746  -0.010784312151372433)
(X_747  -0.010784312151372433)
(X_748  -0.006862743757665157)
(X_749  0.09313725680112839)
(X_750  0.09313725680112839)
(X_751  0.09313725680112839)
(X_752  0.08921568840742111)
(X_753  0.08921568840742111)
(X_754  0.09313725680112839)
(X_755  0.09313725680112839)
(X_756  -0.010784312151372433)
(X_757  -0.006862743757665157)
(X_758  -0.0029411755967885256)
(X_759  -0.0029411755967885256)
(X_760  0.09705882519483566)
(X_761  0.09705882519483566)
(X_762  0.09313725680112839)
(X_763  0.08921568840742111)
(X_764  0.09705882519483566)
(X_765  0.09705882519483566)
(X_766  0.09705882519483566)
(X_767  0.09313725680112839)
(X_768  0.09313725680112839)
(X_769  0.09313725680112839)
(X_770  0.08921568840742111)
(X_771  0.08921568840742111)
(X_772  0.08921568840742111)
(X_773  -0.010784312151372433)
(X_774  -0.010784312151372433)
(X_775  -0.010784312151372433)
(X_776  -0.010784312151372433)
(X_777  -0.010784312151372433)
(X_778  0.08921568840742111)
(X_779  0.09313725680112839)
(X_780  0.08529412001371384)
(X_781  -0.014705880545079708)
(X_782  -0.014705880545079708)
(X_783  -0.010784312151372433)
(Y_0 30.900028228759766)
(Y_1 -2.790794849395752)
(Y_2 23.04029655456543)
(Y_3 -51.67442321777344))