((X_0  0.17549020051956177)
(X_1  0.07549020648002625)
(X_2  0.07941177487373352)
(X_3  0.07941177487373352)
(X_4  0.0833333432674408)
(X_5  0.0833333432674408)
(X_6  0.08725491166114807)
(X_7  0.1872549057006836)
(X_8  0.17549020051956177)
(X_9  0.17549020051956177)
(X_10  0.17941176891326904)
(X_11  0.17941176891326904)
(X_12  0.17941176891326904)
(X_13  0.18333333730697632)
(X_14  0.18333333730697632)
(X_15  0.0833333432674408)
(X_16  0.09509804844856262)
(X_17  0.09509804844856262)
(X_18  0.09117648005485535)
(X_19  0.08725491166114807)
(X_20  0.18333333730697632)
(X_21  0.17941176891326904)
(X_22  0.17549020051956177)
(X_23  0.07549020648002625)
(X_24  0.17941176891326904)
(X_25  0.17941176891326904)
(X_26  0.07941177487373352)
(X_27  0.17549020051956177)
(X_28  0.1558823585510254)
(X_29  0.15980392694473267)
(X_30  0.05980392172932625)
(X_31  0.05980392172932625)
(X_32  0.06372549384832382)
(X_33  0.06372549384832382)
(X_34  0.0676470622420311)
(X_35  0.0676470622420311)
(X_36  0.07156863063573837)
(X_37  0.07156863063573837)
(X_38  0.07549020648002625)
(X_39  0.07549020648002625)
(X_40  0.07549020648002625)
(X_41  0.07941177487373352)
(X_42  0.17941176891326904)
(X_43  0.17941176891326904)
(X_44  0.18333333730697632)
(X_45  0.17941176891326904)
(X_46  0.17941176891326904)
(X_47  0.07549020648002625)
(X_48  0.07156863063573837)
(X_49  0.0676470622420311)
(X_50  0.0676470622420311)
(X_51  0.06372549384832382)
(X_52  0.1872549057006836)
(X_53  0.1872549057006836)
(X_54  0.08725491166114807)
(X_55  0.1872549057006836)
(X_56  0.14803922176361084)
(X_57  0.04803921654820442)
(X_58  0.04803921654820442)
(X_59  0.0519607849419117)
(X_60  0.0519607849419117)
(X_61  0.0519607849419117)
(X_62  0.0519607849419117)
(X_63  0.05588235333561897)
(X_64  0.06372549384832382)
(X_65  0.06372549384832382)
(X_66  0.0676470622420311)
(X_67  0.0676470622420311)
(X_68  0.16764706373214722)
(X_69  0.1715686321258545)
(X_70  0.07156863063573837)
(X_71  0.07156863063573837)
(X_72  0.0676470622420311)
(X_73  0.0676470622420311)
(X_74  0.06372549384832382)
(X_75  0.05980392172932625)
(X_76  0.15980392694473267)
(X_77  0.1558823585510254)
(X_78  0.15196079015731812)
(X_79  0.15196079015731812)
(X_80  0.18333333730697632)
(X_81  0.18333333730697632)
(X_82  0.0833333432674408)
(X_83  0.17941176891326904)
(X_84  0.1558823585510254)
(X_85  0.05588235333561897)
(X_86  0.1558823585510254)
(X_87  0.1558823585510254)
(X_88  0.1558823585510254)
(X_89  0.1558823585510254)
(X_90  0.1558823585510254)
(X_91  0.05588235333561897)
(X_92  0.1558823585510254)
(X_93  0.05980392172932625)
(X_94  0.05980392172932625)
(X_95  0.05980392172932625)
(X_96  0.06372549384832382)
(X_97  0.06372549384832382)
(X_98  0.16372549533843994)
(X_99  0.16764706373214722)
(X_100  0.15980392694473267)
(X_101  0.15980392694473267)
(X_102  0.1558823585510254)
(X_103  0.1558823585510254)
(X_104  0.15196079015731812)
(X_105  0.0519607849419117)
(X_106  0.04803921654820442)
(X_107  0.04803921654820442)
(X_108  0.06372549384832382)
(X_109  0.06372549384832382)
(X_110  0.06372549384832382)
(X_111  0.15980392694473267)
(X_112  0.06372549384832382)
(X_113  0.16372549533843994)
(X_114  0.16372549533843994)
(X_115  0.16372549533843994)
(X_116  0.15980392694473267)
(X_117  0.05980392172932625)
(X_118  0.05980392172932625)
(X_119  0.05980392172932625)
(X_120  0.0519607849419117)
(X_121  0.0519607849419117)
(X_122  0.05588235333561897)
(X_123  0.05588235333561897)
(X_124  0.05588235333561897)
(X_125  0.05980392172932625)
(X_126  0.05980392172932625)
(X_127  0.05980392172932625)
(X_128  0.15980392694473267)
(X_129  0.15980392694473267)
(X_130  0.1558823585510254)
(X_131  0.1558823585510254)
(X_132  0.1558823585510254)
(X_133  0.1558823585510254)
(X_134  0.0519607849419117)
(X_135  0.15196079015731812)
(X_136  0.0519607849419117)
(X_137  0.0519607849419117)
(X_138  0.15196079015731812)
(X_139  0.14803922176361084)
(X_140  0.16372549533843994)
(X_141  0.16372549533843994)
(X_142  0.16372549533843994)
(X_143  0.15980392694473267)
(X_144  0.15980392694473267)
(X_145  0.05980392172932625)
(X_146  0.05588235333561897)
(X_147  0.1558823585510254)
(X_148  0.15196079015731812)
(X_149  0.15196079015731812)
(X_150  0.15196079015731812)
(X_151  0.1558823585510254)
(X_152  0.1558823585510254)
(X_153  0.1558823585510254)
(X_154  0.15980392694473267)
(X_155  0.15980392694473267)
(X_156  0.15980392694473267)
(X_157  0.15980392694473267)
(X_158  0.15980392694473267)
(X_159  0.15980392694473267)
(X_160  0.15980392694473267)
(X_161  0.15980392694473267)
(X_162  0.15980392694473267)
(X_163  0.15980392694473267)
(X_164  0.1558823585510254)
(X_165  0.05588235333561897)
(X_166  0.1558823585510254)
(X_167  0.15196079015731812)
(X_168  0.0676470622420311)
(X_169  0.16764706373214722)
(X_170  0.0676470622420311)
(X_171  0.16372549533843994)
(X_172  0.16372549533843994)
(X_173  0.05980392172932625)
(X_174  0.05980392172932625)
(X_175  0.05980392172932625)
(X_176  0.0519607849419117)
(X_177  0.0519607849419117)
(X_178  0.0519607849419117)
(X_179  0.1558823585510254)
(X_180  0.1558823585510254)
(X_181  0.1558823585510254)
(X_182  0.05980392172932625)
(X_183  0.05980392172932625)
(X_184  0.15980392694473267)
(X_185  0.15980392694473267)
(X_186  0.15980392694473267)
(X_187  0.15980392694473267)
(X_188  0.15980392694473267)
(X_189  0.06372549384832382)
(X_190  0.06372549384832382)
(X_191  0.16372549533843994)
(X_192  0.15980392694473267)
(X_193  0.15980392694473267)
(X_194  0.1558823585510254)
(X_195  0.1558823585510254)
(X_196  0.07941177487373352)
(X_197  0.17941176891326904)
(X_198  0.17549020051956177)
(X_199  0.07549020648002625)
(X_200  0.1715686321258545)
(X_201  0.1715686321258545)
(X_202  0.0676470622420311)
(X_203  0.0676470622420311)
(X_204  0.0519607849419117)
(X_205  0.0519607849419117)
(X_206  0.0519607849419117)
(X_207  0.1558823585510254)
(X_208  0.05588235333561897)
(X_209  0.05980392172932625)
(X_210  0.05980392172932625)
(X_211  0.05980392172932625)
(X_212  0.15980392694473267)
(X_213  0.15980392694473267)
(X_214  0.15980392694473267)
(X_215  0.15980392694473267)
(X_216  0.15980392694473267)
(X_217  0.15980392694473267)
(X_218  0.16372549533843994)
(X_219  0.16372549533843994)
(X_220  0.1558823585510254)
(X_221  0.05588235333561897)
(X_222  0.0519607849419117)
(X_223  0.15196079015731812)
(X_224  0.25196078419685364)
(X_225  0.27941176295280457)
(X_226  0.3068627417087555)
(X_227  0.3029411733150482)
(X_228  0.27156862616539)
(X_229  0.240196093916893)
(X_230  0.22843138873577118)
(X_231  0.23235295712947845)
(X_232  0.18137255311012268)
(X_233  0.17352941632270813)
(X_234  0.114705890417099)
(X_235  0.14803922176361084)
(X_236  0.14803922176361084)
(X_237  0.09117648005485535)
(X_238  0.07941177487373352)
(X_239  0.02450980618596077)
(X_240  0.04019607976078987)
(X_241  0.15196079015731812)
(X_242  0.16372549533843994)
(X_243  0.1715686321258545)
(X_244  0.16764706373214722)
(X_245  0.16764706373214722)
(X_246  0.1715686321258545)
(X_247  0.17549020051956177)
(X_248  0.06372549384832382)
(X_249  0.06372549384832382)
(X_250  0.06372549384832382)
(X_251  0.16372549533843994)
(X_252  0.29901960492134094)
(X_253  0.28333333134651184)
(X_254  0.26764705777168274)
(X_255  0.3715686500072479)
(X_256  0.3911764919757843)
(X_257  0.40294119715690613)
(X_258  0.40294119715690613)
(X_259  0.3950980603694916)
(X_260  0.29509803652763367)
(X_261  0.26764705777168274)
(X_262  0.35196080803871155)
(X_263  0.3245098292827606)
(X_264  0.25)
(X_265  0.16764706373214722)
(X_266  0.15980392694473267)
(X_267  0.19901961088180542)
(X_268  0.19117647409439087)
(X_269  0.20686274766921997)
(X_270  0.22254902124404907)
(X_271  0.12647059559822083)
(X_272  0.11078432202339172)
(X_273  0.18333333730697632)
(X_274  0.06372549384832382)
(X_275  0.0519607849419117)
(X_276  0.05588235333561897)
(X_277  0.0519607849419117)
(X_278  0.0519607849419117)
(X_279  0.0519607849419117)
(X_280  0.2598039209842682)
(X_281  0.25196078419685364)
(X_282  0.240196093916893)
(X_283  0.240196093916893)
(X_284  0.24803923070430756)
(X_285  0.3637255132198334)
(X_286  0.3754902184009552)
(X_287  0.38333335518836975)
(X_288  0.3186274468898773)
(X_289  0.26372548937797546)
(X_290  0.240196093916893)
(X_291  0.36764708161354065)
(X_292  0.3715686500072479)
(X_293  0.24803923070430756)
(X_294  0.2558823525905609)
(X_295  0.29509803652763367)
(X_296  0.3284313976764679)
(X_297  0.25196078419685364)
(X_298  0.2872548997402191)
(X_299  0.31078431010246277)
(X_300  0.4264706075191498)
(X_301  0.43039217591285706)
(X_302  0.43431374430656433)
(X_303  0.3382352888584137)
(X_304  0.2754901945590973)
(X_305  0.2754901945590973)
(X_306  0.27156862616539)
(X_307  0.26764705777168274)
(X_308  0.40294119715690613)
(X_309  0.44607844948768616)
(X_310  0.48137256503105164)
(X_311  0.36176469922065735)
(X_312  0.31078431010246277)
(X_313  0.2911764681339264)
(X_314  0.3186274468898773)
(X_315  0.3578431308269501)
(X_316  0.45588237047195435)
(X_317  0.4323529303073883)
(X_318  0.36176469922065735)
(X_319  0.3794117867946625)
(X_320  0.3480392396450043)
(X_321  0.26372548937797546)
(X_322  0.26764705777168274)
(X_323  0.3480392396450043)
(X_324  0.31470587849617004)
(X_325  0.3225490152835846)
(X_326  0.33039215207099915)
(X_327  0.43039217591285706)
(X_328  0.4264706075191498)
(X_329  0.3225490152835846)
(X_330  0.32647058367729187)
(X_331  0.3343137204647064)
(X_332  0.46176472306251526)
(X_333  0.457843154668808)
(X_334  0.3539215624332428)
(X_335  0.3499999940395355)
(X_336  0.41274508833885193)
(X_337  0.5558823943138123)
(X_338  0.5872549414634705)
(X_339  0.5715686678886414)
(X_340  0.5284313559532166)
(X_341  0.5088235139846802)
(X_342  0.44019606709480286)
(X_343  0.4833333492279053)
(X_344  0.42843136191368103)
(X_345  0.4950980544090271)
(X_346  0.5186274647712708)
(X_347  0.4362744987010956)
(X_348  0.32647058367729187)
(X_349  0.27941176295280457)
(X_350  0.3950980603694916)
(X_351  0.4225490391254425)
(X_352  0.3794117867946625)
(X_353  0.39901962876319885)
(X_354  0.4225490391254425)
(X_355  0.3382352888584137)
(X_356  0.3382352888584137)
(X_357  0.43039217591285706)
(X_358  0.4225490391254425)
(X_359  0.4225490391254425)
(X_360  0.31470587849617004)
(X_361  0.31078431010246277)
(X_362  0.3068627417087555)
(X_363  0.3029411733150482)
(X_364  0.240196093916893)
(X_365  0.22843138873577118)
(X_366  0.22058825194835663)
(X_367  0.3245098292827606)
(X_368  0.344117671251297)
(X_369  0.27156862616539)
(X_370  0.29901960492134094)
(X_371  0.31470587849617004)
(X_372  0.31470587849617004)
(X_373  0.3186274468898773)
(X_374  0.3696078360080719)
(X_375  0.5049019455909729)
(X_376  0.41470590233802795)
(X_377  0.2539215683937073)
(X_378  0.0833333432674408)
(X_379  0.21078431606292725)
(X_380  0.25784313678741455)
(X_381  0.3127451241016388)
(X_382  0.3950980603694916)
(X_383  0.3696078360080719)
(X_384  0.41274508833885193)
(X_385  0.42843136191368103)
(X_386  0.42450979351997375)
(X_387  0.4205882251262665)
(X_388  0.46568629145622253)
(X_389  0.46176472306251526)
(X_390  0.46176472306251526)
(X_391  0.457843154668808)
(X_392  0.3088235557079315)
(X_393  0.29313725233078003)
(X_394  0.2813725471496582)
(X_395  0.29313725233078003)
(X_396  0.3245098292827606)
(X_397  0.3558823764324188)
(X_398  0.3754902184009552)
(X_399  0.3794117867946625)
(X_400  0.27352941036224365)
(X_401  0.23039215803146362)
(X_402  0.27352941036224365)
(X_403  0.4107843339443207)
(X_404  0.4735294282436371)
(X_405  0.3225490152835846)
(X_406  0.26764705777168274)
(X_407  0.3715686500072479)
(X_408  0.3029411733150482)
(X_409  0.34607842564582825)
(X_410  0.40882351994514465)
(X_411  0.45588237047195435)
(X_412  0.479411780834198)
(X_413  0.47156864404678345)
(X_414  0.5558823943138123)
(X_415  0.5441176295280457)
(X_416  0.522549033164978)
(X_417  0.522549033164978)
(X_418  0.5186274647712708)
(X_419  0.5186274647712708)
(X_420  0.114705890417099)
(X_421  0.14215686917304993)
(X_422  0.17352941632270813)
(X_423  0.1774509847164154)
(X_424  0.1617647111415863)
(X_425  0.15784314274787903)
(X_426  0.16960784792900085)
(X_427  0.18529412150382996)
(X_428  0.23039215803146362)
(X_429  0.12647059559822083)
(X_430  0.1303921639919281)
(X_431  0.15392157435417175)
(X_432  0.19705882668495178)
(X_433  0.344117671251297)
(X_434  0.3715686500072479)
(X_435  0.27941176295280457)
(X_436  0.3480392396450043)
(X_437  0.3637255132198334)
(X_438  0.38333335518836975)
(X_439  0.3911764919757843)
(X_440  0.387254923582077)
(X_441  0.27941176295280457)
(X_442  0.2754901945590973)
(X_443  0.27156862616539)
(X_444  0.27156862616539)
(X_445  0.27156862616539)
(X_446  0.26764705777168274)
(X_447  0.36764708161354065)
(X_448  0.19901961088180542)
(X_449  0.09509804844856262)
(X_450  0.19509804248809814)
(X_451  0.2029411792755127)
(X_452  0.21078431606292725)
(X_453  0.21078431606292725)
(X_454  0.20686274766921997)
(X_455  0.19901961088180542)
(X_456  0.18333333730697632)
(X_457  0.18333333730697632)
(X_458  0.1715686321258545)
(X_459  0.1715686321258545)
(X_460  0.21078431606292725)
(X_461  0.2813725471496582)
(X_462  0.3284313976764679)
(X_463  0.3480392396450043)
(X_464  0.2245098203420639)
(X_465  0.18921568989753723)
(X_466  0.2617647051811218)
(X_467  0.2656862735748291)
(X_468  0.29313725233078003)
(X_469  0.30098041892051697)
(X_470  0.2696078419685364)
(X_471  0.2343137264251709)
(X_472  0.25)
(X_473  0.25)
(X_474  0.24607843160629272)
(X_475  0.24215686321258545)
(X_476  0.07549020648002625)
(X_477  0.07156863063573837)
(X_478  0.1715686321258545)
(X_479  0.17549020051956177)
(X_480  0.0833333432674408)
(X_481  0.08725491166114807)
(X_482  0.07941177487373352)
(X_483  0.07156863063573837)
(X_484  0.15980392694473267)
(X_485  0.16372549533843994)
(X_486  0.15980392694473267)
(X_487  0.05980392172932625)
(X_488  0.09509804844856262)
(X_489  0.14215686917304993)
(X_490  0.17352941632270813)
(X_491  0.18137255311012268)
(X_492  0.16960784792900085)
(X_493  0.13823530077934265)
(X_494  0.114705890417099)
(X_495  0.21078431606292725)
(X_496  0.22647058963775635)
(X_497  0.22647058963775635)
(X_498  0.2029411792755127)
(X_499  0.1715686321258545)
(X_500  0.10686275362968445)
(X_501  0.10686275362968445)
(X_502  0.10686275362968445)
(X_503  0.10686275362968445)
(X_504  0.15196079015731812)
(X_505  0.04803921654820442)
(X_506  0.14803922176361084)
(X_507  0.15196079015731812)
(X_508  0.05980392172932625)
(X_509  0.06372549384832382)
(X_510  0.05588235333561897)
(X_511  0.0519607849419117)
(X_512  0.036274511367082596)
(X_513  0.04803921654820442)
(X_514  0.0519607849419117)
(X_515  0.0519607849419117)
(X_516  0.07549020648002625)
(X_517  0.10294118523597717)
(X_518  0.114705890417099)
(X_519  0.10686275362968445)
(X_520  0.11078432202339172)
(X_521  0.09509804844856262)
(X_522  0.07941177487373352)
(X_523  0.07941177487373352)
(X_524  0.0833333432674408)
(X_525  0.07941177487373352)
(X_526  0.0676470622420311)
(X_527  0.15196079015731812)
(X_528  0.0676470622420311)
(X_529  0.0676470622420311)
(X_530  0.0676470622420311)
(X_531  0.07156863063573837)
(X_532  0.14411765336990356)
(X_533  0.1401960849761963)
(X_534  0.1401960849761963)
(X_535  0.14411765336990356)
(X_536  0.15196079015731812)
(X_537  0.05588235333561897)
(X_538  0.04803921654820442)
(X_539  0.04019607976078987)
(X_540  0.03235294297337532)
(X_541  0.04019607976078987)
(X_542  0.04411764815449715)
(X_543  0.04411764815449715)
(X_544  0.05588235333561897)
(X_545  0.07941177487373352)
(X_546  0.07941177487373352)
(X_547  0.0676470622420311)
(X_548  0.15980392694473267)
(X_549  0.15980392694473267)
(X_550  0.05980392172932625)
(X_551  0.15980392694473267)
(X_552  0.16372549533843994)
(X_553  0.16764706373214722)
(X_554  0.16372549533843994)
(X_555  0.16372549533843994)
(X_556  0.1558823585510254)
(X_557  0.05588235333561897)
(X_558  0.05588235333561897)
(X_559  0.15980392694473267)
(X_560  0.13235294818878174)
(X_561  0.028431374579668045)
(X_562  0.12843137979507446)
(X_563  0.03235294297337532)
(X_564  0.04019607976078987)
(X_565  0.04411764815449715)
(X_566  0.036274511367082596)
(X_567  0.03235294297337532)
(X_568  0.02450980618596077)
(X_569  0.028431374579668045)
(X_570  0.02450980618596077)
(X_571  0.020588237792253494)
(X_572  0.03235294297337532)
(X_573  0.05588235333561897)
(X_574  0.06372549384832382)
(X_575  0.0519607849419117)
(X_576  0.028431374579668045)
(X_577  0.03235294297337532)
(X_578  0.03235294297337532)
(X_579  0.136274516582489)
(X_580  0.136274516582489)
(X_581  0.1401960849761963)
(X_582  0.14411765336990356)
(X_583  0.14803922176361084)
(X_584  0.1558823585510254)
(X_585  0.0519607849419117)
(X_586  0.0519607849419117)
(X_587  0.0519607849419117)
(X_588  0.11666666716337204)
(X_589  0.012745101936161518)
(X_590  0.012745101936161518)
(X_591  0.11666666716337204)
(X_592  0.12450980395078659)
(X_593  0.028431374579668045)
(X_594  0.12058823555707932)
(X_595  0.11274509876966476)
(X_596  0.10882353037595749)
(X_597  0.11274509876966476)
(X_598  0.004901961423456669)
(X_599  -0.0029411755967885256)
(X_600  0.008823529817163944)
(X_601  0.036274511367082596)
(X_602  0.04411764815449715)
(X_603  0.03235294297337532)
(X_604  0.036274511367082596)
(X_605  0.13235294818878174)
(X_606  0.12843137979507446)
(X_607  0.12843137979507446)
(X_608  0.12843137979507446)
(X_609  0.12450980395078659)
(X_610  0.12058823555707932)
(X_611  0.12058823555707932)
(X_612  0.04019607976078987)
(X_613  0.04019607976078987)
(X_614  0.136274516582489)
(X_615  0.136274516582489)
(X_616  0.10882353037595749)
(X_617  0.004901961423456669)
(X_618  0.10490196198225021)
(X_619  0.10882353037595749)
(X_620  0.11666666716337204)
(X_621  0.12058823555707932)
(X_622  0.012745101936161518)
(X_623  0.10490196198225021)
(X_624  0.10098039358854294)
(X_625  0.10882353037595749)
(X_626  0.10098039358854294)
(X_627  0.09313725680112839)
(X_628  0.10490196198225021)
(X_629  0.12450980395078659)
(X_630  0.12843137979507446)
(X_631  0.11274509876966476)
(X_632  0.04019607976078987)
(X_633  0.03235294297337532)
(X_634  0.020588237792253494)
(X_635  0.020588237792253494)
(X_636  0.12843137979507446)
(X_637  0.12843137979507446)
(X_638  0.12058823555707932)
(X_639  0.10882353037595749)
(X_640  0.12450980395078659)
(X_641  0.12450980395078659)
(X_642  0.12450980395078659)
(X_643  0.12058823555707932)
(X_644  0.10882353037595749)
(X_645  0.004901961423456669)
(X_646  0.10490196198225021)
(X_647  0.11274509876966476)
(X_648  0.12058823555707932)
(X_649  0.12058823555707932)
(X_650  0.11666666716337204)
(X_651  0.008823529817163944)
(X_652  0.10490196198225021)
(X_653  0.012745101936161518)
(X_654  0.012745101936161518)
(X_655  0.008823529817163944)
(X_656  0.01666666939854622)
(X_657  0.028431374579668045)
(X_658  0.020588237792253494)
(X_659  0.0009803927969187498)
(X_660  0.11274509876966476)
(X_661  0.10098039358854294)
(X_662  0.09313725680112839)
(X_663  0.0009803927969187498)
(X_664  0.01666666939854622)
(X_665  0.02450980618596077)
(X_666  0.012745101936161518)
(X_667  0.0009803927969187498)
(X_668  0.012745101936161518)
(X_669  0.012745101936161518)
(X_670  0.01666666939854622)
(X_671  0.12058823555707932)
(X_672  0.09313725680112839)
(X_673  0.0009803927969187498)
(X_674  0.004901961423456669)
(X_675  0.004901961423456669)
(X_676  0.09705882519483566)
(X_677  0.09313725680112839)
(X_678  0.10098039358854294)
(X_679  0.10490196198225021)
(X_680  0.004901961423456669)
(X_681  0.10490196198225021)
(X_682  0.10490196198225021)
(X_683  0.10490196198225021)
(X_684  0.10490196198225021)
(X_685  0.004901961423456669)
(X_686  0.004901961423456669)
(X_687  0.004901961423456669)
(X_688  0.10490196198225021)
(X_689  0.10098039358854294)
(X_690  0.0009803927969187498)
(X_691  0.0009803927969187498)
(X_692  0.10098039358854294)
(X_693  0.004901961423456669)
(X_694  0.012745101936161518)
(X_695  0.012745101936161518)
(X_696  0.020588237792253494)
(X_697  0.12058823555707932)
(X_698  0.12058823555707932)
(X_699  0.12843137979507446)
(X_700  0.08529412001371384)
(X_701  -0.006862743757665157)
(X_702  0.10098039358854294)
(X_703  0.0009803927969187498)
(X_704  -0.0029411755967885256)
(X_705  -0.006862743757665157)
(X_706  -0.0029411755967885256)
(X_707  0.004901961423456669)
(X_708  0.0009803927969187498)
(X_709  0.0009803927969187498)
(X_710  0.0009803927969187498)
(X_711  0.10098039358854294)
(X_712  0.10098039358854294)
(X_713  0.0009803927969187498)
(X_714  0.0009803927969187498)
(X_715  0.0009803927969187498)
(X_716  0.008823529817163944)
(X_717  0.004901961423456669)
(X_718  0.0009803927969187498)
(X_719  -0.0029411755967885256)
(X_720  -0.0029411755967885256)
(X_721  0.0009803927969187498)
(X_722  0.004901961423456669)
(X_723  0.10882353037595749)
(X_724  0.012745101936161518)
(X_725  0.10490196198225021)
(X_726  0.10490196198225021)
(X_727  0.10490196198225021)
(X_728  0.13235294818878174)
(X_729  0.04019607976078987)
(X_730  0.15196079015731812)
(X_731  0.1558823585510254)
(X_732  0.15196079015731812)
(X_733  0.15196079015731812)
(X_734  0.15980392694473267)
(X_735  0.16372549533843994)
(X_736  0.1558823585510254)
(X_737  0.05588235333561897)
(X_738  0.05588235333561897)
(X_739  0.05588235333561897)
(X_740  0.05588235333561897)
(X_741  0.1558823585510254)
(X_742  0.1558823585510254)
(X_743  0.1558823585510254)
(X_744  0.15980392694473267)
(X_745  0.1558823585510254)
(X_746  0.14803922176361084)
(X_747  0.04019607976078987)
(X_748  0.1401960849761963)
(X_749  0.1401960849761963)
(X_750  0.1401960849761963)
(X_751  0.14411765336990356)
(X_752  0.14411765336990356)
(X_753  0.136274516582489)
(X_754  0.12450980395078659)
(X_755  0.12058823555707932)
(X_756  0.7833333611488342)
(X_757  0.6950980424880981)
(X_758  0.70686274766922)
(X_759  0.7147058844566345)
(X_760  0.7147058844566345)
(X_761  0.8147059082984924)
(X_762  0.822549045085907)
(X_763  0.8264706134796143)
(X_764  0.8147059082984924)
(X_765  0.8147059082984924)
(X_766  0.7147058844566345)
(X_767  0.7147058844566345)
(X_768  0.7147058844566345)
(X_769  0.7147058844566345)
(X_770  0.7147058844566345)
(X_771  0.7147058844566345)
(X_772  0.7107843160629272)
(X_773  0.7029411792755127)
(X_774  0.6911764740943909)
(X_775  0.6833333373069763)
(X_776  0.6754902005195618)
(X_777  0.6754902005195618)
(X_778  0.6754902005195618)
(X_779  0.679411768913269)
(X_780  0.6833333373069763)
(X_781  0.6676470637321472)
(X_782  0.6480392217636108)
(X_783  0.636274516582489)
(Y_0 -14.315125465393066)
(Y_1 26.07769012451172)
(Y_2 -10.320021629333496)
(Y_3 1.1573786735534668))