((X_0  1.0499999523162842)
(X_1  0.9460784196853638)
(X_2  0.9460784196853638)
(X_3  0.9460784196853638)
(X_4  1.0499999523162842)
(X_5  1.0499999523162842)
(X_6  1.0499999523162842)
(X_7  0.949999988079071)
(X_8  1.0499999523162842)
(X_9  1.0499999523162842)
(X_10  1.0460784435272217)
(X_11  0.9421568512916565)
(X_12  0.9421568512916565)
(X_13  1.0421568155288696)
(X_14  1.0460784435272217)
(X_15  0.9460784196853638)
(X_16  0.949999988079071)
(X_17  0.949999988079071)
(X_18  0.9460784196853638)
(X_19  0.949999988079071)
(X_20  1.0499999523162842)
(X_21  1.0499999523162842)
(X_22  1.034313678741455)
(X_23  0.9264705777168274)
(X_24  1.0421568155288696)
(X_25  1.0460784435272217)
(X_26  1.0499999523162842)
(X_27  1.0499999523162842)
(X_28  1.0460784435272217)
(X_29  1.0460784435272217)
(X_30  0.9460784196853638)
(X_31  1.0421568155288696)
(X_32  0.9421568512916565)
(X_33  0.9382352828979492)
(X_34  0.9343137145042419)
(X_35  1.0303921699523926)
(X_36  0.9460784196853638)
(X_37  0.949999988079071)
(X_38  0.949999988079071)
(X_39  0.949999988079071)
(X_40  0.949999988079071)
(X_41  0.949999988079071)
(X_42  0.949999988079071)
(X_43  0.9421568512916565)
(X_44  0.9343137145042419)
(X_45  1.0460784435272217)
(X_46  1.0499999523162842)
(X_47  0.949999988079071)
(X_48  0.9421568512916565)
(X_49  0.9460784196853638)
(X_50  0.949999988079071)
(X_51  0.949999988079071)
(X_52  1.0499999523162842)
(X_53  1.0499999523162842)
(X_54  1.0499999523162842)
(X_55  1.0499999523162842)
(X_56  1.0499999523162842)
(X_57  0.949999988079071)
(X_58  0.949999988079071)
(X_59  0.9460784196853638)
(X_60  0.9343137145042419)
(X_61  0.9225490093231201)
(X_62  0.9107843041419983)
(X_63  0.9029411673545837)
(X_64  0.9754902124404907)
(X_65  0.8676470518112183)
(X_66  0.8519607782363892)
(X_67  0.8362745046615601)
(X_68  0.820588231086731)
(X_69  0.8127450942993164)
(X_70  0.8088235259056091)
(X_71  0.8049019575119019)
(X_72  0.7656862735748291)
(X_73  0.75)
(X_74  0.7264705896377563)
(X_75  0.70686274766922)
(X_76  0.7872549295425415)
(X_77  0.7598039507865906)
(X_78  0.7205882668495178)
(X_79  0.6892157196998596)
(X_80  0.6617647409439087)
(X_81  0.6539216041564941)
(X_82  0.5460784435272217)
(X_83  0.6343137621879578)
(X_84  0.46176472306251526)
(X_85  0.45000001788139343)
(X_86  0.4264706075191498)
(X_87  0.40294119715690613)
(X_88  0.3794117867946625)
(X_89  0.3598039448261261)
(X_90  0.24803923070430756)
(X_91  0.240196093916893)
(X_92  0.344117671251297)
(X_93  0.21666668355464935)
(X_94  0.1774509847164154)
(X_95  0.1460784375667572)
(X_96  0.2343137264251709)
(X_97  0.25)
(X_98  0.27352941036224365)
(X_99  0.29313725233078003)
(X_100  0.3637255132198334)
(X_101  0.33235296607017517)
(X_102  0.2656862735748291)
(X_103  0.19509804248809814)
(X_104  0.05588235333561897)
(X_105  0.05980392172932625)
(X_106  0.07549020648002625)
(X_107  0.0833333432674408)
(X_108  0.03235294297337532)
(X_109  0.028431374579668045)
(X_110  0.020588237792253494)
(X_111  0.12058823555707932)
(X_112  0.08725491166114807)
(X_113  0.07549020648002625)
(X_114  0.05588235333561897)
(X_115  0.036274511367082596)
(X_116  0.02450980618596077)
(X_117  0.020588237792253494)
(X_118  0.02450980618596077)
(X_119  0.028431374579668045)
(X_120  0.012745101936161518)
(X_121  0.012745101936161518)
(X_122  0.02450980618596077)
(X_123  0.05980392172932625)
(X_124  0.2186274528503418)
(X_125  0.19705882668495178)
(X_126  0.27156862616539)
(X_127  0.31470587849617004)
(X_128  0.4421568810939789)
(X_129  0.4892157018184662)
(X_130  0.49705883860588074)
(X_131  0.4107843339443207)
(X_132  0.2852941155433655)
(X_133  0.18333333730697632)
(X_134  0.11666666716337204)
(X_135  0.08529412001371384)
(X_136  0.14411765336990356)
(X_137  0.1401960849761963)
(X_138  0.136274516582489)
(X_139  0.1401960849761963)
(X_140  0.10882353037595749)
(X_141  0.11274509876966476)
(X_142  0.12058823555707932)
(X_143  0.1401960849761963)
(X_144  0.17549020051956177)
(X_145  0.114705890417099)
(X_146  0.15000000596046448)
(X_147  0.2696078419685364)
(X_148  0.36764708161354065)
(X_149  0.3637255132198334)
(X_150  0.25196078419685364)
(X_151  0.240196093916893)
(X_152  0.3245098292827606)
(X_153  0.3088235557079315)
(X_154  0.2970588207244873)
(X_155  0.29313725233078003)
(X_156  0.16960784792900085)
(X_157  0.3284313976764679)
(X_158  0.3950980603694916)
(X_159  0.44607844948768616)
(X_160  0.4735294282436371)
(X_161  0.3382352888584137)
(X_162  0.22058825194835663)
(X_163  0.2029411792755127)
(X_164  0.05980392172932625)
(X_165  0.04019607976078987)
(X_166  0.02450980618596077)
(X_167  0.11666666716337204)
(X_168  0.1460784375667572)
(X_169  0.25784313678741455)
(X_170  0.2813725471496582)
(X_171  0.3127451241016388)
(X_172  0.3480392396450043)
(X_173  0.28333333134651184)
(X_174  0.31078431010246277)
(X_175  0.32647058367729187)
(X_176  0.33627453446388245)
(X_177  0.24803923070430756)
(X_178  0.26372548937797546)
(X_179  0.2754901945590973)
(X_180  0.3754902184009552)
(X_181  0.26372548937797546)
(X_182  0.24803923070430756)
(X_183  0.33627453446388245)
(X_184  0.3950980603694916)
(X_185  0.3598039448261261)
(X_186  0.3088235557079315)
(X_187  0.30098041892051697)
(X_188  0.3715686500072479)
(X_189  0.34215685725212097)
(X_190  0.32647058367729187)
(X_191  0.3637255132198334)
(X_192  0.25)
(X_193  0.21078431606292725)
(X_194  0.05980392172932625)
(X_195  0.028431374579668045)
(X_196  0.3382352888584137)
(X_197  0.4421568810939789)
(X_198  0.44607844948768616)
(X_199  0.4421568810939789)
(X_200  0.43431374430656433)
(X_201  0.41862747073173523)
(X_202  0.39901962876319885)
(X_203  0.3911764919757843)
(X_204  0.25196078419685364)
(X_205  0.2558823525905609)
(X_206  0.2558823525905609)
(X_207  0.2558823525905609)
(X_208  0.25196078419685364)
(X_209  0.240196093916893)
(X_210  0.22843138873577118)
(X_211  0.22058825194835663)
(X_212  0.2656862735748291)
(X_213  0.344117671251297)
(X_214  0.387254923582077)
(X_215  0.344117671251297)
(X_216  0.30098041892051697)
(X_217  0.3284313976764679)
(X_218  0.38333335518836975)
(X_219  0.41470590233802795)
(X_220  0.4225490391254425)
(X_221  0.26372548937797546)
(X_222  0.18529412150382996)
(X_223  0.23039215803146362)
(X_224  0.29509803652763367)
(X_225  0.31470587849617004)
(X_226  0.4225490391254425)
(X_227  0.4068627655506134)
(X_228  0.387254923582077)
(X_229  0.28333333134651184)
(X_230  0.27156862616539)
(X_231  0.2558823525905609)
(X_232  0.41470590233802795)
(X_233  0.3186274468898773)
(X_234  0.3578431308269501)
(X_235  0.4009803831577301)
(X_236  0.44019606709480286)
(X_237  0.46764707565307617)
(X_238  0.4009803831577301)
(X_239  0.26764705777168274)
(X_240  0.1774509847164154)
(X_241  0.3127451241016388)
(X_242  0.3598039448261261)
(X_243  0.3637255132198334)
(X_244  0.30490198731422424)
(X_245  0.25784313678741455)
(X_246  0.30098041892051697)
(X_247  0.28333333134651184)
(X_248  0.26764705777168274)
(X_249  0.2872548997402191)
(X_250  0.29901960492134094)
(X_251  0.3911764919757843)
(X_252  0.29509803652763367)
(X_253  0.2754901945590973)
(X_254  0.26372548937797546)
(X_255  0.2558823525905609)
(X_256  0.33627453446388245)
(X_257  0.3284313976764679)
(X_258  0.3715686500072479)
(X_259  0.43431374430656433)
(X_260  0.5186274647712708)
(X_261  0.5029411911964417)
(X_262  0.6068627834320068)
(X_263  0.5147058963775635)
(X_264  0.522549033164978)
(X_265  0.5460784435272217)
(X_266  0.4990196228027344)
(X_267  0.39313724637031555)
(X_268  0.34607842564582825)
(X_269  0.3578431308269501)
(X_270  0.3656862676143646)
(X_271  0.34215685725212097)
(X_272  0.2754901945590973)
(X_273  0.2088235467672348)
(X_274  0.28921568393707275)
(X_275  0.30098041892051697)
(X_276  0.2970588207244873)
(X_277  0.33235296607017517)
(X_278  0.2598039209842682)
(X_279  0.27156862616539)
(X_280  0.4225490391254425)
(X_281  0.3754902184009552)
(X_282  0.3558823764324188)
(X_283  0.2598039209842682)
(X_284  0.23235295712947845)
(X_285  0.3088235557079315)
(X_286  0.36764708161354065)
(X_287  0.4696078598499298)
(X_288  0.44411763548851013)
(X_289  0.4166666567325592)
(X_290  0.40882351994514465)
(X_291  0.4009803831577301)
(X_292  0.4009803831577301)
(X_293  0.44411763548851013)
(X_294  0.44411763548851013)
(X_295  0.3813725411891937)
(X_296  0.3696078360080719)
(X_297  0.3735294044017792)
(X_298  0.3578431308269501)
(X_299  0.32647058367729187)
(X_300  0.3911764919757843)
(X_301  0.35196080803871155)
(X_302  0.2970588207244873)
(X_303  0.15000000596046448)
(X_304  0.13823530077934265)
(X_305  0.2656862735748291)
(X_306  0.18921568989753723)
(X_307  0.18921568989753723)
(X_308  0.49705883860588074)
(X_309  0.47745099663734436)
(X_310  0.4696078598499298)
(X_311  0.3735294044017792)
(X_312  0.34607842564582825)
(X_313  0.31470587849617004)
(X_314  0.32647058367729187)
(X_315  0.36176469922065735)
(X_316  0.3754902184009552)
(X_317  0.3558823764324188)
(X_318  0.3637255132198334)
(X_319  0.36764708161354065)
(X_320  0.26764705777168274)
(X_321  0.31470587849617004)
(X_322  0.34607842564582825)
(X_323  0.31078431010246277)
(X_324  0.26764705777168274)
(X_325  0.2754901945590973)
(X_326  0.3558823764324188)
(X_327  0.3245098292827606)
(X_328  0.3284313976764679)
(X_329  0.3480392396450043)
(X_330  0.32058826088905334)
(X_331  0.2656862735748291)
(X_332  0.20490197837352753)
(X_333  0.2088235467672348)
(X_334  0.19705882668495178)
(X_335  0.16568627953529358)
(X_336  0.31078431010246277)
(X_337  0.43431374430656433)
(X_338  0.43431374430656433)
(X_339  0.41862747073173523)
(X_340  0.4225490391254425)
(X_341  0.43039217591285706)
(X_342  0.29901960492134094)
(X_343  0.24803923070430756)
(X_344  0.30098041892051697)
(X_345  0.29313725233078003)
(X_346  0.21666668355464935)
(X_347  0.23235295712947845)
(X_348  0.22058825194835663)
(X_349  0.24411766231060028)
(X_350  0.2598039209842682)
(X_351  0.3284313976764679)
(X_352  0.3284313976764679)
(X_353  0.33235296607017517)
(X_354  0.30490198731422424)
(X_355  0.2656862735748291)
(X_356  0.2696078419685364)
(X_357  0.3127451241016388)
(X_358  0.33627453446388245)
(X_359  0.3245098292827606)
(X_360  0.33235296607017517)
(X_361  0.33627453446388245)
(X_362  0.2245098203420639)
(X_363  0.19705882668495178)
(X_364  0.14215686917304993)
(X_365  0.17352941632270813)
(X_366  0.17352941632270813)
(X_367  0.25784313678741455)
(X_368  0.28921568393707275)
(X_369  0.3401961028575897)
(X_370  0.2088235467672348)
(X_371  0.1303921639919281)
(X_372  0.11862745881080627)
(X_373  0.114705890417099)
(X_374  0.15392157435417175)
(X_375  0.2852941155433655)
(X_376  0.1774509847164154)
(X_377  0.18921568989753723)
(X_378  0.1931372582912445)
(X_379  0.1617647111415863)
(X_380  0.30098041892051697)
(X_381  0.2970588207244873)
(X_382  0.27352941036224365)
(X_383  0.2343137264251709)
(X_384  0.13431373238563538)
(X_385  0.1774509847164154)
(X_386  0.23235295712947845)
(X_387  0.26764705777168274)
(X_388  0.387254923582077)
(X_389  0.41470590233802795)
(X_390  0.3382352888584137)
(X_391  0.3382352888584137)
(X_392  0.21470588445663452)
(X_393  0.23039215803146362)
(X_394  0.2343137264251709)
(X_395  0.23823529481887817)
(X_396  0.2696078419685364)
(X_397  0.2970588207244873)
(X_398  0.2774509787559509)
(X_399  0.23039215803146362)
(X_400  0.07549020648002625)
(X_401  0.16372549533843994)
(X_402  0.2029411792755127)
(X_403  0.24607843160629272)
(X_404  0.25)
(X_405  0.16568627953529358)
(X_406  0.1774509847164154)
(X_407  0.15392157435417175)
(X_408  0.14215686917304993)
(X_409  0.12647059559822083)
(X_410  0.21470588445663452)
(X_411  0.2029411792755127)
(X_412  0.2029411792755127)
(X_413  0.22254902124404907)
(X_414  0.2774509787559509)
(X_415  0.33627453446388245)
(X_416  0.14215686917304993)
(X_417  0.27352941036224365)
(X_418  0.20098040997982025)
(X_419  0.20490197837352753)
(X_420  0.10686275362968445)
(X_421  0.10294118523597717)
(X_422  0.11862745881080627)
(X_423  0.15000000596046448)
(X_424  0.15784314274787903)
(X_425  0.1303921639919281)
(X_426  0.2029411792755127)
(X_427  0.19117647409439087)
(X_428  0.1558823585510254)
(X_429  0.12843137979507446)
(X_430  0.05588235333561897)
(X_431  0.09117648005485535)
(X_432  0.09117648005485535)
(X_433  0.10294118523597717)
(X_434  0.11862745881080627)
(X_435  0.09509804844856262)
(X_436  0.22254902124404907)
(X_437  0.19509804248809814)
(X_438  0.18333333730697632)
(X_439  0.19117647409439087)
(X_440  0.17941176891326904)
(X_441  0.16764706373214722)
(X_442  0.10294118523597717)
(X_443  0.15392157435417175)
(X_444  0.13431373238563538)
(X_445  0.15000000596046448)
(X_446  0.15000000596046448)
(X_447  0.23039215803146362)
(X_448  0.16372549533843994)
(X_449  0.06372549384832382)
(X_450  0.06372549384832382)
(X_451  0.06372549384832382)
(X_452  0.06372549384832382)
(X_453  0.06372549384832382)
(X_454  0.06372549384832382)
(X_455  0.16372549533843994)
(X_456  0.12843137979507446)
(X_457  0.136274516582489)
(X_458  0.14803922176361084)
(X_459  0.15980392694473267)
(X_460  0.0676470622420311)
(X_461  0.07156863063573837)
(X_462  0.07549020648002625)
(X_463  0.07549020648002625)
(X_464  0.0833333432674408)
(X_465  0.07549020648002625)
(X_466  0.16372549533843994)
(X_467  0.15980392694473267)
(X_468  0.16372549533843994)
(X_469  0.17941176891326904)
(X_470  0.19509804248809814)
(X_471  0.20686274766921997)
(X_472  0.21470588445663452)
(X_473  0.21078431606292725)
(X_474  0.21078431606292725)
(X_475  0.20686274766921997)
(X_476  0.04411764815449715)
(X_477  0.04411764815449715)
(X_478  0.14411765336990356)
(X_479  0.14411765336990356)
(X_480  0.04411764815449715)
(X_481  0.04411764815449715)
(X_482  0.04411764815449715)
(X_483  0.14411765336990356)
(X_484  0.12058823555707932)
(X_485  0.12843137979507446)
(X_486  0.136274516582489)
(X_487  0.04411764815449715)
(X_488  0.0519607849419117)
(X_489  0.05588235333561897)
(X_490  0.05588235333561897)
(X_491  0.05588235333561897)
(X_492  0.05588235333561897)
(X_493  0.0519607849419117)
(X_494  0.04411764815449715)
(X_495  0.036274511367082596)
(X_496  0.1401960849761963)
(X_497  0.14803922176361084)
(X_498  0.1558823585510254)
(X_499  0.06372549384832382)
(X_500  0.1715686321258545)
(X_501  0.07156863063573837)
(X_502  0.0676470622420311)
(X_503  0.06372549384832382)
(X_504  0.020588237792253494)
(X_505  0.020588237792253494)
(X_506  0.020588237792253494)
(X_507  0.020588237792253494)
(X_508  0.020588237792253494)
(X_509  0.020588237792253494)
(X_510  0.12058823555707932)
(X_511  0.12058823555707932)
(X_512  0.012745101936161518)
(X_513  0.11666666716337204)
(X_514  0.12058823555707932)
(X_515  0.12450980395078659)
(X_516  0.028431374579668045)
(X_517  0.028431374579668045)
(X_518  0.028431374579668045)
(X_519  0.028431374579668045)
(X_520  0.03235294297337532)
(X_521  0.028431374579668045)
(X_522  0.02450980618596077)
(X_523  0.020588237792253494)
(X_524  0.020588237792253494)
(X_525  0.12058823555707932)
(X_526  0.12058823555707932)
(X_527  0.12058823555707932)
(X_528  0.03235294297337532)
(X_529  0.028431374579668045)
(X_530  0.028431374579668045)
(X_531  0.02450980618596077)
(X_532  0.10882353037595749)
(X_533  0.10882353037595749)
(X_534  0.10882353037595749)
(X_535  0.10882353037595749)
(X_536  0.008823529817163944)
(X_537  0.008823529817163944)
(X_538  0.008823529817163944)
(X_539  0.10882353037595749)
(X_540  0.008823529817163944)
(X_541  0.10882353037595749)
(X_542  0.11274509876966476)
(X_543  0.012745101936161518)
(X_544  0.012745101936161518)
(X_545  0.012745101936161518)
(X_546  0.008823529817163944)
(X_547  0.008823529817163944)
(X_548  0.12058823555707932)
(X_549  0.12058823555707932)
(X_550  0.020588237792253494)
(X_551  0.12058823555707932)
(X_552  0.12058823555707932)
(X_553  0.11666666716337204)
(X_554  0.11274509876966476)
(X_555  0.012745101936161518)
(X_556  0.11666666716337204)
(X_557  0.11666666716337204)
(X_558  0.11666666716337204)
(X_559  0.11274509876966476)
(X_560  0.10882353037595749)
(X_561  0.008823529817163944)
(X_562  0.008823529817163944)
(X_563  0.008823529817163944)
(X_564  0.008823529817163944)
(X_565  0.008823529817163944)
(X_566  0.008823529817163944)
(X_567  0.008823529817163944)
(X_568  0.10882353037595749)
(X_569  0.10882353037595749)
(X_570  0.10490196198225021)
(X_571  0.004901961423456669)
(X_572  0.0009803927969187498)
(X_573  0.0009803927969187498)
(X_574  0.0009803927969187498)
(X_575  0.0009803927969187498)
(X_576  0.004901961423456669)
(X_577  0.008823529817163944)
(X_578  0.012745101936161518)
(X_579  0.11666666716337204)
(X_580  0.12058823555707932)
(X_581  0.11666666716337204)
(X_582  0.11666666716337204)
(X_583  0.11274509876966476)
(X_584  0.11274509876966476)
(X_585  0.012745101936161518)
(X_586  0.012745101936161518)
(X_587  0.008823529817163944)
(X_588  0.10490196198225021)
(X_589  0.004901961423456669)
(X_590  0.004901961423456669)
(X_591  0.004901961423456669)
(X_592  0.004901961423456669)
(X_593  0.10490196198225021)
(X_594  0.10490196198225021)
(X_595  0.10490196198225021)
(X_596  0.10882353037595749)
(X_597  0.10882353037595749)
(X_598  0.0009803927969187498)
(X_599  0.0009803927969187498)
(X_600  -0.0029411755967885256)
(X_601  -0.0029411755967885256)
(X_602  -0.0029411755967885256)
(X_603  0.0009803927969187498)
(X_604  0.09313725680112839)
(X_605  0.09705882519483566)
(X_606  0.10098039358854294)
(X_607  0.10490196198225021)
(X_608  0.10490196198225021)
(X_609  0.004901961423456669)
(X_610  0.10490196198225021)
(X_611  0.10490196198225021)
(X_612  0.0009803927969187498)
(X_613  0.0009803927969187498)
(X_614  0.0009803927969187498)
(X_615  0.10098039358854294)
(X_616  0.09705882519483566)
(X_617  0.09705882519483566)
(X_618  -0.0029411755967885256)
(X_619  -0.0029411755967885256)
(X_620  0.09705882519483566)
(X_621  0.09705882519483566)
(X_622  0.09705882519483566)
(X_623  0.09705882519483566)
(X_624  0.10490196198225021)
(X_625  0.10098039358854294)
(X_626  0.09705882519483566)
(X_627  0.09313725680112839)
(X_628  -0.006862743757665157)
(X_629  -0.006862743757665157)
(X_630  -0.0029411755967885256)
(X_631  0.0009803927969187498)
(X_632  -0.006862743757665157)
(X_633  -0.006862743757665157)
(X_634  0.09313725680112839)
(X_635  0.08921568840742111)
(X_636  -0.010784312151372433)
(X_637  0.08921568840742111)
(X_638  0.08921568840742111)
(X_639  0.08921568840742111)
(X_640  -0.006862743757665157)
(X_641  -0.006862743757665157)
(X_642  0.09313725680112839)
(X_643  0.09313725680112839)
(X_644  -0.010784312151372433)
(X_645  -0.010784312151372433)
(X_646  0.08921568840742111)
(X_647  0.08921568840742111)
(X_648  0.08921568840742111)
(X_649  0.08921568840742111)
(X_650  0.08921568840742111)
(X_651  0.08921568840742111)
(X_652  0.10098039358854294)
(X_653  -0.0029411755967885256)
(X_654  -0.010784312151372433)
(X_655  -0.014705880545079708)
(X_656  -0.014705880545079708)
(X_657  -0.010784312151372433)
(X_658  -0.006862743757665157)
(X_659  -0.0029411755967885256)
(X_660  0.10490196198225021)
(X_661  0.10098039358854294)
(X_662  0.09313725680112839)
(X_663  0.08921568840742111)
(X_664  -0.018627449870109558)
(X_665  -0.018627449870109558)
(X_666  -0.018627449870109558)
(X_667  -0.018627449870109558)
(X_668  -0.010784312151372433)
(X_669  -0.010784312151372433)
(X_670  0.08921568840742111)
(X_671  -0.010784312151372433)
(X_672  0.08921568840742111)
(X_673  -0.010784312151372433)
(X_674  -0.010784312151372433)
(X_675  -0.010784312151372433)
(X_676  -0.010784312151372433)
(X_677  0.08921568840742111)
(X_678  0.08921568840742111)
(X_679  0.08921568840742111)
(X_680  -0.006862743757665157)
(X_681  0.09313725680112839)
(X_682  0.09313725680112839)
(X_683  0.09313725680112839)
(X_684  0.09313725680112839)
(X_685  0.09313725680112839)
(X_686  -0.006862743757665157)
(X_687  -0.006862743757665157)
(X_688  0.08921568840742111)
(X_689  0.08921568840742111)
(X_690  -0.010784312151372433)
(X_691  -0.010784312151372433)
(X_692  0.08921568840742111)
(X_693  0.08921568840742111)
(X_694  -0.010784312151372433)
(X_695  0.08921568840742111)
(X_696  0.08921568840742111)
(X_697  0.08921568840742111)
(X_698  0.08921568840742111)
(X_699  -0.010784312151372433)
(X_700  0.08921568840742111)
(X_701  -0.010784312151372433)
(X_702  -0.010784312151372433)
(X_703  0.08921568840742111)
(X_704  -0.010784312151372433)
(X_705  0.08921568840742111)
(X_706  0.08921568840742111)
(X_707  -0.010784312151372433)
(X_708  -0.006862743757665157)
(X_709  -0.006862743757665157)
(X_710  0.09313725680112839)
(X_711  0.09313725680112839)
(X_712  0.09313725680112839)
(X_713  -0.006862743757665157)
(X_714  -0.006862743757665157)
(X_715  -0.006862743757665157)
(X_716  0.08921568840742111)
(X_717  -0.010784312151372433)
(X_718  -0.010784312151372433)
(X_719  -0.010784312151372433)
(X_720  -0.010784312151372433)
(X_721  -0.010784312151372433)
(X_722  0.08921568840742111)
(X_723  0.08921568840742111)
(X_724  0.08921568840742111)
(X_725  0.08921568840742111)
(X_726  0.08921568840742111)
(X_727  0.08921568840742111)
(X_728  0.08921568840742111)
(X_729  -0.010784312151372433)
(X_730  0.08921568840742111)
(X_731  0.08921568840742111)
(X_732  0.08921568840742111)
(X_733  0.08921568840742111)
(X_734  0.08921568840742111)
(X_735  0.08921568840742111)
(X_736  0.09313725680112839)
(X_737  0.09313725680112839)
(X_738  -0.006862743757665157)
(X_739  -0.006862743757665157)
(X_740  -0.006862743757665157)
(X_741  -0.006862743757665157)
(X_742  -0.006862743757665157)
(X_743  -0.006862743757665157)
(X_744  -0.010784312151372433)
(X_745  -0.010784312151372433)
(X_746  -0.010784312151372433)
(X_747  -0.010784312151372433)
(X_748  0.08921568840742111)
(X_749  0.08921568840742111)
(X_750  -0.010784312151372433)
(X_751  0.08921568840742111)
(X_752  0.08921568840742111)
(X_753  0.08921568840742111)
(X_754  0.08921568840742111)
(X_755  0.08921568840742111)
(X_756  0.08921568840742111)
(X_757  -0.010784312151372433)
(X_758  -0.010784312151372433)
(X_759  0.08921568840742111)
(X_760  -0.010784312151372433)
(X_761  0.08921568840742111)
(X_762  0.08921568840742111)
(X_763  0.08921568840742111)
(X_764  0.08921568840742111)
(X_765  0.08921568840742111)
(X_766  -0.010784312151372433)
(X_767  -0.010784312151372433)
(X_768  -0.010784312151372433)
(X_769  -0.010784312151372433)
(X_770  -0.010784312151372433)
(X_771  -0.010784312151372433)
(X_772  -0.010784312151372433)
(X_773  -0.010784312151372433)
(X_774  -0.010784312151372433)
(X_775  -0.010784312151372433)
(X_776  -0.010784312151372433)
(X_777  0.08921568840742111)
(X_778  -0.010784312151372433)
(X_779  -0.010784312151372433)
(X_780  -0.010784312151372433)
(X_781  -0.010784312151372433)
(X_782  -0.010784312151372433)
(X_783  -0.010784312151372433)
(Y_0 -19.261390686035156)
(Y_1 19.954954147338867)
(Y_2 -14.016711235046387)
(Y_3 15.26780891418457))