((X_0  1.0421568155288696)
(X_1  0.9421568512916565)
(X_2  0.9460784196853638)
(X_3  1.0460784435272217)
(X_4  1.0499999523162842)
(X_5  1.0499999523162842)
(X_6  0.949999988079071)
(X_7  0.949999988079071)
(X_8  1.0460784435272217)
(X_9  1.0421568155288696)
(X_10  1.0382353067398071)
(X_11  1.0421568155288696)
(X_12  1.0499999523162842)
(X_13  1.0499999523162842)
(X_14  1.0499999523162842)
(X_15  1.0460784435272217)
(X_16  0.9460784196853638)
(X_17  0.9460784196853638)
(X_18  0.9460784196853638)
(X_19  0.9460784196853638)
(X_20  1.0460784435272217)
(X_21  1.0460784435272217)
(X_22  1.0460784435272217)
(X_23  0.9460784196853638)
(X_24  1.0499999523162842)
(X_25  1.0499999523162842)
(X_26  1.0499999523162842)
(X_27  1.0499999523162842)
(X_28  1.0499999523162842)
(X_29  0.949999988079071)
(X_30  0.949999988079071)
(X_31  0.949999988079071)
(X_32  0.949999988079071)
(X_33  0.9460784196853638)
(X_34  0.9421568512916565)
(X_35  1.0382353067398071)
(X_36  1.0499999523162842)
(X_37  0.949999988079071)
(X_38  0.9421568512916565)
(X_39  0.9382352828979492)
(X_40  1.0382353067398071)
(X_41  1.034313678741455)
(X_42  1.022549033164978)
(X_43  0.9147058725357056)
(X_44  1.0499999523162842)
(X_45  1.0499999523162842)
(X_46  0.9421568512916565)
(X_47  0.9343137145042419)
(X_48  1.0264705419540405)
(X_49  1.018627405166626)
(X_50  0.9107843041419983)
(X_51  0.906862735748291)
(X_52  0.9872549176216125)
(X_53  0.8872548937797546)
(X_54  0.8872548937797546)
(X_55  0.8833333253860474)
(X_56  0.5362744927406311)
(X_57  0.4323529303073883)
(X_58  0.42450979351997375)
(X_59  0.4166666567325592)
(X_60  0.40882351994514465)
(X_61  0.4009803831577301)
(X_62  0.39313724637031555)
(X_63  0.3892156779766083)
(X_64  0.4735294282436371)
(X_65  0.36176469922065735)
(X_66  0.3539215624332428)
(X_67  0.34607842564582825)
(X_68  0.34215685725212097)
(X_69  0.3382352888584137)
(X_70  0.32647058367729187)
(X_71  0.31470587849617004)
(X_72  0.28333333134651184)
(X_73  0.27941176295280457)
(X_74  0.27156862616539)
(X_75  0.2598039209842682)
(X_76  0.3480392396450043)
(X_77  0.3401961028575897)
(X_78  0.33235296607017517)
(X_79  0.3284313976764679)
(X_80  0.2696078419685364)
(X_81  0.2696078419685364)
(X_82  0.16568627953529358)
(X_83  0.2656862735748291)
(X_84  0.09705882519483566)
(X_85  -0.0029411755967885256)
(X_86  -0.0029411755967885256)
(X_87  -0.0029411755967885256)
(X_88  -0.0029411755967885256)
(X_89  -0.006862743757665157)
(X_90  -0.006862743757665157)
(X_91  -0.006862743757665157)
(X_92  0.08529412001371384)
(X_93  -0.022549020126461983)
(X_94  -0.026470588520169258)
(X_95  -0.026470588520169258)
(X_96  0.08137255162000656)
(X_97  0.08137255162000656)
(X_98  0.07745098322629929)
(X_99  0.06960784643888474)
(X_100  0.09705882519483566)
(X_101  0.09705882519483566)
(X_102  0.09705882519483566)
(X_103  0.09313725680112839)
(X_104  0.08921568840742111)
(X_105  0.08921568840742111)
(X_106  -0.014705880545079708)
(X_107  -0.014705880545079708)
(X_108  0.004901961423456669)
(X_109  0.004901961423456669)
(X_110  0.004901961423456669)
(X_111  0.10490196198225021)
(X_112  0.08921568840742111)
(X_113  0.08921568840742111)
(X_114  0.09313725680112839)
(X_115  0.09313725680112839)
(X_116  -0.0029411755967885256)
(X_117  0.0009803927969187498)
(X_118  0.004901961423456669)
(X_119  0.004901961423456669)
(X_120  0.10098039358854294)
(X_121  -0.0029411755967885256)
(X_122  -0.006862743757665157)
(X_123  0.0009803927969187498)
(X_124  0.10882353037595749)
(X_125  0.01666666939854622)
(X_126  0.012745101936161518)
(X_127  0.008823529817163944)
(X_128  0.09313725680112839)
(X_129  0.09313725680112839)
(X_130  0.09313725680112839)
(X_131  0.09705882519483566)
(X_132  0.10098039358854294)
(X_133  0.10098039358854294)
(X_134  0.0009803927969187498)
(X_135  0.10490196198225021)
(X_136  0.08137255162000656)
(X_137  -0.018627449870109558)
(X_138  -0.018627449870109558)
(X_139  0.08137255162000656)
(X_140  0.09705882519483566)
(X_141  0.09705882519483566)
(X_142  0.09705882519483566)
(X_143  0.09705882519483566)
(X_144  -0.0029411755967885256)
(X_145  -0.0029411755967885256)
(X_146  -0.0029411755967885256)
(X_147  0.09705882519483566)
(X_148  0.08921568840742111)
(X_149  0.08137255162000656)
(X_150  0.07745098322629929)
(X_151  0.08137255162000656)
(X_152  0.08529412001371384)
(X_153  0.08921568840742111)
(X_154  0.08529412001371384)
(X_155  0.07745098322629929)
(X_156  0.08921568840742111)
(X_157  0.08921568840742111)
(X_158  0.08921568840742111)
(X_159  0.08921568840742111)
(X_160  0.08529412001371384)
(X_161  -0.014705880545079708)
(X_162  0.08529412001371384)
(X_163  0.08137255162000656)
(X_164  0.004901961423456669)
(X_165  0.004901961423456669)
(X_166  0.004901961423456669)
(X_167  0.10490196198225021)
(X_168  0.0009803927969187498)
(X_169  0.0009803927969187498)
(X_170  -0.0029411755967885256)
(X_171  0.09705882519483566)
(X_172  0.09313725680112839)
(X_173  0.09313725680112839)
(X_174  -0.006862743757665157)
(X_175  -0.010784312151372433)
(X_176  0.020588237792253494)
(X_177  0.01666666939854622)
(X_178  0.008823529817163944)
(X_179  0.008823529817163944)
(X_180  0.11666666716337204)
(X_181  0.11666666716337204)
(X_182  0.10882353037595749)
(X_183  0.004901961423456669)
(X_184  0.11666666716337204)
(X_185  0.11274509876966476)
(X_186  0.11274509876966476)
(X_187  0.10882353037595749)
(X_188  0.10490196198225021)
(X_189  0.0009803927969187498)
(X_190  -0.0029411755967885256)
(X_191  0.09705882519483566)
(X_192  0.08529412001371384)
(X_193  0.08529412001371384)
(X_194  0.08921568840742111)
(X_195  -0.010784312151372433)
(X_196  0.09313725680112839)
(X_197  0.09313725680112839)
(X_198  0.09705882519483566)
(X_199  -0.0029411755967885256)
(X_200  -0.0029411755967885256)
(X_201  -0.0029411755967885256)
(X_202  -0.0029411755967885256)
(X_203  0.09705882519483566)
(X_204  -0.0029411755967885256)
(X_205  -0.006862743757665157)
(X_206  0.08921568840742111)
(X_207  0.09313725680112839)
(X_208  0.0009803927969187498)
(X_209  0.0009803927969187498)
(X_210  -0.0029411755967885256)
(X_211  0.09313725680112839)
(X_212  0.09705882519483566)
(X_213  0.09705882519483566)
(X_214  -0.0029411755967885256)
(X_215  -0.0029411755967885256)
(X_216  -0.0029411755967885256)
(X_217  -0.0029411755967885256)
(X_218  -0.006862743757665157)
(X_219  0.09313725680112839)
(X_220  0.09705882519483566)
(X_221  0.09705882519483566)
(X_222  0.10098039358854294)
(X_223  0.10098039358854294)
(X_224  0.01666666939854622)
(X_225  0.012745101936161518)
(X_226  0.008823529817163944)
(X_227  0.0009803927969187498)
(X_228  0.0009803927969187498)
(X_229  0.004901961423456669)
(X_230  0.008823529817163944)
(X_231  0.012745101936161518)
(X_232  0.11274509876966476)
(X_233  0.11666666716337204)
(X_234  0.12058823555707932)
(X_235  0.12450980395078659)
(X_236  0.12450980395078659)
(X_237  0.01666666939854622)
(X_238  0.008823529817163944)
(X_239  0.004901961423456669)
(X_240  0.004901961423456669)
(X_241  0.11274509876966476)
(X_242  0.11666666716337204)
(X_243  0.10490196198225021)
(X_244  0.09705882519483566)
(X_245  0.10098039358854294)
(X_246  0.10098039358854294)
(X_247  0.09705882519483566)
(X_248  0.008823529817163944)
(X_249  0.10882353037595749)
(X_250  0.10490196198225021)
(X_251  0.10490196198225021)
(X_252  0.01666666939854622)
(X_253  0.012745101936161518)
(X_254  0.012745101936161518)
(X_255  0.10882353037595749)
(X_256  0.10882353037595749)
(X_257  0.11274509876966476)
(X_258  0.11274509876966476)
(X_259  0.012745101936161518)
(X_260  0.028431374579668045)
(X_261  0.020588237792253494)
(X_262  0.008823529817163944)
(X_263  0.0009803927969187498)
(X_264  -0.0029411755967885256)
(X_265  0.10098039358854294)
(X_266  0.10490196198225021)
(X_267  0.10882353037595749)
(X_268  0.11274509876966476)
(X_269  0.11666666716337204)
(X_270  0.11666666716337204)
(X_271  0.11274509876966476)
(X_272  0.10882353037595749)
(X_273  0.11666666716337204)
(X_274  0.12058823555707932)
(X_275  0.12450980395078659)
(X_276  0.10490196198225021)
(X_277  0.10490196198225021)
(X_278  0.004901961423456669)
(X_279  0.0009803927969187498)
(X_280  0.012745101936161518)
(X_281  0.11274509876966476)
(X_282  0.11666666716337204)
(X_283  0.01666666939854622)
(X_284  0.01666666939854622)
(X_285  0.11666666716337204)
(X_286  0.11274509876966476)
(X_287  0.11274509876966476)
(X_288  0.008823529817163944)
(X_289  0.008823529817163944)
(X_290  0.004901961423456669)
(X_291  0.004901961423456669)
(X_292  0.008823529817163944)
(X_293  0.012745101936161518)
(X_294  0.020588237792253494)
(X_295  0.02450980618596077)
(X_296  0.10882353037595749)
(X_297  0.004901961423456669)
(X_298  0.004901961423456669)
(X_299  0.008823529817163944)
(X_300  0.11274509876966476)
(X_301  0.11274509876966476)
(X_302  0.020588237792253494)
(X_303  0.02450980618596077)
(X_304  0.028431374579668045)
(X_305  0.028431374579668045)
(X_306  0.03235294297337532)
(X_307  0.028431374579668045)
(X_308  0.004901961423456669)
(X_309  0.10882353037595749)
(X_310  0.012745101936161518)
(X_311  0.020588237792253494)
(X_312  0.020588237792253494)
(X_313  0.01666666939854622)
(X_314  0.012745101936161518)
(X_315  0.008823529817163944)
(X_316  0.10490196198225021)
(X_317  0.11274509876966476)
(X_318  0.12450980395078659)
(X_319  0.13235294818878174)
(X_320  0.13235294818878174)
(X_321  0.02450980618596077)
(X_322  0.012745101936161518)
(X_323  0.004901961423456669)
(X_324  0.008823529817163944)
(X_325  0.0009803927969187498)
(X_326  0.0009803927969187498)
(X_327  0.008823529817163944)
(X_328  0.11274509876966476)
(X_329  0.10098039358854294)
(X_330  0.09313725680112839)
(X_331  0.09705882519483566)
(X_332  0.10490196198225021)
(X_333  0.008823529817163944)
(X_334  0.012745101936161518)
(X_335  0.012745101936161518)
(X_336  0.0009803927969187498)
(X_337  0.004901961423456669)
(X_338  0.012745101936161518)
(X_339  0.11666666716337204)
(X_340  0.12058823555707932)
(X_341  0.11666666716337204)
(X_342  0.11274509876966476)
(X_343  0.008823529817163944)
(X_344  0.12058823555707932)
(X_345  0.12058823555707932)
(X_346  0.12058823555707932)
(X_347  0.12058823555707932)
(X_348  0.01666666939854622)
(X_349  0.012745101936161518)
(X_350  0.004901961423456669)
(X_351  0.10098039358854294)
(X_352  0.14803922176361084)
(X_353  0.028431374579668045)
(X_354  0.02450980618596077)
(X_355  0.04411764815449715)
(X_356  0.04411764815449715)
(X_357  0.01666666939854622)
(X_358  0.09705882519483566)
(X_359  0.09705882519483566)
(X_360  0.11666666716337204)
(X_361  0.11666666716337204)
(X_362  0.020588237792253494)
(X_363  0.02450980618596077)
(X_364  0.004901961423456669)
(X_365  0.10882353037595749)
(X_366  0.11274509876966476)
(X_367  0.11666666716337204)
(X_368  0.12058823555707932)
(X_369  0.12058823555707932)
(X_370  0.020588237792253494)
(X_371  0.12058823555707932)
(X_372  0.0009803927969187498)
(X_373  -0.0029411755967885256)
(X_374  0.09705882519483566)
(X_375  0.10490196198225021)
(X_376  0.02450980618596077)
(X_377  0.05588235333561897)
(X_378  0.0833333432674408)
(X_379  0.10294118523597717)
(X_380  0.10294118523597717)
(X_381  0.0676470622420311)
(X_382  0.1558823585510254)
(X_383  0.17941176891326904)
(X_384  0.18333333730697632)
(X_385  0.05588235333561897)
(X_386  0.04019607976078987)
(X_387  0.04803921654820442)
(X_388  0.12450980395078659)
(X_389  0.12450980395078659)
(X_390  0.020588237792253494)
(X_391  0.020588237792253494)
(X_392  0.01666666939854622)
(X_393  0.01666666939854622)
(X_394  0.01666666939854622)
(X_395  0.12058823555707932)
(X_396  0.12450980395078659)
(X_397  0.12843137979507446)
(X_398  0.03235294297337532)
(X_399  0.036274511367082596)
(X_400  0.028431374579668045)
(X_401  0.04019607976078987)
(X_402  0.05980392172932625)
(X_403  0.0833333432674408)
(X_404  0.114705890417099)
(X_405  0.1460784375667572)
(X_406  0.16960784792900085)
(X_407  0.18137255311012268)
(X_408  0.12647059559822083)
(X_409  0.1715686321258545)
(X_410  0.14803922176361084)
(X_411  0.1715686321258545)
(X_412  0.1872549057006836)
(X_413  0.18333333730697632)
(X_414  0.19117647409439087)
(X_415  0.21470588445663452)
(X_416  0.04411764815449715)
(X_417  0.036274511367082596)
(X_418  0.02450980618596077)
(X_419  0.012745101936161518)
(X_420  0.028431374579668045)
(X_421  0.028431374579668045)
(X_422  0.02450980618596077)
(X_423  0.02450980618596077)
(X_424  0.028431374579668045)
(X_425  0.036274511367082596)
(X_426  0.14411765336990356)
(X_427  0.14803922176361084)
(X_428  0.22254902124404907)
(X_429  0.24607843160629272)
(X_430  0.18137255311012268)
(X_431  0.21274511516094208)
(X_432  0.22058825194835663)
(X_433  0.30490198731422424)
(X_434  0.18137255311012268)
(X_435  0.1617647111415863)
(X_436  0.114705890417099)
(X_437  0.14803922176361084)
(X_438  0.11274509876966476)
(X_439  0.036274511367082596)
(X_440  0.0676470622420311)
(X_441  0.17941176891326904)
(X_442  0.11078432202339172)
(X_443  0.15392157435417175)
(X_444  0.18137255311012268)
(X_445  0.16568627953529358)
(X_446  0.1460784375667572)
(X_447  0.23039215803146362)
(X_448  0.12843137979507446)
(X_449  0.11666666716337204)
(X_450  0.15196079015731812)
(X_451  0.19509804248809814)
(X_452  0.21078431606292725)
(X_453  0.15784314274787903)
(X_454  0.30490198731422424)
(X_455  0.2970588207244873)
(X_456  0.32058826088905334)
(X_457  0.2970588207244873)
(X_458  0.3245098292827606)
(X_459  0.32058826088905334)
(X_460  0.2343137264251709)
(X_461  0.18333333730697632)
(X_462  0.11078432202339172)
(X_463  0.14215686917304993)
(X_464  0.13431373238563538)
(X_465  0.07549020648002625)
(X_466  0.01666666939854622)
(X_467  0.036274511367082596)
(X_468  0.07549020648002625)
(X_469  0.136274516582489)
(X_470  0.12058823555707932)
(X_471  0.17549020051956177)
(X_472  0.28921568393707275)
(X_473  0.3127451241016388)
(X_474  0.3284313976764679)
(X_475  0.3245098292827606)
(X_476  0.22843138873577118)
(X_477  0.21666668355464935)
(X_478  0.33235296607017517)
(X_479  0.3284313976764679)
(X_480  0.2852941155433655)
(X_481  0.18529412150382996)
(X_482  0.21274511516094208)
(X_483  0.20098040997982025)
(X_484  0.2774509787559509)
(X_485  0.2617647051811218)
(X_486  0.18921568989753723)
(X_487  0.1931372582912445)
(X_488  0.1460784375667572)
(X_489  0.14215686917304993)
(X_490  0.18921568989753723)
(X_491  0.21274511516094208)
(X_492  0.20098040997982025)
(X_493  0.23627452552318573)
(X_494  0.3401961028575897)
(X_495  0.30490198731422424)
(X_496  0.23823529481887817)
(X_497  0.14411765336990356)
(X_498  0.136274516582489)
(X_499  0.11862745881080627)
(X_500  0.1774509847164154)
(X_501  0.2088235467672348)
(X_502  0.22843138873577118)
(X_503  0.31666669249534607)
(X_504  0.2696078419685364)
(X_505  0.2774509787559509)
(X_506  0.32058826088905334)
(X_507  0.33235296607017517)
(X_508  0.2852941155433655)
(X_509  0.18137255311012268)
(X_510  0.20098040997982025)
(X_511  0.1931372582912445)
(X_512  0.1931372582912445)
(X_513  0.22843138873577118)
(X_514  0.31078431010246277)
(X_515  0.36176469922065735)
(X_516  0.3696078360080719)
(X_517  0.3970588147640228)
(X_518  0.41274508833885193)
(X_519  0.37745097279548645)
(X_520  0.3735294044017792)
(X_521  0.3970588147640228)
(X_522  0.4735294282436371)
(X_523  0.3343137204647064)
(X_524  0.31078431010246277)
(X_525  0.23627452552318573)
(X_526  0.25784313678741455)
(X_527  0.24215686321258545)
(X_528  0.23039215803146362)
(X_529  0.17352941632270813)
(X_530  0.20490197837352753)
(X_531  0.20490197837352753)
(X_532  0.39901962876319885)
(X_533  0.3794117867946625)
(X_534  0.29509803652763367)
(X_535  0.39901962876319885)
(X_536  0.28333333134651184)
(X_537  0.31470587849617004)
(X_538  0.4696078598499298)
(X_539  0.47745099663734436)
(X_540  0.31078431010246277)
(X_541  0.33039215207099915)
(X_542  0.4735294282436371)
(X_543  0.4892157018184662)
(X_544  0.3735294044017792)
(X_545  0.37745097279548645)
(X_546  0.4421568810939789)
(X_547  0.2558823525905609)
(X_548  0.45000001788139343)
(X_549  0.46176472306251526)
(X_550  0.4382353127002716)
(X_551  0.4539215862751007)
(X_552  0.5401960611343384)
(X_553  0.5676470994949341)
(X_554  0.4009803831577301)
(X_555  0.34215685725212097)
(X_556  0.24803923070430756)
(X_557  0.26372548937797546)
(X_558  0.2754901945590973)
(X_559  0.26372548937797546)
(X_560  0.4264706075191498)
(X_561  0.2558823525905609)
(X_562  0.20098040997982025)
(X_563  0.16568627953529358)
(X_564  0.13431373238563538)
(X_565  0.16960784792900085)
(X_566  0.21274511516094208)
(X_567  0.2088235467672348)
(X_568  0.19705882668495178)
(X_569  0.17352941632270813)
(X_570  0.27352941036224365)
(X_571  0.18137255311012268)
(X_572  0.21666668355464935)
(X_573  0.3068627417087555)
(X_574  0.45000001788139343)
(X_575  0.31078431010246277)
(X_576  0.3950980603694916)
(X_577  0.3735294044017792)
(X_578  0.4852941334247589)
(X_579  0.4382353127002716)
(X_580  0.4382353127002716)
(X_581  0.46568629145622253)
(X_582  0.39313724637031555)
(X_583  0.42843136191368103)
(X_584  0.4833333492279053)
(X_585  0.4754902124404907)
(X_586  0.479411780834198)
(X_587  0.4990196228027344)
(X_588  0.522549033164978)
(X_589  0.4833333492279053)
(X_590  0.48725491762161255)
(X_591  0.4950980544090271)
(X_592  0.46764707565307617)
(X_593  0.5441176295280457)
(X_594  0.5049019455909729)
(X_595  0.4382353127002716)
(X_596  0.41470590233802795)
(X_597  0.24803923070430756)
(X_598  0.20490197837352753)
(X_599  0.18529412150382996)
(X_600  0.18529412150382996)
(X_601  0.23627452552318573)
(X_602  0.26372548937797546)
(X_603  0.22843138873577118)
(X_604  0.4068627655506134)
(X_605  0.385294109582901)
(X_606  0.4735294282436371)
(X_607  0.3637255132198334)
(X_608  0.2852941155433655)
(X_609  0.27352941036224365)
(X_610  0.24411766231060028)
(X_611  0.34215685725212097)
(X_612  0.41274508833885193)
(X_613  0.39313724637031555)
(X_614  0.3970588147640228)
(X_615  0.44019606709480286)
(X_616  0.3637255132198334)
(X_617  0.3754902184009552)
(X_618  0.34607842564582825)
(X_619  0.5009803771972656)
(X_620  0.4852941334247589)
(X_621  0.45000001788139343)
(X_622  0.3911764919757843)
(X_623  0.3127451241016388)
(X_624  0.387254923582077)
(X_625  0.31666669249534607)
(X_626  0.2970588207244873)
(X_627  0.3127451241016388)
(X_628  0.22058825194835663)
(X_629  0.24411766231060028)
(X_630  0.26372548937797546)
(X_631  0.240196093916893)
(X_632  0.33235296607017517)
(X_633  0.26372548937797546)
(X_634  0.23235295712947845)
(X_635  0.16960784792900085)
(X_636  0.2539215683937073)
(X_637  0.27352941036224365)
(X_638  0.35196080803871155)
(X_639  0.3539215624332428)
(X_640  0.5088235139846802)
(X_641  0.47745099663734436)
(X_642  0.46568629145622253)
(X_643  0.37745097279548645)
(X_644  0.39901962876319885)
(X_645  0.38333335518836975)
(X_646  0.4068627655506134)
(X_647  0.41470590233802795)
(X_648  0.3911764919757843)
(X_649  0.29509803652763367)
(X_650  0.4107843339443207)
(X_651  0.3911764919757843)
(X_652  0.46568629145622253)
(X_653  0.2558823525905609)
(X_654  0.1931372582912445)
(X_655  0.18921568989753723)
(X_656  0.17352941632270813)
(X_657  0.18921568989753723)
(X_658  0.22058825194835663)
(X_659  0.22843138873577118)
(X_660  0.23627452552318573)
(X_661  0.2598039209842682)
(X_662  0.3284313976764679)
(X_663  0.27352941036224365)
(X_664  0.1460784375667572)
(X_665  0.25)
(X_666  0.33235296607017517)
(X_667  0.3499999940395355)
(X_668  0.3186274468898773)
(X_669  0.3068627417087555)
(X_670  0.3186274468898773)
(X_671  0.3499999940395355)
(X_672  0.25196078419685364)
(X_673  0.25196078419685364)
(X_674  0.240196093916893)
(X_675  0.21274511516094208)
(X_676  0.30490198731422424)
(X_677  0.32058826088905334)
(X_678  0.3245098292827606)
(X_679  0.32058826088905334)
(X_680  0.25196078419685364)
(X_681  0.3245098292827606)
(X_682  0.16568627953529358)
(X_683  0.23823529481887817)
(X_684  0.2617647051811218)
(X_685  0.25)
(X_686  0.14215686917304993)
(X_687  0.1774509847164154)
(X_688  0.2970588207244873)
(X_689  0.27352941036224365)
(X_690  0.2696078419685364)
(X_691  0.25)
(X_692  0.21078431606292725)
(X_693  0.24607843160629272)
(X_694  0.22843138873577118)
(X_695  0.3637255132198334)
(X_696  0.36764708161354065)
(X_697  0.3754902184009552)
(X_698  0.387254923582077)
(X_699  0.29901960492134094)
(X_700  0.21666668355464935)
(X_701  0.22058825194835663)
(X_702  0.30490198731422424)
(X_703  0.1774509847164154)
(X_704  0.17352941632270813)
(X_705  0.18529412150382996)
(X_706  0.1931372582912445)
(X_707  0.18529412150382996)
(X_708  0.32058826088905334)
(X_709  0.19705882668495178)
(X_710  0.24215686321258545)
(X_711  0.22254902124404907)
(X_712  0.24607843160629272)
(X_713  0.2343137264251709)
(X_714  0.12254902720451355)
(X_715  0.15392157435417175)
(X_716  0.1774509847164154)
(X_717  0.15392157435417175)
(X_718  0.15784314274787903)
(X_719  0.13823530077934265)
(X_720  0.0990196168422699)
(X_721  0.13431373238563538)
(X_722  0.2088235467672348)
(X_723  0.240196093916893)
(X_724  0.3127451241016388)
(X_725  0.32058826088905334)
(X_726  0.33235296607017517)
(X_727  0.24411766231060028)
(X_728  0.2852941155433655)
(X_729  0.28921568393707275)
(X_730  0.27352941036224365)
(X_731  0.24607843160629272)
(X_732  0.14215686917304993)
(X_733  0.15392157435417175)
(X_734  0.1617647111415863)
(X_735  0.15392157435417175)
(X_736  0.18137255311012268)
(X_737  0.16568627953529358)
(X_738  0.114705890417099)
(X_739  0.10294118523597717)
(X_740  0.22647058963775635)
(X_741  0.21470588445663452)
(X_742  0.19901961088180542)
(X_743  0.22647058963775635)
(X_744  0.25)
(X_745  0.2343137264251709)
(X_746  0.24215686321258545)
(X_747  0.22647058963775635)
(X_748  0.1872549057006836)
(X_749  0.114705890417099)
(X_750  0.18529412150382996)
(X_751  0.2088235467672348)
(X_752  0.2813725471496582)
(X_753  0.28921568393707275)
(X_754  0.30490198731422424)
(X_755  0.31666669249534607)
(X_756  0.1774509847164154)
(X_757  0.2774509787559509)
(X_758  0.2617647051811218)
(X_759  0.23823529481887817)
(X_760  0.1303921639919281)
(X_761  0.1460784375667572)
(X_762  0.15000000596046448)
(X_763  0.14215686917304993)
(X_764  0.15784314274787903)
(X_765  0.24215686321258545)
(X_766  0.2029411792755127)
(X_767  0.19509804248809814)
(X_768  0.22254902124404907)
(X_769  0.10686275362968445)
(X_770  0.08725491166114807)
(X_771  0.114705890417099)
(X_772  0.1303921639919281)
(X_773  0.11862745881080627)
(X_774  0.13431373238563538)
(X_775  0.12254902720451355)
(X_776  0.0833333432674408)
(X_777  0.10294118523597717)
(X_778  0.16568627953529358)
(X_779  0.18529412150382996)
(X_780  0.1774509847164154)
(X_781  0.18529412150382996)
(X_782  0.19705882668495178)
(X_783  0.2088235467672348)
(Y_0 -11.406940460205078)
(Y_1 9.960007667541504)
(Y_2 -9.50822925567627)
(Y_3 8.3468017578125))