((X_0  0.2872548997402191)
(X_1  0.27941176295280457)
(X_2  0.26764705777168274)
(X_3  0.2598039209842682)
(X_4  0.25196078419685364)
(X_5  0.23627452552318573)
(X_6  0.31666669249534607)
(X_7  0.30098041892051697)
(X_8  0.2970588207244873)
(X_9  0.28921568393707275)
(X_10  0.2774509787559509)
(X_11  0.2617647051811218)
(X_12  0.24607843160629272)
(X_13  0.23823529481887817)
(X_14  0.1303921639919281)
(X_15  0.12647059559822083)
(X_16  0.114705890417099)
(X_17  0.10686275362968445)
(X_18  0.0990196168422699)
(X_19  0.08725491166114807)
(X_20  0.07156863063573837)
(X_21  0.05980392172932625)
(X_22  0.04803921654820442)
(X_23  0.14411765336990356)
(X_24  0.04411764815449715)
(X_25  0.03235294297337532)
(X_26  0.020588237792253494)
(X_27  0.008823529817163944)
(X_28  0.11274509876966476)
(X_29  0.10882353037595749)
(X_30  0.012745101936161518)
(X_31  0.11666666716337204)
(X_32  0.02450980618596077)
(X_33  0.020588237792253494)
(X_34  0.012745101936161518)
(X_35  0.004901961423456669)
(X_36  0.13235294818878174)
(X_37  0.12843137979507446)
(X_38  0.12450980395078659)
(X_39  0.11666666716337204)
(X_40  0.11666666716337204)
(X_41  0.11666666716337204)
(X_42  0.11666666716337204)
(X_43  0.11666666716337204)
(X_44  0.10098039358854294)
(X_45  0.004901961423456669)
(X_46  0.004901961423456669)
(X_47  0.008823529817163944)
(X_48  0.012745101936161518)
(X_49  0.01666666939854622)
(X_50  0.11666666716337204)
(X_51  0.12058823555707932)
(X_52  0.12450980395078659)
(X_53  0.020588237792253494)
(X_54  0.020588237792253494)
(X_55  0.01666666939854622)
(X_56  0.10490196198225021)
(X_57  0.0009803927969187498)
(X_58  0.10490196198225021)
(X_59  0.11274509876966476)
(X_60  0.12450980395078659)
(X_61  0.028431374579668045)
(X_62  0.02450980618596077)
(X_63  0.020588237792253494)
(X_64  0.004901961423456669)
(X_65  0.004901961423456669)
(X_66  0.10490196198225021)
(X_67  0.10490196198225021)
(X_68  0.10882353037595749)
(X_69  0.11666666716337204)
(X_70  0.12058823555707932)
(X_71  0.12450980395078659)
(X_72  0.11666666716337204)
(X_73  0.01666666939854622)
(X_74  0.01666666939854622)
(X_75  0.01666666939854622)
(X_76  0.01666666939854622)
(X_77  0.020588237792253494)
(X_78  0.12058823555707932)
(X_79  0.020588237792253494)
(X_80  0.12450980395078659)
(X_81  0.12843137979507446)
(X_82  0.136274516582489)
(X_83  0.1401960849761963)
(X_84  0.036274511367082596)
(X_85  0.028431374579668045)
(X_86  0.020588237792253494)
(X_87  0.020588237792253494)
(X_88  0.12450980395078659)
(X_89  0.12058823555707932)
(X_90  0.11274509876966476)
(X_91  0.10490196198225021)
(X_92  0.12058823555707932)
(X_93  0.11666666716337204)
(X_94  0.11274509876966476)
(X_95  0.11274509876966476)
(X_96  0.10882353037595749)
(X_97  0.11274509876966476)
(X_98  0.11274509876966476)
(X_99  0.012745101936161518)
(X_100  0.12058823555707932)
(X_101  0.12058823555707932)
(X_102  0.01666666939854622)
(X_103  0.008823529817163944)
(X_104  0.004901961423456669)
(X_105  0.10098039358854294)
(X_106  0.09705882519483566)
(X_107  0.09313725680112839)
(X_108  0.008823529817163944)
(X_109  0.012745101936161518)
(X_110  0.01666666939854622)
(X_111  0.01666666939854622)
(X_112  0.12450980395078659)
(X_113  0.11666666716337204)
(X_114  0.004901961423456669)
(X_115  0.0009803927969187498)
(X_116  0.0009803927969187498)
(X_117  0.0009803927969187498)
(X_118  0.09313725680112839)
(X_119  0.08529412001371384)
(X_120  0.012745101936161518)
(X_121  0.008823529817163944)
(X_122  0.004901961423456669)
(X_123  0.0009803927969187498)
(X_124  0.09705882519483566)
(X_125  0.09705882519483566)
(X_126  0.09705882519483566)
(X_127  0.09705882519483566)
(X_128  0.008823529817163944)
(X_129  0.10882353037595749)
(X_130  0.10882353037595749)
(X_131  0.008823529817163944)
(X_132  0.008823529817163944)
(X_133  0.012745101936161518)
(X_134  0.012745101936161518)
(X_135  0.012745101936161518)
(X_136  0.13235294818878174)
(X_137  0.12843137979507446)
(X_138  0.12450980395078659)
(X_139  0.01666666939854622)
(X_140  0.13235294818878174)
(X_141  0.12843137979507446)
(X_142  0.020588237792253494)
(X_143  0.12058823555707932)
(X_144  0.12450980395078659)
(X_145  0.12843137979507446)
(X_146  0.028431374579668045)
(X_147  0.02450980618596077)
(X_148  0.11666666716337204)
(X_149  0.11274509876966476)
(X_150  0.012745101936161518)
(X_151  0.11274509876966476)
(X_152  0.11274509876966476)
(X_153  0.11666666716337204)
(X_154  0.020588237792253494)
(X_155  0.12450980395078659)
(X_156  0.12450980395078659)
(X_157  0.12450980395078659)
(X_158  0.12058823555707932)
(X_159  0.020588237792253494)
(X_160  0.11666666716337204)
(X_161  0.11274509876966476)
(X_162  0.11274509876966476)
(X_163  0.11274509876966476)
(X_164  0.11274509876966476)
(X_165  0.10882353037595749)
(X_166  0.10098039358854294)
(X_167  0.09705882519483566)
(X_168  0.02450980618596077)
(X_169  0.012745101936161518)
(X_170  -0.0029411755967885256)
(X_171  -0.010784312151372433)
(X_172  -0.010784312151372433)
(X_173  -0.010784312151372433)
(X_174  0.08137255162000656)
(X_175  0.07745098322629929)
(X_176  0.08921568840742111)
(X_177  0.08921568840742111)
(X_178  0.08921568840742111)
(X_179  0.08921568840742111)
(X_180  0.09313725680112839)
(X_181  0.09705882519483566)
(X_182  0.10490196198225021)
(X_183  0.10882353037595749)
(X_184  0.0009803927969187498)
(X_185  0.0009803927969187498)
(X_186  0.0009803927969187498)
(X_187  0.0009803927969187498)
(X_188  -0.0029411755967885256)
(X_189  -0.0029411755967885256)
(X_190  0.09705882519483566)
(X_191  0.09705882519483566)
(X_192  0.10882353037595749)
(X_193  0.10882353037595749)
(X_194  0.11666666716337204)
(X_195  0.12058823555707932)
(X_196  0.23039215803146362)
(X_197  0.21470588445663452)
(X_198  0.1872549057006836)
(X_199  0.16372549533843994)
(X_200  0.14411765336990356)
(X_201  0.028431374579668045)
(X_202  0.012745101936161518)
(X_203  0.0009803927969187498)
(X_204  0.012745101936161518)
(X_205  0.008823529817163944)
(X_206  0.008823529817163944)
(X_207  0.004901961423456669)
(X_208  0.004901961423456669)
(X_209  0.008823529817163944)
(X_210  0.012745101936161518)
(X_211  0.11274509876966476)
(X_212  0.10882353037595749)
(X_213  0.11274509876966476)
(X_214  0.12843137979507446)
(X_215  0.04411764815449715)
(X_216  0.06372549384832382)
(X_217  0.0833333432674408)
(X_218  0.19509804248809814)
(X_219  0.2029411792755127)
(X_220  0.2617647051811218)
(X_221  0.27352941036224365)
(X_222  0.1931372582912445)
(X_223  0.20490197837352753)
(X_224  0.33235296607017517)
(X_225  0.32058826088905334)
(X_226  0.2088235467672348)
(X_227  0.19705882668495178)
(X_228  0.18529412150382996)
(X_229  0.17352941632270813)
(X_230  0.15392157435417175)
(X_231  0.13823530077934265)
(X_232  0.16372549533843994)
(X_233  0.14803922176361084)
(X_234  0.12450980395078659)
(X_235  0.10490196198225021)
(X_236  0.09705882519483566)
(X_237  0.10098039358854294)
(X_238  0.10882353037595749)
(X_239  0.12058823555707932)
(X_240  0.09509804844856262)
(X_241  0.15392157435417175)
(X_242  0.19705882668495178)
(X_243  0.20098040997982025)
(X_244  0.19705882668495178)
(X_245  0.21666668355464935)
(X_246  0.23235295712947845)
(X_247  0.23627452552318573)
(X_248  0.2088235467672348)
(X_249  0.21666668355464935)
(X_250  0.2245098203420639)
(X_251  0.33627453446388245)
(X_252  0.3088235557079315)
(X_253  0.30490198731422424)
(X_254  0.30490198731422424)
(X_255  0.30490198731422424)
(X_256  0.3127451241016388)
(X_257  0.3127451241016388)
(X_258  0.30490198731422424)
(X_259  0.19705882668495178)
(X_260  0.30490198731422424)
(X_261  0.2696078419685364)
(X_262  0.21470588445663452)
(X_263  0.17549020051956177)
(X_264  0.16372549533843994)
(X_265  0.19117647409439087)
(X_266  0.23039215803146362)
(X_267  0.1617647111415863)
(X_268  0.18921568989753723)
(X_269  0.2245098203420639)
(X_270  0.23627452552318573)
(X_271  0.21666668355464935)
(X_272  0.19705882668495178)
(X_273  0.19705882668495178)
(X_274  0.1931372582912445)
(X_275  0.18137255311012268)
(X_276  0.21666668355464935)
(X_277  0.2245098203420639)
(X_278  0.33235296607017517)
(X_279  0.33627453446388245)
(X_280  0.19705882668495178)
(X_281  0.1931372582912445)
(X_282  0.18921568989753723)
(X_283  0.18921568989753723)
(X_284  0.1931372582912445)
(X_285  0.28921568393707275)
(X_286  0.2813725471496582)
(X_287  0.17352941632270813)
(X_288  0.2774509787559509)
(X_289  0.2617647051811218)
(X_290  0.24215686321258545)
(X_291  0.23039215803146362)
(X_292  0.22647058963775635)
(X_293  0.23823529481887817)
(X_294  0.15392157435417175)
(X_295  0.16568627953529358)
(X_296  0.27352941036224365)
(X_297  0.2852941155433655)
(X_298  0.28921568393707275)
(X_299  0.2774509787559509)
(X_300  0.17352941632270813)
(X_301  0.2813725471496582)
(X_302  0.1774509847164154)
(X_303  0.1617647111415863)
(X_304  0.25)
(X_305  0.15784314274787903)
(X_306  0.17352941632270813)
(X_307  0.18529412150382996)
(X_308  0.17352941632270813)
(X_309  0.16960784792900085)
(X_310  0.1617647111415863)
(X_311  0.1617647111415863)
(X_312  0.15784314274787903)
(X_313  0.15392157435417175)
(X_314  0.14215686917304993)
(X_315  0.1303921639919281)
(X_316  0.15000000596046448)
(X_317  0.15392157435417175)
(X_318  0.15784314274787903)
(X_319  0.16568627953529358)
(X_320  0.17352941632270813)
(X_321  0.2774509787559509)
(X_322  0.2813725471496582)
(X_323  0.2813725471496582)
(X_324  0.1931372582912445)
(X_325  0.28921568393707275)
(X_326  0.28921568393707275)
(X_327  0.30098041892051697)
(X_328  0.2245098203420639)
(X_329  0.24411766231060028)
(X_330  0.24803923070430756)
(X_331  0.240196093916893)
(X_332  0.4382353127002716)
(X_333  0.4382353127002716)
(X_334  0.34215685725212097)
(X_335  0.3499999940395355)
(X_336  0.47156864404678345)
(X_337  0.5676470994949341)
(X_338  0.46764707565307617)
(X_339  0.4754902124404907)
(X_340  0.5833333730697632)
(X_341  0.5833333730697632)
(X_342  0.479411780834198)
(X_343  0.47156864404678345)
(X_344  0.5911765098571777)
(X_345  0.5754902362823486)
(X_346  0.4480392038822174)
(X_347  0.4362744987010956)
(X_348  0.5401960611343384)
(X_349  0.5637255311012268)
(X_350  0.595098078250885)
(X_351  0.6147059202194214)
(X_352  0.5186274647712708)
(X_353  0.4990196228027344)
(X_354  0.48725491762161255)
(X_355  0.4950980544090271)
(X_356  0.5147058963775635)
(X_357  0.5186274647712708)
(X_358  0.5147058963775635)
(X_359  0.6107843518257141)
(X_360  0.5990196466445923)
(X_361  0.5872549414634705)
(X_362  0.5676470994949341)
(X_363  0.5480391979217529)
(X_364  0.31078431010246277)
(X_365  0.3029411733150482)
(X_366  0.29901960492134094)
(X_367  0.29901960492134094)
(X_368  0.40294119715690613)
(X_369  0.39901962876319885)
(X_370  0.387254923582077)
(X_371  0.3794117867946625)
(X_372  0.27156862616539)
(X_373  0.26372548937797546)
(X_374  0.25196078419685364)
(X_375  0.24803923070430756)
(X_376  0.344117671251297)
(X_377  0.3480392396450043)
(X_378  0.3558823764324188)
(X_379  0.3637255132198334)
(X_380  0.36764708161354065)
(X_381  0.3401961028575897)
(X_382  0.22843138873577118)
(X_383  0.33235296607017517)
(X_384  0.3401961028575897)
(X_385  0.22843138873577118)
(X_386  0.22058825194835663)
(X_387  0.22058825194835663)
(X_388  0.2852941155433655)
(X_389  0.2696078419685364)
(X_390  0.2539215683937073)
(X_391  0.2343137264251709)
(X_392  0.15392157435417175)
(X_393  0.1460784375667572)
(X_394  0.2343137264251709)
(X_395  0.23039215803146362)
(X_396  0.22254902124404907)
(X_397  0.21470588445663452)
(X_398  0.19901961088180542)
(X_399  0.1872549057006836)
(X_400  0.19901961088180542)
(X_401  0.21470588445663452)
(X_402  0.2343137264251709)
(X_403  0.15000000596046448)
(X_404  0.15392157435417175)
(X_405  0.23823529481887817)
(X_406  0.2186274528503418)
(X_407  0.20686274766921997)
(X_408  0.11078432202339172)
(X_409  0.09117648005485535)
(X_410  0.08725491166114807)
(X_411  0.0990196168422699)
(X_412  0.10294118523597717)
(X_413  0.1872549057006836)
(X_414  0.17941176891326904)
(X_415  0.19117647409439087)
(X_416  0.114705890417099)
(X_417  0.114705890417099)
(X_418  0.21470588445663452)
(X_419  0.21470588445663452)
(X_420  0.06372549384832382)
(X_421  0.05980392172932625)
(X_422  0.15980392694473267)
(X_423  0.16372549533843994)
(X_424  0.1715686321258545)
(X_425  0.17549020051956177)
(X_426  0.16764706373214722)
(X_427  0.06372549384832382)
(X_428  0.05588235333561897)
(X_429  0.15196079015731812)
(X_430  0.15196079015731812)
(X_431  0.0519607849419117)
(X_432  0.16372549533843994)
(X_433  0.17941176891326904)
(X_434  0.19509804248809814)
(X_435  0.10686275362968445)
(X_436  0.09509804844856262)
(X_437  0.07941177487373352)
(X_438  0.07941177487373352)
(X_439  0.09117648005485535)
(X_440  0.08725491166114807)
(X_441  0.05980392172932625)
(X_442  0.0519607849419117)
(X_443  0.0676470622420311)
(X_444  0.17941176891326904)
(X_445  0.18333333730697632)
(X_446  0.19117647409439087)
(X_447  0.19117647409439087)
(X_448  0.020588237792253494)
(X_449  0.12058823555707932)
(X_450  0.11666666716337204)
(X_451  0.11274509876966476)
(X_452  0.012745101936161518)
(X_453  0.01666666939854622)
(X_454  0.020588237792253494)
(X_455  0.020588237792253494)
(X_456  0.0009803927969187498)
(X_457  0.004901961423456669)
(X_458  0.012745101936161518)
(X_459  0.12058823555707932)
(X_460  0.13235294818878174)
(X_461  0.1401960849761963)
(X_462  0.14803922176361084)
(X_463  0.15196079015731812)
(X_464  0.14803922176361084)
(X_465  0.14803922176361084)
(X_466  0.04411764815449715)
(X_467  0.04411764815449715)
(X_468  0.04019607976078987)
(X_469  0.04019607976078987)
(X_470  0.036274511367082596)
(X_471  0.036274511367082596)
(X_472  0.14803922176361084)
(X_473  0.04803921654820442)
(X_474  0.04803921654820442)
(X_475  0.14803922176361084)
(X_476  0.028431374579668045)
(X_477  0.028431374579668045)
(X_478  0.02450980618596077)
(X_479  0.020588237792253494)
(X_480  0.020588237792253494)
(X_481  0.02450980618596077)
(X_482  0.028431374579668045)
(X_483  0.028431374579668045)
(X_484  0.020588237792253494)
(X_485  0.020588237792253494)
(X_486  0.020588237792253494)
(X_487  0.12058823555707932)
(X_488  0.12058823555707932)
(X_489  0.12058823555707932)
(X_490  0.11666666716337204)
(X_491  0.11666666716337204)
(X_492  0.13235294818878174)
(X_493  0.13235294818878174)
(X_494  0.03235294297337532)
(X_495  0.028431374579668045)
(X_496  0.028431374579668045)
(X_497  0.12450980395078659)
(X_498  0.02450980618596077)
(X_499  0.02450980618596077)
(X_500  0.020588237792253494)
(X_501  0.020588237792253494)
(X_502  0.020588237792253494)
(X_503  0.12058823555707932)
(X_504  0.02450980618596077)
(X_505  0.12058823555707932)
(X_506  0.11666666716337204)
(X_507  0.11666666716337204)
(X_508  0.11666666716337204)
(X_509  0.01666666939854622)
(X_510  0.020588237792253494)
(X_511  0.02450980618596077)
(X_512  0.12450980395078659)
(X_513  0.02450980618596077)
(X_514  0.020588237792253494)
(X_515  0.11274509876966476)
(X_516  0.10882353037595749)
(X_517  0.10098039358854294)
(X_518  0.09705882519483566)
(X_519  0.09705882519483566)
(X_520  0.11274509876966476)
(X_521  0.11274509876966476)
(X_522  0.11274509876966476)
(X_523  0.012745101936161518)
(X_524  0.008823529817163944)
(X_525  0.008823529817163944)
(X_526  0.008823529817163944)
(X_527  0.008823529817163944)
(X_528  -0.0029411755967885256)
(X_529  -0.0029411755967885256)
(X_530  -0.0029411755967885256)
(X_531  -0.0029411755967885256)
(X_532  0.0009803927969187498)
(X_533  0.0009803927969187498)
(X_534  -0.0029411755967885256)
(X_535  -0.0029411755967885256)
(X_536  -0.0029411755967885256)
(X_537  -0.0029411755967885256)
(X_538  0.0009803927969187498)
(X_539  0.0009803927969187498)
(X_540  0.10490196198225021)
(X_541  0.0009803927969187498)
(X_542  0.10098039358854294)
(X_543  0.10098039358854294)
(X_544  0.10098039358854294)
(X_545  0.0009803927969187498)
(X_546  -0.0029411755967885256)
(X_547  0.09705882519483566)
(X_548  0.10098039358854294)
(X_549  0.10098039358854294)
(X_550  -0.0029411755967885256)
(X_551  -0.0029411755967885256)
(X_552  -0.0029411755967885256)
(X_553  -0.0029411755967885256)
(X_554  -0.0029411755967885256)
(X_555  -0.0029411755967885256)
(X_556  0.09705882519483566)
(X_557  0.09705882519483566)
(X_558  -0.0029411755967885256)
(X_559  -0.0029411755967885256)
(X_560  -0.010784312151372433)
(X_561  -0.014705880545079708)
(X_562  -0.014705880545079708)
(X_563  -0.018627449870109558)
(X_564  -0.018627449870109558)
(X_565  -0.014705880545079708)
(X_566  -0.014705880545079708)
(X_567  -0.010784312151372433)
(X_568  0.08921568840742111)
(X_569  -0.010784312151372433)
(X_570  -0.010784312151372433)
(X_571  -0.006862743757665157)
(X_572  0.09313725680112839)
(X_573  -0.0029411755967885256)
(X_574  -0.0029411755967885256)
(X_575  -0.0029411755967885256)
(X_576  0.09313725680112839)
(X_577  0.09313725680112839)
(X_578  -0.006862743757665157)
(X_579  -0.006862743757665157)
(X_580  -0.006862743757665157)
(X_581  -0.006862743757665157)
(X_582  -0.006862743757665157)
(X_583  -0.006862743757665157)
(X_584  -0.0029411755967885256)
(X_585  0.09705882519483566)
(X_586  -0.0029411755967885256)
(X_587  0.09705882519483566)
(X_588  0.08921568840742111)
(X_589  0.08921568840742111)
(X_590  0.08529412001371384)
(X_591  -0.014705880545079708)
(X_592  -0.014705880545079708)
(X_593  -0.014705880545079708)
(X_594  -0.010784312151372433)
(X_595  -0.010784312151372433)
(X_596  -0.006862743757665157)
(X_597  -0.006862743757665157)
(X_598  -0.010784312151372433)
(X_599  0.08921568840742111)
(X_600  0.08529412001371384)
(X_601  0.08529412001371384)
(X_602  0.08529412001371384)
(X_603  0.08137255162000656)
(X_604  0.08921568840742111)
(X_605  0.08921568840742111)
(X_606  -0.010784312151372433)
(X_607  -0.006862743757665157)
(X_608  0.09313725680112839)
(X_609  -0.006862743757665157)
(X_610  -0.006862743757665157)
(X_611  -0.0029411755967885256)
(X_612  -0.010784312151372433)
(X_613  0.08921568840742111)
(X_614  0.08921568840742111)
(X_615  0.08921568840742111)
(X_616  -0.006862743757665157)
(X_617  0.08921568840742111)
(X_618  0.08921568840742111)
(X_619  0.08529412001371384)
(X_620  0.08529412001371384)
(X_621  -0.010784312151372433)
(X_622  -0.010784312151372433)
(X_623  -0.006862743757665157)
(X_624  0.09313725680112839)
(X_625  0.09313725680112839)
(X_626  0.08921568840742111)
(X_627  0.08529412001371384)
(X_628  0.08529412001371384)
(X_629  0.08137255162000656)
(X_630  0.07745098322629929)
(X_631  0.07745098322629929)
(X_632  0.08529412001371384)
(X_633  0.08529412001371384)
(X_634  0.08529412001371384)
(X_635  0.08921568840742111)
(X_636  0.08921568840742111)
(X_637  -0.006862743757665157)
(X_638  0.09313725680112839)
(X_639  0.09313725680112839)
(X_640  0.08137255162000656)
(X_641  0.08137255162000656)
(X_642  0.08137255162000656)
(X_643  0.08137255162000656)
(X_644  0.08921568840742111)
(X_645  0.08529412001371384)
(X_646  -0.014705880545079708)
(X_647  -0.018627449870109558)
(X_648  -0.018627449870109558)
(X_649  -0.014705880545079708)
(X_650  0.08529412001371384)
(X_651  -0.010784312151372433)
(X_652  -0.014705880545079708)
(X_653  -0.014705880545079708)
(X_654  -0.014705880545079708)
(X_655  -0.014705880545079708)
(X_656  0.08529412001371384)
(X_657  0.08529412001371384)
(X_658  0.08529412001371384)
(X_659  0.08529412001371384)
(X_660  0.08137255162000656)
(X_661  0.08137255162000656)
(X_662  -0.018627449870109558)
(X_663  -0.014705880545079708)
(X_664  -0.014705880545079708)
(X_665  -0.010784312151372433)
(X_666  -0.010784312151372433)
(X_667  -0.010784312151372433)
(X_668  -0.018627449870109558)
(X_669  -0.018627449870109558)
(X_670  -0.018627449870109558)
(X_671  0.08137255162000656)
(X_672  -0.014705880545079708)
(X_673  0.08529412001371384)
(X_674  0.08529412001371384)
(X_675  0.08529412001371384)
(X_676  0.08529412001371384)
(X_677  0.08529412001371384)
(X_678  0.08529412001371384)
(X_679  0.08529412001371384)
(X_680  0.08529412001371384)
(X_681  0.08529412001371384)
(X_682  0.08529412001371384)
(X_683  -0.014705880545079708)
(X_684  -0.014705880545079708)
(X_685  0.08529412001371384)
(X_686  0.08529412001371384)
(X_687  0.08529412001371384)
(X_688  0.08529412001371384)
(X_689  0.08921568840742111)
(X_690  0.08921568840742111)
(X_691  0.08921568840742111)
(X_692  0.08921568840742111)
(X_693  0.08529412001371384)
(X_694  0.08137255162000656)
(X_695  0.07745098322629929)
(X_696  0.08529412001371384)
(X_697  -0.014705880545079708)
(X_698  -0.014705880545079708)
(X_699  -0.014705880545079708)
(X_700  0.08137255162000656)
(X_701  0.08137255162000656)
(X_702  0.08137255162000656)
(X_703  0.08137255162000656)
(X_704  0.08137255162000656)
(X_705  0.08137255162000656)
(X_706  -0.018627449870109558)
(X_707  -0.018627449870109558)
(X_708  -0.018627449870109558)
(X_709  -0.018627449870109558)
(X_710  -0.018627449870109558)
(X_711  -0.018627449870109558)
(X_712  -0.018627449870109558)
(X_713  -0.018627449870109558)
(X_714  -0.018627449870109558)
(X_715  0.08137255162000656)
(X_716  -0.014705880545079708)
(X_717  -0.014705880545079708)
(X_718  -0.014705880545079708)
(X_719  -0.014705880545079708)
(X_720  -0.014705880545079708)
(X_721  -0.018627449870109558)
(X_722  -0.022549020126461983)
(X_723  -0.026470588520169258)
(X_724  -0.018627449870109558)
(X_725  -0.018627449870109558)
(X_726  -0.018627449870109558)
(X_727  -0.018627449870109558)
(X_728  0.07745098322629929)
(X_729  0.07745098322629929)
(X_730  0.07745098322629929)
(X_731  0.07745098322629929)
(X_732  0.07745098322629929)
(X_733  0.07745098322629929)
(X_734  0.07745098322629929)
(X_735  0.07745098322629929)
(X_736  -0.022549020126461983)
(X_737  -0.022549020126461983)
(X_738  -0.022549020126461983)
(X_739  -0.022549020126461983)
(X_740  -0.022549020126461983)
(X_741  -0.022549020126461983)
(X_742  -0.022549020126461983)
(X_743  -0.022549020126461983)
(X_744  -0.022549020126461983)
(X_745  -0.018627449870109558)
(X_746  -0.018627449870109558)
(X_747  -0.018627449870109558)
(X_748  -0.018627449870109558)
(X_749  0.07745098322629929)
(X_750  0.07352941483259201)
(X_751  0.06960784643888474)
(X_752  0.07745098322629929)
(X_753  0.07745098322629929)
(X_754  0.07745098322629929)
(X_755  0.07745098322629929)
(X_756  -0.026470588520169258)
(X_757  -0.026470588520169258)
(X_758  -0.026470588520169258)
(X_759  0.07352941483259201)
(X_760  0.07352941483259201)
(X_761  0.07352941483259201)
(X_762  0.07352941483259201)
(X_763  -0.026470588520169258)
(X_764  -0.026470588520169258)
(X_765  -0.026470588520169258)
(X_766  0.07352941483259201)
(X_767  0.07352941483259201)
(X_768  0.07352941483259201)
(X_769  0.07352941483259201)
(X_770  0.07352941483259201)
(X_771  0.07352941483259201)
(X_772  0.07352941483259201)
(X_773  -0.022549020126461983)
(X_774  -0.022549020126461983)
(X_775  -0.022549020126461983)
(X_776  -0.022549020126461983)
(X_777  -0.026470588520169258)
(X_778  0.06960784643888474)
(X_779  0.06568627804517746)
(X_780  0.07352941483259201)
(X_781  -0.026470588520169258)
(X_782  -0.026470588520169258)
(X_783  0.07352941483259201)
(Y_0 33.27987289428711)
(Y_1 0.06263023614883423)
(Y_2 20.71785545349121)
(Y_3 -54.44492721557617))