((X_0  0.8068627715110779)
(X_1  0.6519607901573181)
(X_2  0.5578431487083435)
(X_3  0.5598039627075195)
(X_4  0.4852941334247589)
(X_5  0.41862747073173523)
(X_6  0.33627453446388245)
(X_7  0.16568627953529358)
(X_8  0.19117647409439087)
(X_9  0.1872549057006836)
(X_10  0.08725491166114807)
(X_11  0.0833333432674408)
(X_12  0.07941177487373352)
(X_13  0.17549020051956177)
(X_14  0.1715686321258545)
(X_15  0.0676470622420311)
(X_16  0.07156863063573837)
(X_17  0.07156863063573837)
(X_18  0.07156863063573837)
(X_19  0.07549020648002625)
(X_20  0.07549020648002625)
(X_21  0.17941176891326904)
(X_22  0.07941177487373352)
(X_23  0.0833333432674408)
(X_24  0.19117647409439087)
(X_25  0.09117648005485535)
(X_26  0.09117648005485535)
(X_27  0.1872549057006836)
(X_28  0.19117647409439087)
(X_29  0.09509804844856262)
(X_30  0.0833333432674408)
(X_31  0.06372549384832382)
(X_32  0.05980392172932625)
(X_33  0.07156863063573837)
(X_34  0.07156863063573837)
(X_35  0.15980392694473267)
(X_36  0.0833333432674408)
(X_37  0.0833333432674408)
(X_38  0.0833333432674408)
(X_39  0.07941177487373352)
(X_40  0.07549020648002625)
(X_41  0.07549020648002625)
(X_42  0.1715686321258545)
(X_43  0.07156863063573837)
(X_44  0.1715686321258545)
(X_45  0.1715686321258545)
(X_46  0.1715686321258545)
(X_47  0.07549020648002625)
(X_48  0.07549020648002625)
(X_49  0.07549020648002625)
(X_50  0.07549020648002625)
(X_51  0.07549020648002625)
(X_52  0.1715686321258545)
(X_53  0.1715686321258545)
(X_54  0.07156863063573837)
(X_55  0.16764706373214722)
(X_56  0.19117647409439087)
(X_57  0.114705890417099)
(X_58  0.11862745881080627)
(X_59  0.08725491166114807)
(X_60  0.05980392172932625)
(X_61  0.06372549384832382)
(X_62  0.07941177487373352)
(X_63  0.08725491166114807)
(X_64  0.07549020648002625)
(X_65  0.07549020648002625)
(X_66  0.07549020648002625)
(X_67  0.07549020648002625)
(X_68  0.17549020051956177)
(X_69  0.07549020648002625)
(X_70  0.07156863063573837)
(X_71  0.07156863063573837)
(X_72  0.07156863063573837)
(X_73  0.07156863063573837)
(X_74  0.07156863063573837)
(X_75  0.07156863063573837)
(X_76  0.1715686321258545)
(X_77  0.16764706373214722)
(X_78  0.16764706373214722)
(X_79  0.16764706373214722)
(X_80  0.16372549533843994)
(X_81  0.16372549533843994)
(X_82  0.15980392694473267)
(X_83  0.15980392694473267)
(X_84  0.17941176891326904)
(X_85  0.10294118523597717)
(X_86  0.10686275362968445)
(X_87  0.1715686321258545)
(X_88  0.14411765336990356)
(X_89  0.1401960849761963)
(X_90  0.05588235333561897)
(X_91  0.06372549384832382)
(X_92  0.16764706373214722)
(X_93  0.0676470622420311)
(X_94  0.0676470622420311)
(X_95  0.07156863063573837)
(X_96  0.1715686321258545)
(X_97  0.1715686321258545)
(X_98  0.1715686321258545)
(X_99  0.1715686321258545)
(X_100  0.1715686321258545)
(X_101  0.1715686321258545)
(X_102  0.1715686321258545)
(X_103  0.16764706373214722)
(X_104  0.16372549533843994)
(X_105  0.06372549384832382)
(X_106  0.05980392172932625)
(X_107  0.05980392172932625)
(X_108  0.07156863063573837)
(X_109  0.07156863063573837)
(X_110  0.07156863063573837)
(X_111  0.16764706373214722)
(X_112  0.06372549384832382)
(X_113  0.17549020051956177)
(X_114  0.17549020051956177)
(X_115  0.16372549533843994)
(X_116  0.16764706373214722)
(X_117  0.08725491166114807)
(X_118  0.09509804844856262)
(X_119  0.09509804844856262)
(X_120  0.06372549384832382)
(X_121  0.06372549384832382)
(X_122  0.06372549384832382)
(X_123  0.06372549384832382)
(X_124  0.16372549533843994)
(X_125  0.0676470622420311)
(X_126  0.0676470622420311)
(X_127  0.0676470622420311)
(X_128  0.16764706373214722)
(X_129  0.16764706373214722)
(X_130  0.16372549533843994)
(X_131  0.16372549533843994)
(X_132  0.15980392694473267)
(X_133  0.1558823585510254)
(X_134  0.05588235333561897)
(X_135  0.1558823585510254)
(X_136  0.17941176891326904)
(X_137  0.07941177487373352)
(X_138  0.17941176891326904)
(X_139  0.17549020051956177)
(X_140  0.17941176891326904)
(X_141  0.17549020051956177)
(X_142  0.15980392694473267)
(X_143  0.14411765336990356)
(X_144  0.14803922176361084)
(X_145  0.06372549384832382)
(X_146  0.05980392172932625)
(X_147  0.1401960849761963)
(X_148  0.16372549533843994)
(X_149  0.16372549533843994)
(X_150  0.15980392694473267)
(X_151  0.15980392694473267)
(X_152  0.15980392694473267)
(X_153  0.15980392694473267)
(X_154  0.15980392694473267)
(X_155  0.15980392694473267)
(X_156  0.05980392172932625)
(X_157  0.05980392172932625)
(X_158  0.15980392694473267)
(X_159  0.1558823585510254)
(X_160  0.1558823585510254)
(X_161  0.1558823585510254)
(X_162  0.1558823585510254)
(X_163  0.1558823585510254)
(X_164  0.1715686321258545)
(X_165  0.07156863063573837)
(X_166  0.1715686321258545)
(X_167  0.16764706373214722)
(X_168  0.0519607849419117)
(X_169  0.05588235333561897)
(X_170  0.14803922176361084)
(X_171  0.14411765336990356)
(X_172  0.1558823585510254)
(X_173  0.0833333432674408)
(X_174  0.08725491166114807)
(X_175  0.07156863063573837)
(X_176  0.16372549533843994)
(X_177  0.16372549533843994)
(X_178  0.15980392694473267)
(X_179  0.15980392694473267)
(X_180  0.1558823585510254)
(X_181  0.15196079015731812)
(X_182  0.0519607849419117)
(X_183  0.0519607849419117)
(X_184  0.15196079015731812)
(X_185  0.15196079015731812)
(X_186  0.15196079015731812)
(X_187  0.15196079015731812)
(X_188  0.0519607849419117)
(X_189  0.05588235333561897)
(X_190  0.05588235333561897)
(X_191  0.1558823585510254)
(X_192  0.16372549533843994)
(X_193  0.15980392694473267)
(X_194  0.15980392694473267)
(X_195  0.15980392694473267)
(X_196  0.05588235333561897)
(X_197  0.16764706373214722)
(X_198  0.15980392694473267)
(X_199  0.14411765336990356)
(X_200  0.1401960849761963)
(X_201  0.15196079015731812)
(X_202  0.05588235333561897)
(X_203  0.04803921654820442)
(X_204  0.0676470622420311)
(X_205  0.16372549533843994)
(X_206  0.15980392694473267)
(X_207  0.1558823585510254)
(X_208  0.0519607849419117)
(X_209  0.04803921654820442)
(X_210  0.04803921654820442)
(X_211  0.04411764815449715)
(X_212  0.14411765336990356)
(X_213  0.14803922176361084)
(X_214  0.14803922176361084)
(X_215  0.15196079015731812)
(X_216  0.0519607849419117)
(X_217  0.1558823585510254)
(X_218  0.1558823585510254)
(X_219  0.1558823585510254)
(X_220  0.15980392694473267)
(X_221  0.05980392172932625)
(X_222  0.05980392172932625)
(X_223  0.1558823585510254)
(X_224  0.0833333432674408)
(X_225  0.0519607849419117)
(X_226  0.036274511367082596)
(X_227  0.0519607849419117)
(X_228  0.0519607849419117)
(X_229  0.036274511367082596)
(X_230  0.03235294297337532)
(X_231  0.04803921654820442)
(X_232  0.0519607849419117)
(X_233  0.05588235333561897)
(X_234  0.05588235333561897)
(X_235  0.1558823585510254)
(X_236  0.05588235333561897)
(X_237  0.0519607849419117)
(X_238  0.04803921654820442)
(X_239  0.04411764815449715)
(X_240  0.05588235333561897)
(X_241  0.15196079015731812)
(X_242  0.16372549533843994)
(X_243  0.17549020051956177)
(X_244  0.1715686321258545)
(X_245  0.1558823585510254)
(X_246  0.1558823585510254)
(X_247  0.1715686321258545)
(X_248  0.03235294297337532)
(X_249  0.04411764815449715)
(X_250  0.05980392172932625)
(X_251  0.16764706373214722)
(X_252  0.020588237792253494)
(X_253  0.04019607976078987)
(X_254  0.07941177487373352)
(X_255  0.22254902124404907)
(X_256  0.2539215683937073)
(X_257  0.2774509787559509)
(X_258  0.30490198731422424)
(X_259  0.33235296607017517)
(X_260  0.15784314274787903)
(X_261  0.15392157435417175)
(X_262  0.14215686917304993)
(X_263  0.12647059559822083)
(X_264  0.20686274766921997)
(X_265  0.1872549057006836)
(X_266  0.1715686321258545)
(X_267  0.16372549533843994)
(X_268  0.15196079015731812)
(X_269  0.14411765336990356)
(X_270  0.14803922176361084)
(X_271  0.05980392172932625)
(X_272  0.0519607849419117)
(X_273  0.04019607976078987)
(X_274  0.04803921654820442)
(X_275  0.16764706373214722)
(X_276  0.16764706373214722)
(X_277  0.2029411792755127)
(X_278  0.15784314274787903)
(X_279  0.20098040997982025)
(X_280  0.21274511516094208)
(X_281  0.27941176295280457)
(X_282  0.3499999940395355)
(X_283  0.385294109582901)
(X_284  0.39313724637031555)
(X_285  0.49705883860588074)
(X_286  0.5009803771972656)
(X_287  0.49705883860588074)
(X_288  0.41274508833885193)
(X_289  0.4009803831577301)
(X_290  0.37745097279548645)
(X_291  0.34607842564582825)
(X_292  0.31470587849617004)
(X_293  0.27941176295280457)
(X_294  0.25196078419685364)
(X_295  0.23627452552318573)
(X_296  0.2696078419685364)
(X_297  0.1617647111415863)
(X_298  0.16568627953529358)
(X_299  0.16960784792900085)
(X_300  0.2656862735748291)
(X_301  0.2539215683937073)
(X_302  0.25784313678741455)
(X_303  0.1774509847164154)
(X_304  0.21666668355464935)
(X_305  0.23235295712947845)
(X_306  0.2558823525905609)
(X_307  0.26764705777168274)
(X_308  0.4735294282436371)
(X_309  0.5088235139846802)
(X_310  0.4166666567325592)
(X_311  0.3813725411891937)
(X_312  0.34607842564582825)
(X_313  0.3343137204647064)
(X_314  0.3225490152835846)
(X_315  0.3029411733150482)
(X_316  0.2754901945590973)
(X_317  0.27156862616539)
(X_318  0.3598039448261261)
(X_319  0.3480392396450043)
(X_320  0.33235296607017517)
(X_321  0.21666668355464935)
(X_322  0.20098040997982025)
(X_323  0.1931372582912445)
(X_324  0.3401961028575897)
(X_325  0.23627452552318573)
(X_326  0.240196093916893)
(X_327  0.35196080803871155)
(X_328  0.240196093916893)
(X_329  0.32058826088905334)
(X_330  0.22058825194835663)
(X_331  0.23235295712947845)
(X_332  0.22843138873577118)
(X_333  0.21666668355464935)
(X_334  0.20098040997982025)
(X_335  0.18137255311012268)
(X_336  0.3656862676143646)
(X_337  0.44607844948768616)
(X_338  0.39901962876319885)
(X_339  0.3480392396450043)
(X_340  0.3245098292827606)
(X_341  0.3284313976764679)
(X_342  0.22843138873577118)
(X_343  0.2245098203420639)
(X_344  0.29313725233078003)
(X_345  0.30098041892051697)
(X_346  0.2088235467672348)
(X_347  0.21666668355464935)
(X_348  0.2245098203420639)
(X_349  0.22843138873577118)
(X_350  0.23235295712947845)
(X_351  0.33235296607017517)
(X_352  0.32058826088905334)
(X_353  0.32058826088905334)
(X_354  0.33627453446388245)
(X_355  0.24803923070430756)
(X_356  0.23627452552318573)
(X_357  0.3088235557079315)
(X_358  0.2970588207244873)
(X_359  0.30490198731422424)
(X_360  0.19705882668495178)
(X_361  0.20098040997982025)
(X_362  0.19705882668495178)
(X_363  0.1931372582912445)
(X_364  0.3068627417087555)
(X_365  0.29901960492134094)
(X_366  0.4107843339443207)
(X_367  0.43431374430656433)
(X_368  0.43431374430656433)
(X_369  0.29901960492134094)
(X_370  0.2558823525905609)
(X_371  0.23627452552318573)
(X_372  0.2088235467672348)
(X_373  0.20490197837352753)
(X_374  0.20490197837352753)
(X_375  0.2970588207244873)
(X_376  0.28921568393707275)
(X_377  0.1774509847164154)
(X_378  0.16960784792900085)
(X_379  0.1617647111415863)
(X_380  0.2656862735748291)
(X_381  0.16960784792900085)
(X_382  0.2852941155433655)
(X_383  0.20490197837352753)
(X_384  0.20098040997982025)
(X_385  0.1774509847164154)
(X_386  0.16960784792900085)
(X_387  0.2774509787559509)
(X_388  0.22254902124404907)
(X_389  0.2656862735748291)
(X_390  0.3245098292827606)
(X_391  0.3715686500072479)
(X_392  0.5401960611343384)
(X_393  0.5362744927406311)
(X_394  0.5754902362823486)
(X_395  0.6343137621879578)
(X_396  0.6186274886131287)
(X_397  0.5362744927406311)
(X_398  0.48137256503105164)
(X_399  0.4852941334247589)
(X_400  0.36764708161354065)
(X_401  0.3598039448261261)
(X_402  0.344117671251297)
(X_403  0.32058826088905334)
(X_404  0.2970588207244873)
(X_405  0.17352941632270813)
(X_406  0.15392157435417175)
(X_407  0.14215686917304993)
(X_408  0.15784314274787903)
(X_409  0.15784314274787903)
(X_410  0.16960784792900085)
(X_411  0.29313725233078003)
(X_412  0.2970588207244873)
(X_413  0.29313725233078003)
(X_414  0.30490198731422424)
(X_415  0.3245098292827606)
(X_416  0.28333333134651184)
(X_417  0.3225490152835846)
(X_418  0.37745097279548645)
(X_419  0.42843136191368103)
(X_420  0.3343137204647064)
(X_421  0.26764705777168274)
(X_422  0.23627452552318573)
(X_423  0.24411766231060028)
(X_424  0.20490197837352753)
(X_425  0.14215686917304993)
(X_426  0.16960784792900085)
(X_427  0.3558823764324188)
(X_428  0.3068627417087555)
(X_429  0.3068627417087555)
(X_430  0.3068627417087555)
(X_431  0.29901960492134094)
(X_432  0.29509803652763367)
(X_433  0.387254923582077)
(X_434  0.3794117867946625)
(X_435  0.2754901945590973)
(X_436  0.3754902184009552)
(X_437  0.3715686500072479)
(X_438  0.3794117867946625)
(X_439  0.40294119715690613)
(X_440  0.41470590233802795)
(X_441  0.4264706075191498)
(X_442  0.3539215624332428)
(X_443  0.3892156779766083)
(X_444  0.37745097279548645)
(X_445  0.34607842564582825)
(X_446  0.2911764681339264)
(X_447  0.33235296607017517)
(X_448  0.2774509787559509)
(X_449  0.2696078419685364)
(X_450  0.25784313678741455)
(X_451  0.25)
(X_452  0.14215686917304993)
(X_453  0.1460784375667572)
(X_454  0.25)
(X_455  0.25)
(X_456  0.3558823764324188)
(X_457  0.3598039448261261)
(X_458  0.3794117867946625)
(X_459  0.4107843339443207)
(X_460  0.4225490391254425)
(X_461  0.41470590233802795)
(X_462  0.4068627655506134)
(X_463  0.31470587849617004)
(X_464  0.3186274468898773)
(X_465  0.3186274468898773)
(X_466  0.43431374430656433)
(X_467  0.41862747073173523)
(X_468  0.39901962876319885)
(X_469  0.4225490391254425)
(X_470  0.39901962876319885)
(X_471  0.3127451241016388)
(X_472  0.31666669249534607)
(X_473  0.30490198731422424)
(X_474  0.2813725471496582)
(X_475  0.25784313678741455)
(X_476  0.22843138873577118)
(X_477  0.21274511516094208)
(X_478  0.28921568393707275)
(X_479  0.2617647051811218)
(X_480  0.1460784375667572)
(X_481  0.13431373238563538)
(X_482  0.1303921639919281)
(X_483  0.1303921639919281)
(X_484  0.25)
(X_485  0.25)
(X_486  0.16960784792900085)
(X_487  0.20098040997982025)
(X_488  0.2088235467672348)
(X_489  0.19705882668495178)
(X_490  0.1931372582912445)
(X_491  0.20098040997982025)
(X_492  0.23235295712947845)
(X_493  0.22843138873577118)
(X_494  0.240196093916893)
(X_495  0.3245098292827606)
(X_496  0.30490198731422424)
(X_497  0.3245098292827606)
(X_498  0.3088235557079315)
(X_499  0.2343137264251709)
(X_500  0.1617647111415863)
(X_501  0.1460784375667572)
(X_502  0.12647059559822083)
(X_503  0.10686275362968445)
(X_504  0.1931372582912445)
(X_505  0.18137255311012268)
(X_506  0.1617647111415863)
(X_507  0.1460784375667572)
(X_508  0.13823530077934265)
(X_509  0.13823530077934265)
(X_510  0.1460784375667572)
(X_511  0.2539215683937073)
(X_512  0.15784314274787903)
(X_513  0.15784314274787903)
(X_514  0.17352941632270813)
(X_515  0.19705882668495178)
(X_516  0.20490197837352753)
(X_517  0.18921568989753723)
(X_518  0.18529412150382996)
(X_519  0.18921568989753723)
(X_520  0.21666668355464935)
(X_521  0.20490197837352753)
(X_522  0.21274511516094208)
(X_523  0.19705882668495178)
(X_524  0.1774509847164154)
(X_525  0.19705882668495178)
(X_526  0.1931372582912445)
(X_527  0.23039215803146362)
(X_528  0.11862745881080627)
(X_529  0.10686275362968445)
(X_530  0.09117648005485535)
(X_531  0.07156863063573837)
(X_532  0.22647058963775635)
(X_533  0.2186274528503418)
(X_534  0.20686274766921997)
(X_535  0.2029411792755127)
(X_536  0.10686275362968445)
(X_537  0.12254902720451355)
(X_538  0.14215686917304993)
(X_539  0.2539215683937073)
(X_540  0.13431373238563538)
(X_541  0.1303921639919281)
(X_542  0.14215686917304993)
(X_543  0.16568627953529358)
(X_544  0.16960784792900085)
(X_545  0.15392157435417175)
(X_546  0.1460784375667572)
(X_547  0.15392157435417175)
(X_548  0.2617647051811218)
(X_549  0.24215686321258545)
(X_550  0.1460784375667572)
(X_551  0.2343137264251709)
(X_552  0.21078431606292725)
(X_553  0.23039215803146362)
(X_554  0.2343137264251709)
(X_555  0.08725491166114807)
(X_556  0.19509804248809814)
(X_557  0.0833333432674408)
(X_558  0.07156863063573837)
(X_559  0.1558823585510254)
(X_560  0.21078431606292725)
(X_561  0.0990196168422699)
(X_562  0.0833333432674408)
(X_563  0.07156863063573837)
(X_564  0.0676470622420311)
(X_565  0.1715686321258545)
(X_566  0.07941177487373352)
(X_567  0.08725491166114807)
(X_568  0.0833333432674408)
(X_569  0.07549020648002625)
(X_570  0.0833333432674408)
(X_571  0.10294118523597717)
(X_572  0.10294118523597717)
(X_573  0.08725491166114807)
(X_574  0.0833333432674408)
(X_575  0.09117648005485535)
(X_576  0.11862745881080627)
(X_577  0.09509804844856262)
(X_578  0.19901961088180542)
(X_579  0.19117647409439087)
(X_580  0.16372549533843994)
(X_581  0.17941176891326904)
(X_582  0.19117647409439087)
(X_583  0.15980392694473267)
(X_584  0.1558823585510254)
(X_585  0.0519607849419117)
(X_586  0.04019607976078987)
(X_587  0.028431374579668045)
(X_588  0.18333333730697632)
(X_589  0.07549020648002625)
(X_590  0.06372549384832382)
(X_591  0.05588235333561897)
(X_592  0.04803921654820442)
(X_593  0.14803922176361084)
(X_594  0.15196079015731812)
(X_595  0.1558823585510254)
(X_596  0.16764706373214722)
(X_597  0.15980392694473267)
(X_598  0.06372549384832382)
(X_599  0.07941177487373352)
(X_600  0.0833333432674408)
(X_601  0.0676470622420311)
(X_602  0.06372549384832382)
(X_603  0.07156863063573837)
(X_604  0.11078432202339172)
(X_605  0.0833333432674408)
(X_606  0.19117647409439087)
(X_607  0.1872549057006836)
(X_608  0.15980392694473267)
(X_609  0.1715686321258545)
(X_610  0.1872549057006836)
(X_611  0.16764706373214722)
(X_612  0.04019607976078987)
(X_613  0.036274511367082596)
(X_614  0.028431374579668045)
(X_615  0.12058823555707932)
(X_616  0.14411765336990356)
(X_617  0.04019607976078987)
(X_618  0.04019607976078987)
(X_619  0.04411764815449715)
(X_620  0.14411765336990356)
(X_621  0.14803922176361084)
(X_622  0.14803922176361084)
(X_623  0.15196079015731812)
(X_624  0.12843137979507446)
(X_625  0.12058823555707932)
(X_626  0.12450980395078659)
(X_627  0.14411765336990356)
(X_628  0.04411764815449715)
(X_629  0.03235294297337532)
(X_630  0.12843137979507446)
(X_631  0.1401960849761963)
(X_632  0.1558823585510254)
(X_633  0.028431374579668045)
(X_634  0.04019607976078987)
(X_635  0.14411765336990356)
(X_636  0.11666666716337204)
(X_637  0.12058823555707932)
(X_638  0.136274516582489)
(X_639  0.02450980618596077)
(X_640  0.136274516582489)
(X_641  0.13235294818878174)
(X_642  0.12843137979507446)
(X_643  0.12843137979507446)
(X_644  0.1401960849761963)
(X_645  0.04019607976078987)
(X_646  0.04019607976078987)
(X_647  0.136274516582489)
(X_648  0.13235294818878174)
(X_649  0.12843137979507446)
(X_650  0.12450980395078659)
(X_651  0.020588237792253494)
(X_652  0.136274516582489)
(X_653  0.028431374579668045)
(X_654  0.03235294297337532)
(X_655  0.04803921654820442)
(X_656  0.0519607849419117)
(X_657  0.04019607976078987)
(X_658  0.04019607976078987)
(X_659  0.0519607849419117)
(X_660  0.0519607849419117)
(X_661  0.12450980395078659)
(X_662  0.1401960849761963)
(X_663  0.04803921654820442)
(X_664  0.01666666939854622)
(X_665  0.01666666939854622)
(X_666  0.036274511367082596)
(X_667  0.02450980618596077)
(X_668  0.02450980618596077)
(X_669  0.020588237792253494)
(X_670  0.020588237792253494)
(X_671  0.01666666939854622)
(X_672  0.12450980395078659)
(X_673  0.02450980618596077)
(X_674  0.02450980618596077)
(X_675  0.02450980618596077)
(X_676  0.02450980618596077)
(X_677  0.12450980395078659)
(X_678  0.12450980395078659)
(X_679  0.02450980618596077)
(X_680  -0.0029411755967885256)
(X_681  0.10882353037595749)
(X_682  0.12058823555707932)
(X_683  0.13235294818878174)
(X_684  0.1401960849761963)
(X_685  0.136274516582489)
(X_686  0.028431374579668045)
(X_687  0.02450980618596077)
(X_688  0.10490196198225021)
(X_689  0.10098039358854294)
(X_690  0.10098039358854294)
(X_691  0.10490196198225021)
(X_692  0.10882353037595749)
(X_693  0.11274509876966476)
(X_694  0.012745101936161518)
(X_695  0.008823529817163944)
(X_696  0.008823529817163944)
(X_697  0.10882353037595749)
(X_698  0.10882353037595749)
(X_699  0.10490196198225021)
(X_700  0.11666666716337204)
(X_701  0.01666666939854622)
(X_702  0.01666666939854622)
(X_703  0.01666666939854622)
(X_704  0.01666666939854622)
(X_705  0.01666666939854622)
(X_706  0.01666666939854622)
(X_707  0.01666666939854622)
(X_708  -0.0029411755967885256)
(X_709  0.0009803927969187498)
(X_710  0.004901961423456669)
(X_711  0.10490196198225021)
(X_712  0.10098039358854294)
(X_713  -0.0029411755967885256)
(X_714  -0.010784312151372433)
(X_715  -0.018627449870109558)
(X_716  0.036274511367082596)
(X_717  0.03235294297337532)
(X_718  0.02450980618596077)
(X_719  0.020588237792253494)
(X_720  0.020588237792253494)
(X_721  0.012745101936161518)
(X_722  0.004901961423456669)
(X_723  0.0009803927969187498)
(X_724  0.12058823555707932)
(X_725  0.12058823555707932)
(X_726  0.12058823555707932)
(X_727  0.11666666716337204)
(X_728  0.10882353037595749)
(X_729  0.008823529817163944)
(X_730  0.10882353037595749)
(X_731  0.10882353037595749)
(X_732  0.10882353037595749)
(X_733  0.10882353037595749)
(X_734  0.10882353037595749)
(X_735  0.10882353037595749)
(X_736  0.10490196198225021)
(X_737  0.10882353037595749)
(X_738  0.012745101936161518)
(X_739  0.01666666939854622)
(X_740  0.12450980395078659)
(X_741  0.13235294818878174)
(X_742  0.136274516582489)
(X_743  0.1401960849761963)
(X_744  0.08921568840742111)
(X_745  0.08921568840742111)
(X_746  0.09705882519483566)
(X_747  0.0009803927969187498)
(X_748  0.10490196198225021)
(X_749  0.10490196198225021)
(X_750  0.004901961423456669)
(X_751  0.004901961423456669)
(X_752  0.11274509876966476)
(X_753  0.11274509876966476)
(X_754  0.10882353037595749)
(X_755  0.10882353037595749)
(X_756  0.10490196198225021)
(X_757  0.004901961423456669)
(X_758  0.004901961423456669)
(X_759  0.004901961423456669)
(X_760  0.004901961423456669)
(X_761  0.10490196198225021)
(X_762  0.10490196198225021)
(X_763  0.10490196198225021)
(X_764  0.10098039358854294)
(X_765  0.10490196198225021)
(X_766  0.020588237792253494)
(X_767  0.04411764815449715)
(X_768  0.07941177487373352)
(X_769  0.114705890417099)
(X_770  0.1460784375667572)
(X_771  0.16568627953529358)
(X_772  0.27941176295280457)
(X_773  0.29901960492134094)
(X_774  0.32647058367729187)
(X_775  0.3578431308269501)
(X_776  0.3813725411891937)
(X_777  0.4049019515514374)
(X_778  0.42450979351997375)
(X_779  0.4362744987010956)
(X_780  0.4754902124404907)
(X_781  0.4754902124404907)
(X_782  0.47156864404678345)
(X_783  0.47156864404678345)
(Y_0 -32.003662109375)
(Y_1 51.13521957397461)
(Y_2 -23.569814682006836)
(Y_3 7.0800909996032715))