((X_0  1.0499999523162842)
(X_1  0.949999988079071)
(X_2  0.949999988079071)
(X_3  0.9695241451263428)
(X_4  1.014731764793396)
(X_5  0.9460784196853638)
(X_6  0.9421568512916565)
(X_7  0.9382352828979492)
(X_8  1.0460784435272217)
(X_9  1.0499999523162842)
(X_10  1.0499999523162842)
(X_11  1.0499999523162842)
(X_12  1.0304757356643677)
(X_13  1.0460784435272217)
(X_14  1.0499999523162842)
(X_15  0.949999988079071)
(X_16  0.9460784196853638)
(X_17  0.949999988079071)
(X_18  0.949999988079071)
(X_19  0.949999988079071)
(X_20  1.0499999523162842)
(X_21  1.0460784435272217)
(X_22  1.0421568155288696)
(X_23  1.0421568155288696)
(X_24  1.0499999523162842)
(X_25  1.0499999523162842)
(X_26  0.9460784196853638)
(X_27  0.9421568512916565)
(X_28  0.9009804129600525)
(X_29  0.9166666865348816)
(X_30  0.8441176414489746)
(X_31  0.8754901885986328)
(X_32  0.93030846118927)
(X_33  0.9382352828979492)
(X_34  0.9695241451263428)
(X_35  1.0499999523162842)
(X_36  1.034313678741455)
(X_37  0.9421568512916565)
(X_38  0.9460784196853638)
(X_39  0.9421568512916565)
(X_40  0.9343137145042419)
(X_41  0.9951239824295044)
(X_42  1.034313678741455)
(X_43  0.9421568512916565)
(X_44  1.034313678741455)
(X_45  1.034313678741455)
(X_46  1.0421568155288696)
(X_47  1.0460784435272217)
(X_48  0.9460784196853638)
(X_49  0.9460784196853638)
(X_50  0.9460784196853638)
(X_51  0.9460784196853638)
(X_52  1.034313678741455)
(X_53  1.0382353067398071)
(X_54  1.002967119216919)
(X_55  1.0421568155288696)
(X_56  0.18921568989753723)
(X_57  0.20098040997982025)
(X_58  0.2245098203420639)
(X_59  0.2558823525905609)
(X_60  0.2872548997402191)
(X_61  0.31078431010246277)
(X_62  0.33039215207099915)
(X_63  0.34215685725212097)
(X_64  0.5245097875595093)
(X_65  0.45196080207824707)
(X_66  0.4990196228027344)
(X_67  0.6343973875045776)
(X_68  0.6401702165603638)
(X_69  0.6558823585510254)
(X_70  0.7029411792755127)
(X_71  0.7695819139480591)
(X_72  0.7813725471496582)
(X_73  0.79313725233078)
(X_74  0.8127450942993164)
(X_75  0.8362745046615601)
(X_76  0.8598039150238037)
(X_77  0.979411780834198)
(X_78  0.9950980544090271)
(X_79  0.9990196228027344)
(X_80  1.018627405166626)
(X_81  1.0264705419540405)
(X_82  0.9343137145042419)
(X_83  1.0460784435272217)
(X_84  0.19509804248809814)
(X_85  0.19901961088180542)
(X_86  0.19901961088180542)
(X_87  0.2029411792755127)
(X_88  0.18341697752475739)
(X_89  0.0990196168422699)
(X_90  0.1303662657737732)
(X_91  0.1303662657737732)
(X_92  0.10686275362968445)
(X_93  0.11078432202339172)
(X_94  0.11078432202339172)
(X_95  0.10294118523597717)
(X_96  0.19117647409439087)
(X_97  0.0833333432674408)
(X_98  0.18333333730697632)
(X_99  0.1872549057006836)
(X_100  0.23823529481887817)
(X_101  0.25)
(X_102  0.27352941036224365)
(X_103  0.2775346040725708)
(X_104  0.2245098203420639)
(X_105  0.24803923070430756)
(X_106  0.26372548937797546)
(X_107  0.27156862616539)
(X_108  0.3696078360080719)
(X_109  0.37745097279548645)
(X_110  0.3892156779766083)
(X_111  0.5009803771972656)
(X_112  0.12254902720451355)
(X_113  0.20694638788700104)
(X_114  0.20302481949329376)
(X_115  0.22254902124404907)
(X_116  0.18335923552513123)
(X_117  0.11078432202339172)
(X_118  0.10294118523597717)
(X_119  0.10294118523597717)
(X_120  0.0676470622420311)
(X_121  0.07549020648002625)
(X_122  0.09117648005485535)
(X_123  0.09509804844856262)
(X_124  0.10294118523597717)
(X_125  0.10686275362968445)
(X_126  0.12254902720451355)
(X_127  0.1303921639919281)
(X_128  0.19509804248809814)
(X_129  0.19901961088180542)
(X_130  0.2029411792755127)
(X_131  0.20686274766921997)
(X_132  0.20686274766921997)
(X_133  0.20686274766921997)
(X_134  0.20686274766921997)
(X_135  0.2029411792755127)
(X_136  0.1715686321258545)
(X_137  0.07941177487373352)
(X_138  0.1872549057006836)
(X_139  0.19509804248809814)
(X_140  0.0833333432674408)
(X_141  0.18333333730697632)
(X_142  0.1872549057006836)
(X_143  0.19117647409439087)
(X_144  0.09117648005485535)
(X_145  0.08725491166114807)
(X_146  0.08725491166114807)
(X_147  0.18333333730697632)
(X_148  0.19901961088180542)
(X_149  0.2029411792755127)
(X_150  0.2029411792755127)
(X_151  0.19901961088180542)
(X_152  0.1872549057006836)
(X_153  0.17941176891326904)
(X_154  0.18333333730697632)
(X_155  0.1872549057006836)
(X_156  0.1991032510995865)
(X_157  0.2186274528503418)
(X_158  0.2186274528503418)
(X_159  0.21470588445663452)
(X_160  0.21078431606292725)
(X_161  0.10686275362968445)
(X_162  0.0990196168422699)
(X_163  0.1303662657737732)
(X_164  0.1872549057006836)
(X_165  0.09117648005485535)
(X_166  0.09509804844856262)
(X_167  0.17557384073734283)
(X_168  0.10294118523597717)
(X_169  0.2029411792755127)
(X_170  0.1715945303440094)
(X_171  0.16767296195030212)
(X_172  0.10294118523597717)
(X_173  0.09509804844856262)
(X_174  0.09117648005485535)
(X_175  0.09117648005485535)
(X_176  0.1715686321258545)
(X_177  0.17941176891326904)
(X_178  0.18333333730697632)
(X_179  0.18333333730697632)
(X_180  0.17941176891326904)
(X_181  0.07941177487373352)
(X_182  0.08725491166114807)
(X_183  0.09117648005485535)
(X_184  0.1715686321258545)
(X_185  0.17549020051956177)
(X_186  0.18333333730697632)
(X_187  0.1872549057006836)
(X_188  0.19117647409439087)
(X_189  0.19509804248809814)
(X_190  0.19509804248809814)
(X_191  0.19509804248809814)
(X_192  0.1872549057006836)
(X_193  0.16773070394992828)
(X_194  0.0833333432674408)
(X_195  0.0833333432674408)
(X_196  0.07156863063573837)
(X_197  0.17549020051956177)
(X_198  0.15596599876880646)
(X_199  0.07549020648002625)
(X_200  0.07549020648002625)
(X_201  0.09109283983707428)
(X_202  0.0676470622420311)
(X_203  0.0676470622420311)
(X_204  0.07549020648002625)
(X_205  0.07941177487373352)
(X_206  0.08725491166114807)
(X_207  0.1872549057006836)
(X_208  0.0833333432674408)
(X_209  0.08725491166114807)
(X_210  0.09117648005485535)
(X_211  0.19901961088180542)
(X_212  0.1872549057006836)
(X_213  0.19117647409439087)
(X_214  0.19117647409439087)
(X_215  0.19509804248809814)
(X_216  0.19117647409439087)
(X_217  0.19117647409439087)
(X_218  0.1872549057006836)
(X_219  0.18333333730697632)
(X_220  0.1715686321258545)
(X_221  0.0676470622420311)
(X_222  0.06372549384832382)
(X_223  0.16372549533843994)
(X_224  0.07156863063573837)
(X_225  0.17549020051956177)
(X_226  0.17941176891326904)
(X_227  0.17549020051956177)
(X_228  0.09109283983707428)
(X_229  0.0676470622420311)
(X_230  0.0676470622420311)
(X_231  0.0676470622420311)
(X_232  0.07156863063573837)
(X_233  0.07549020648002625)
(X_234  0.163809135556221)
(X_235  0.1872549057006836)
(X_236  0.12252312898635864)
(X_237  0.0833333432674408)
(X_238  0.07549020648002625)
(X_239  0.07156863063573837)
(X_240  0.04411764815449715)
(X_241  0.19117647409439087)
(X_242  0.16764706373214722)
(X_243  0.16372549533843994)
(X_244  0.21470588445663452)
(X_245  0.19509804248809814)
(X_246  0.1715686321258545)
(X_247  0.12647059559822083)
(X_248  0.0519607849419117)
(X_249  0.07156863063573837)
(X_250  0.07941177487373352)
(X_251  0.16764706373214722)
(X_252  0.240196093916893)
(X_253  0.22843138873577118)
(X_254  0.3127451241016388)
(X_255  0.30490198731422424)
(X_256  0.30098041892051697)
(X_257  0.28921568393707275)
(X_258  0.2656862735748291)
(X_259  0.24215686321258545)
(X_260  0.13823530077934265)
(X_261  0.11862745881080627)
(X_262  0.09117648005485535)
(X_263  0.16764706373214722)
(X_264  0.15980392694473267)
(X_265  0.15596599876880646)
(X_266  0.19901961088180542)
(X_267  0.21470588445663452)
(X_268  0.2029411792755127)
(X_269  0.22254902124404907)
(X_270  0.1872549057006836)
(X_271  0.0833333432674408)
(X_272  0.13431373238563538)
(X_273  0.21078431606292725)
(X_274  0.1558823585510254)
(X_275  0.07549020648002625)
(X_276  0.17941176891326904)
(X_277  0.10677911341190338)
(X_278  0.07941177487373352)
(X_279  0.0519607849419117)
(X_280  0.45000001788139343)
(X_281  0.43039217591285706)
(X_282  0.38335925340652466)
(X_283  0.32647058367729187)
(X_284  0.34607842564582825)
(X_285  0.45000001788139343)
(X_286  0.43039217591285706)
(X_287  0.4068627655506134)
(X_288  0.27941176295280457)
(X_289  0.27941176295280457)
(X_290  0.2754901945590973)
(X_291  0.36764708161354065)
(X_292  0.3637255132198334)
(X_293  0.2598039209842682)
(X_294  0.2598039209842682)
(X_295  0.2558823525905609)
(X_296  0.3637255132198334)
(X_297  0.2754901945590973)
(X_298  0.26372548937797546)
(X_299  0.2872548997402191)
(X_300  0.41473180055618286)
(X_301  0.44607844948768616)
(X_302  0.38333335518836975)
(X_303  0.2598039209842682)
(X_304  0.15392157435417175)
(X_305  0.15392157435417175)
(X_306  0.1303921639919281)
(X_307  0.11070068180561066)
(X_308  0.3794117867946625)
(X_309  0.36764708161354065)
(X_310  0.3637255132198334)
(X_311  0.27156862616539)
(X_312  0.2911764681339264)
(X_313  0.31078431010246277)
(X_314  0.31470587849617004)
(X_315  0.31078431010246277)
(X_316  0.387254923582077)
(X_317  0.3950980603694916)
(X_318  0.4068627655506134)
(X_319  0.41470590233802795)
(X_320  0.41470590233802795)
(X_321  0.3029411733150482)
(X_322  0.2911764681339264)
(X_323  0.28333333134651184)
(X_324  0.24803923070430756)
(X_325  0.26372548937797546)
(X_326  0.26764705777168274)
(X_327  0.3911764919757843)
(X_328  0.3577595353126526)
(X_329  0.36560267210006714)
(X_330  0.4107843339443207)
(X_331  0.3754902184009552)
(X_332  0.33036625385284424)
(X_333  0.2872548997402191)
(X_334  0.27156862616539)
(X_335  0.24803923070430756)
(X_336  0.3637255132198334)
(X_337  0.3598039448261261)
(X_338  0.3480392396450043)
(X_339  0.2245098203420639)
(X_340  0.30490198731422424)
(X_341  0.2970588207244873)
(X_342  0.2088235467672348)
(X_343  0.2245098203420639)
(X_344  0.3911764919757843)
(X_345  0.3754902184009552)
(X_346  0.3480392396450043)
(X_347  0.2245098203420639)
(X_348  0.22058825194835663)
(X_349  0.22843138873577118)
(X_350  0.24803923070430756)
(X_351  0.3598039448261261)
(X_352  0.3245098292827606)
(X_353  0.3245098292827606)
(X_354  0.22058825194835663)
(X_355  0.20490197837352753)
(X_356  0.26963376998901367)
(X_357  0.344117671251297)
(X_358  0.3754902184009552)
(X_359  0.3715686500072479)
(X_360  0.3911764919757843)
(X_361  0.38333335518836975)
(X_362  0.27941176295280457)
(X_363  0.2872548997402191)
(X_364  0.4323529303073883)
(X_365  0.5441176295280457)
(X_366  0.5401960611343384)
(X_367  0.5088235139846802)
(X_368  0.4696078598499298)
(X_369  0.3499999940395355)
(X_370  0.36176469922065735)
(X_371  0.3813725411891937)
(X_372  0.34607842564582825)
(X_373  0.3343137204647064)
(X_374  0.4107843339443207)
(X_375  0.38333335518836975)
(X_376  0.3442012667655945)
(X_377  0.25196078419685364)
(X_378  0.24803923070430756)
(X_379  0.24803923070430756)
(X_380  0.18921568989753723)
(X_381  0.28921568393707275)
(X_382  0.30490198731422424)
(X_383  0.2852941155433655)
(X_384  0.1774509847164154)
(X_385  0.26764705777168274)
(X_386  0.37745097279548645)
(X_387  0.4049019515514374)
(X_388  0.35196080803871155)
(X_389  0.22058825194835663)
(X_390  0.20098040997982025)
(X_391  0.21666668355464935)
(X_392  0.5794118046760559)
(X_393  0.5990196466445923)
(X_394  0.6186274886131287)
(X_395  0.6264706254005432)
(X_396  0.6186274886131287)
(X_397  0.6107843518257141)
(X_398  0.6147059202194214)
(X_399  0.522549033164978)
(X_400  0.5421568751335144)
(X_401  0.5460784435272217)
(X_402  0.638235330581665)
(X_403  0.6264706254005432)
(X_404  0.595098078250885)
(X_405  0.5598039627075195)
(X_406  0.42450979351997375)
(X_407  0.4853777289390564)
(X_408  0.4421568810939789)
(X_409  0.36176469922065735)
(X_410  0.4205882251262665)
(X_411  0.520588219165802)
(X_412  0.4892157018184662)
(X_413  0.4637255072593689)
(X_414  0.6500000357627869)
(X_415  0.6343137621879578)
(X_416  0.41266149282455444)
(X_417  0.31470587849617004)
(X_418  0.240196093916893)
(X_419  0.22058825194835663)
(X_420  0.33030855655670166)
(X_421  0.43431374430656433)
(X_422  0.4735294282436371)
(X_423  0.41274508833885193)
(X_424  0.4362744987010956)
(X_425  0.4362744987010956)
(X_426  0.4892415702342987)
(X_427  0.5127450823783875)
(X_428  0.4793281555175781)
(X_429  0.5362744927406311)
(X_430  0.4205045700073242)
(X_431  0.3656862676143646)
(X_432  0.3382352888584137)
(X_433  0.3225490152835846)
(X_434  0.3225490152835846)
(X_435  0.3225490152835846)
(X_436  0.520588219165802)
(X_437  0.5480391979217529)
(X_438  0.522549033164978)
(X_439  0.5147058963775635)
(X_440  0.520588219165802)
(X_441  0.4205045700073242)
(X_442  0.385294109582901)
(X_443  0.2872548997402191)
(X_444  0.5186274647712708)
(X_445  0.39313724637031555)
(X_446  0.26372548937797546)
(X_447  0.30490198731422424)
(X_448  0.31666669249534607)
(X_449  0.24803923070430756)
(X_450  0.25196078419685364)
(X_451  0.240196093916893)
(X_452  0.2558823525905609)
(X_453  0.2872548997402191)
(X_454  0.3715686500072479)
(X_455  0.3284313976764679)
(X_456  0.3558823764324188)
(X_457  0.35196080803871155)
(X_458  0.3480392396450043)
(X_459  0.3480392396450043)
(X_460  0.35196080803871155)
(X_461  0.29507213830947876)
(X_462  0.27156862616539)
(X_463  0.27941176295280457)
(X_464  0.24803923070430756)
(X_465  0.3068627417087555)
(X_466  0.3499999940395355)
(X_467  0.4539215862751007)
(X_468  0.46176472306251526)
(X_469  0.46568629145622253)
(X_470  0.43039217591285706)
(X_471  0.3754902184009552)
(X_472  0.38333335518836975)
(X_473  0.457843154668808)
(X_474  0.49705883860588074)
(X_475  0.4696078598499298)
(X_476  0.1931372582912445)
(X_477  0.21666668355464935)
(X_478  0.32058826088905334)
(X_479  0.2088235467672348)
(X_480  0.22058825194835663)
(X_481  0.25196078419685364)
(X_482  0.240196093916893)
(X_483  0.22442619502544403)
(X_484  0.3127451241016388)
(X_485  0.30490198731422424)
(X_486  0.30098041892051697)
(X_487  0.19705882668495178)
(X_488  0.23232704401016235)
(X_489  0.28145620226860046)
(X_490  0.3088235557079315)
(X_491  0.29714247584342957)
(X_492  0.1931372582912445)
(X_493  0.24411766231060028)
(X_494  0.28333333134651184)
(X_495  0.2872548997402191)
(X_496  0.2911764681339264)
(X_497  0.40294119715690613)
(X_498  0.3754902184009552)
(X_499  0.22843138873577118)
(X_500  0.2617647051811218)
(X_501  0.3284313976764679)
(X_502  0.3186015486717224)
(X_503  0.32644468545913696)
(X_504  0.15392157435417175)
(X_505  0.2087976336479187)
(X_506  0.27352941036224365)
(X_507  0.23831893503665924)
(X_508  0.16568627953529358)
(X_509  0.1931372582912445)
(X_510  0.25786903500556946)
(X_511  0.1852104812860489)
(X_512  0.18137255311012268)
(X_513  0.19697518646717072)
(X_514  0.2343396246433258)
(X_515  0.16568627953529358)
(X_516  0.1617647111415863)
(X_517  0.16568627953529358)
(X_518  0.16960784792900085)
(X_519  0.17352941632270813)
(X_520  0.15784314274787903)
(X_521  0.19705882668495178)
(X_522  0.2245098203420639)
(X_523  0.2245098203420639)
(X_524  0.23235295712947845)
(X_525  0.344117671251297)
(X_526  0.3245098292827606)
(X_527  0.28921568393707275)
(X_528  0.19901961088180542)
(X_529  0.1460784375667572)
(X_530  0.2088235467672348)
(X_531  0.2598039209842682)
(X_532  0.21470588445663452)
(X_533  0.22647058963775635)
(X_534  0.22254902124404907)
(X_535  0.21078431606292725)
(X_536  0.21470588445663452)
(X_537  0.13823530077934265)
(X_538  0.22655422985553741)
(X_539  0.23039215803146362)
(X_540  0.15000000596046448)
(X_541  0.1460784375667572)
(X_542  0.24215686321258545)
(X_543  0.14215686917304993)
(X_544  0.14215686917304993)
(X_545  0.14215686917304993)
(X_546  0.1460784375667572)
(X_547  0.15000000596046448)
(X_548  0.23823529481887817)
(X_549  0.1617647111415863)
(X_550  0.17352941632270813)
(X_551  0.16960784792900085)
(X_552  0.27352941036224365)
(X_553  0.2813725471496582)
(X_554  0.16960784792900085)
(X_555  0.1460784375667572)
(X_556  0.19509804248809814)
(X_557  0.21078431606292725)
(X_558  0.2656862735748291)
(X_559  0.33235296607017517)
(X_560  0.1872549057006836)
(X_561  0.09117648005485535)
(X_562  0.09117648005485535)
(X_563  0.07941177487373352)
(X_564  0.07941177487373352)
(X_565  0.09509804844856262)
(X_566  0.10294118523597717)
(X_567  0.10294118523597717)
(X_568  0.0990196168422699)
(X_569  0.0990196168422699)
(X_570  0.16375139355659485)
(X_571  0.10294118523597717)
(X_572  0.10686275362968445)
(X_573  0.11078432202339172)
(X_574  0.114705890417099)
(X_575  0.114705890417099)
(X_576  0.10686275362968445)
(X_577  0.114705890417099)
(X_578  0.11862745881080627)
(X_579  0.20686274766921997)
(X_580  0.18341697752475739)
(X_581  0.10686275362968445)
(X_582  0.16375139355659485)
(X_583  0.1872549057006836)
(X_584  0.1715686321258545)
(X_585  0.05980392172932625)
(X_586  0.1872549057006836)
(X_587  0.14215686917304993)
(X_588  0.16372549533843994)
(X_589  0.0676470622420311)
(X_590  0.0676470622420311)
(X_591  0.05980392172932625)
(X_592  0.1558823585510254)
(X_593  0.16372549533843994)
(X_594  0.07156863063573837)
(X_595  0.07941177487373352)
(X_596  0.16764706373214722)
(X_597  0.16764706373214722)
(X_598  0.07156863063573837)
(X_599  0.07549020648002625)
(X_600  0.0833333432674408)
(X_601  0.08725491166114807)
(X_602  0.09117648005485535)
(X_603  0.09117648005485535)
(X_604  0.1872549057006836)
(X_605  0.1872549057006836)
(X_606  0.18333333730697632)
(X_607  0.17549020051956177)
(X_608  0.16764706373214722)
(X_609  0.0676470622420311)
(X_610  0.0989937111735344)
(X_611  0.15980392694473267)
(X_612  0.05980392172932625)
(X_613  0.04411764815449715)
(X_614  0.14803922176361084)
(X_615  0.17549020051956177)
(X_616  0.14411765336990356)
(X_617  0.14803922176361084)
(X_618  0.1324365735054016)
(X_619  0.0519607849419117)
(X_620  0.04411764815449715)
(X_621  0.12067186832427979)
(X_622  0.04803921654820442)
(X_623  0.06372549384832382)
(X_624  0.07932813465595245)
(X_625  0.05980392172932625)
(X_626  0.16372549533843994)
(X_627  0.16764706373214722)
(X_628  0.0676470622420311)
(X_629  0.07156863063573837)
(X_630  0.07156863063573837)
(X_631  0.07156863063573837)
(X_632  0.07549020648002625)
(X_633  0.07156863063573837)
(X_634  0.0676470622420311)
(X_635  0.0676470622420311)
(X_636  0.16372549533843994)
(X_637  0.15980392694473267)
(X_638  0.16372549533843994)
(X_639  0.06372549384832382)
(X_640  0.06372549384832382)
(X_641  0.1363581418991089)
(X_642  0.1558823585510254)
(X_643  0.16372549533843994)
(X_644  0.12843137979507446)
(X_645  0.036274511367082596)
(X_646  0.14411765336990356)
(X_647  0.14803922176361084)
(X_648  0.136274516582489)
(X_649  0.10890716314315796)
(X_650  0.136274516582489)
(X_651  0.15196079015731812)
(X_652  0.14411765336990356)
(X_653  0.14803922176361084)
(X_654  0.04803921654820442)
(X_655  0.04803921654820442)
(X_656  0.04803921654820442)
(X_657  0.04411764815449715)
(X_658  0.04019607976078987)
(X_659  0.04019607976078987)
(X_660  0.15196079015731812)
(X_661  0.14803922176361084)
(X_662  0.14803922176361084)
(X_663  0.0714849978685379)
(X_664  0.05588235333561897)
(X_665  0.15196079015731812)
(X_666  0.1558823585510254)
(X_667  0.08324970304965973)
(X_668  0.04019607976078987)
(X_669  0.04803921654820442)
(X_670  0.14803922176361084)
(X_671  0.04803921654820442)
(X_672  0.12450980395078659)
(X_673  0.028431374579668045)
(X_674  0.028431374579668045)
(X_675  0.03235294297337532)
(X_676  0.03235294297337532)
(X_677  0.028431374579668045)
(X_678  0.12843137979507446)
(X_679  0.02450980618596077)
(X_680  0.036274511367082596)
(X_681  0.136274516582489)
(X_682  0.03235294297337532)
(X_683  0.03235294297337532)
(X_684  0.036274511367082596)
(X_685  0.036274511367082596)
(X_686  0.04019607976078987)
(X_687  0.04411764815449715)
(X_688  0.14411765336990356)
(X_689  0.04019607976078987)
(X_690  0.04019607976078987)
(X_691  0.036274511367082596)
(X_692  0.036274511367082596)
(X_693  0.03235294297337532)
(X_694  0.03235294297337532)
(X_695  0.13235294818878174)
(X_696  0.15196079015731812)
(X_697  0.15196079015731812)
(X_698  0.14803922176361084)
(X_699  0.14803922176361084)
(X_700  0.12450980395078659)
(X_701  0.06369958817958832)
(X_702  0.12843137979507446)
(X_703  0.13235294818878174)
(X_704  0.051877155900001526)
(X_705  0.028431374579668045)
(X_706  0.028431374579668045)
(X_707  0.02450980618596077)
(X_708  0.04795558750629425)
(X_709  0.12450980395078659)
(X_710  0.12450980395078659)
(X_711  0.02450980618596077)
(X_712  0.028431374579668045)
(X_713  0.028431374579668045)
(X_714  0.03235294297337532)
(X_715  0.036274511367082596)
(X_716  0.1401960849761963)
(X_717  0.136274516582489)
(X_718  0.036274511367082596)
(X_719  0.036274511367082596)
(X_720  0.09708473086357117)
(X_721  0.13235294818878174)
(X_722  0.12843137979507446)
(X_723  0.12843137979507446)
(X_724  0.13235294818878174)
(X_725  0.13235294818878174)
(X_726  0.13235294818878174)
(X_727  0.12843137979507446)
(X_728  0.12450980395078659)
(X_729  0.02450980618596077)
(X_730  0.12843137979507446)
(X_731  0.12843137979507446)
(X_732  0.12843137979507446)
(X_733  0.12843137979507446)
(X_734  0.12450980395078659)
(X_735  0.12450980395078659)
(X_736  0.11666666716337204)
(X_737  0.01666666939854622)
(X_738  0.01666666939854622)
(X_739  0.020588237792253494)
(X_740  0.020588237792253494)
(X_741  0.020588237792253494)
(X_742  0.02450980618596077)
(X_743  0.02450980618596077)
(X_744  0.03235294297337532)
(X_745  0.03235294297337532)
(X_746  0.03235294297337532)
(X_747  0.028431374579668045)
(X_748  0.028431374579668045)
(X_749  0.028431374579668045)
(X_750  0.02450980618596077)
(X_751  0.02450980618596077)
(X_752  0.12450980395078659)
(X_753  0.12058823555707932)
(X_754  0.12058823555707932)
(X_755  0.12058823555707932)
(X_756  0.12058823555707932)
(X_757  0.04403401166200638)
(X_758  0.04795558750629425)
(X_759  0.028431374579668045)
(X_760  0.028431374579668045)
(X_761  0.028431374579668045)
(X_762  0.12450980395078659)
(X_763  0.12058823555707932)
(X_764  0.11274509876966476)
(X_765  0.11274509876966476)
(X_766  0.05193488672375679)
(X_767  0.020588237792253494)
(X_768  0.020588237792253494)
(X_769  0.020588237792253494)
(X_770  0.020588237792253494)
(X_771  0.020588237792253494)
(X_772  0.02450980618596077)
(X_773  0.02450980618596077)
(X_774  0.02450980618596077)
(X_775  0.08924158662557602)
(X_776  0.12450980395078659)
(X_777  0.12450980395078659)
(X_778  0.12450980395078659)
(X_779  0.12450980395078659)
(X_780  0.028431374579668045)
(X_781  0.028431374579668045)
(X_782  0.028431374579668045)
(X_783  0.04795558750629425)
(Y_0 -18.175586700439453)
(Y_1 13.36470890045166)
(Y_2 -15.239150047302246)
(Y_3 21.102006912231445))