((X_0  1.0460784435272217)
(X_1  0.949999988079071)
(X_2  0.949999988079071)
(X_3  0.949999988079071)
(X_4  0.949999988079071)
(X_5  0.949999988079071)
(X_6  0.949999988079071)
(X_7  0.949999988079071)
(X_8  1.0499999523162842)
(X_9  1.0499999523162842)
(X_10  1.0499999523162842)
(X_11  0.9460784196853638)
(X_12  1.0421568155288696)
(X_13  1.0382353067398071)
(X_14  1.0382353067398071)
(X_15  0.9382352828979492)
(X_16  0.9460784196853638)
(X_17  0.949999988079071)
(X_18  0.949999988079071)
(X_19  0.949999988079071)
(X_20  1.0499999523162842)
(X_21  1.0460784435272217)
(X_22  1.0499999523162842)
(X_23  1.0499999523162842)
(X_24  1.0499999523162842)
(X_25  0.949999988079071)
(X_26  0.949999988079071)
(X_27  0.9421568512916565)
(X_28  0.7990196347236633)
(X_29  0.7147058844566345)
(X_30  0.7382352948188782)
(X_31  0.7578431367874146)
(X_32  0.7735294103622437)
(X_33  0.79313725233078)
(X_34  0.8127450942993164)
(X_35  0.9245098233222961)
(X_36  0.9323529601097107)
(X_37  0.8401960730552673)
(X_38  0.8598039150238037)
(X_39  0.8872548937797546)
(X_40  0.9186274409294128)
(X_41  1.0460784435272217)
(X_42  1.0499999523162842)
(X_43  1.0499999523162842)
(X_44  1.0460784435272217)
(X_45  1.0499999523162842)
(X_46  1.0499999523162842)
(X_47  0.949999988079071)
(X_48  0.9460784196853638)
(X_49  0.9421568512916565)
(X_50  0.9460784196853638)
(X_51  0.949999988079071)
(X_52  1.0460784435272217)
(X_53  0.949999988079071)
(X_54  0.949999988079071)
(X_55  1.0499999523162842)
(X_56  0.20686274766921997)
(X_57  0.11862745881080627)
(X_58  0.1303921639919281)
(X_59  0.14215686917304993)
(X_60  0.15000000596046448)
(X_61  0.1617647111415863)
(X_62  0.17352941632270813)
(X_63  0.18529412150382996)
(X_64  0.21666668355464935)
(X_65  0.2245098203420639)
(X_66  0.240196093916893)
(X_67  0.3637255132198334)
(X_68  0.387254923582077)
(X_69  0.31470587849617004)
(X_70  0.3382352888584137)
(X_71  0.3499999940395355)
(X_72  0.4323529303073883)
(X_73  0.4598039388656616)
(X_74  0.5068627595901489)
(X_75  0.5617647171020508)
(X_76  0.7127451300621033)
(X_77  0.7676470875740051)
(X_78  0.8107843399047852)
(X_79  0.8421568870544434)
(X_80  0.9009804129600525)
(X_81  0.9245098233222961)
(X_82  0.9519608020782471)
(X_83  0.9754902124404907)
(X_84  0.20686274766921997)
(X_85  0.11078432202339172)
(X_86  0.20686274766921997)
(X_87  0.19901961088180542)
(X_88  0.0833333432674408)
(X_89  0.07549020648002625)
(X_90  0.07549020648002625)
(X_91  0.07941177487373352)
(X_92  0.0833333432674408)
(X_93  0.0833333432674408)
(X_94  0.07941177487373352)
(X_95  0.07549020648002625)
(X_96  0.17549020051956177)
(X_97  0.07549020648002625)
(X_98  0.07549020648002625)
(X_99  0.17941176891326904)
(X_100  0.19901961088180542)
(X_101  0.2029411792755127)
(X_102  0.2029411792755127)
(X_103  0.19509804248809814)
(X_104  0.18333333730697632)
(X_105  0.07549020648002625)
(X_106  0.07549020648002625)
(X_107  0.07941177487373352)
(X_108  0.14215686917304993)
(X_109  0.1617647111415863)
(X_110  0.1931372582912445)
(X_111  0.31666669249534607)
(X_112  0.07941177487373352)
(X_113  0.0833333432674408)
(X_114  0.17941176891326904)
(X_115  0.1715686321258545)
(X_116  0.16372549533843994)
(X_117  0.16372549533843994)
(X_118  0.0676470622420311)
(X_119  0.07549020648002625)
(X_120  0.09117648005485535)
(X_121  0.08725491166114807)
(X_122  0.0833333432674408)
(X_123  0.07941177487373352)
(X_124  0.07941177487373352)
(X_125  0.07941177487373352)
(X_126  0.07941177487373352)
(X_127  0.0833333432674408)
(X_128  0.15196079015731812)
(X_129  0.15980392694473267)
(X_130  0.1715686321258545)
(X_131  0.17941176891326904)
(X_132  0.18333333730697632)
(X_133  0.19117647409439087)
(X_134  0.2029411792755127)
(X_135  0.21470588445663452)
(X_136  0.1715686321258545)
(X_137  0.07941177487373352)
(X_138  0.08725491166114807)
(X_139  0.1872549057006836)
(X_140  0.20686274766921997)
(X_141  0.20686274766921997)
(X_142  0.20686274766921997)
(X_143  0.2029411792755127)
(X_144  0.0990196168422699)
(X_145  0.10294118523597717)
(X_146  0.114705890417099)
(X_147  0.22647058963775635)
(X_148  0.16764706373214722)
(X_149  0.16764706373214722)
(X_150  0.16764706373214722)
(X_151  0.16764706373214722)
(X_152  0.1715686321258545)
(X_153  0.17549020051956177)
(X_154  0.18333333730697632)
(X_155  0.18333333730697632)
(X_156  0.1872549057006836)
(X_157  0.19117647409439087)
(X_158  0.19509804248809814)
(X_159  0.1872549057006836)
(X_160  0.17549020051956177)
(X_161  0.07156863063573837)
(X_162  0.07156863063573837)
(X_163  0.17549020051956177)
(X_164  0.1872549057006836)
(X_165  0.08725491166114807)
(X_166  0.09117648005485535)
(X_167  0.18333333730697632)
(X_168  0.08725491166114807)
(X_169  0.08725491166114807)
(X_170  0.0833333432674408)
(X_171  0.17549020051956177)
(X_172  0.16372549533843994)
(X_173  0.06372549384832382)
(X_174  0.07549020648002625)
(X_175  0.0833333432674408)
(X_176  0.2186274528503418)
(X_177  0.21470588445663452)
(X_178  0.21078431606292725)
(X_179  0.2029411792755127)
(X_180  0.19901961088180542)
(X_181  0.19509804248809814)
(X_182  0.09509804844856262)
(X_183  0.09509804844856262)
(X_184  0.16764706373214722)
(X_185  0.1715686321258545)
(X_186  0.17941176891326904)
(X_187  0.17941176891326904)
(X_188  0.07549020648002625)
(X_189  0.07549020648002625)
(X_190  0.07941177487373352)
(X_191  0.1872549057006836)
(X_192  0.1558823585510254)
(X_193  0.16764706373214722)
(X_194  0.07549020648002625)
(X_195  0.07941177487373352)
(X_196  0.08725491166114807)
(X_197  0.1872549057006836)
(X_198  0.18333333730697632)
(X_199  0.07549020648002625)
(X_200  0.07156863063573837)
(X_201  0.1715686321258545)
(X_202  0.08725491166114807)
(X_203  0.09509804844856262)
(X_204  0.10294118523597717)
(X_205  0.19509804248809814)
(X_206  0.1872549057006836)
(X_207  0.17941176891326904)
(X_208  0.07156863063573837)
(X_209  0.06372549384832382)
(X_210  0.05980392172932625)
(X_211  0.15980392694473267)
(X_212  0.16764706373214722)
(X_213  0.1715686321258545)
(X_214  0.17941176891326904)
(X_215  0.17941176891326904)
(X_216  0.07549020648002625)
(X_217  0.17549020051956177)
(X_218  0.18333333730697632)
(X_219  0.19117647409439087)
(X_220  0.19509804248809814)
(X_221  0.10294118523597717)
(X_222  0.114705890417099)
(X_223  0.2186274528503418)
(X_224  0.0833333432674408)
(X_225  0.07156863063573837)
(X_226  0.16372549533843994)
(X_227  0.07549020648002625)
(X_228  0.08725491166114807)
(X_229  0.09117648005485535)
(X_230  0.09117648005485535)
(X_231  0.09509804844856262)
(X_232  0.19117647409439087)
(X_233  0.09117648005485535)
(X_234  0.1872549057006836)
(X_235  0.17549020051956177)
(X_236  0.17941176891326904)
(X_237  0.08725491166114807)
(X_238  0.09509804844856262)
(X_239  0.09509804844856262)
(X_240  0.07156863063573837)
(X_241  0.19509804248809814)
(X_242  0.19117647409439087)
(X_243  0.1715686321258545)
(X_244  0.19901961088180542)
(X_245  0.2696078419685364)
(X_246  0.3245098292827606)
(X_247  0.3401961028575897)
(X_248  0.3068627417087555)
(X_249  0.32647058367729187)
(X_250  0.3343137204647064)
(X_251  0.41862747073173523)
(X_252  0.09117648005485535)
(X_253  0.1872549057006836)
(X_254  0.1872549057006836)
(X_255  0.1872549057006836)
(X_256  0.19117647409439087)
(X_257  0.1872549057006836)
(X_258  0.18333333730697632)
(X_259  0.1872549057006836)
(X_260  0.10686275362968445)
(X_261  0.10686275362968445)
(X_262  0.10686275362968445)
(X_263  0.0990196168422699)
(X_264  0.19901961088180542)
(X_265  0.2029411792755127)
(X_266  0.20686274766921997)
(X_267  0.2029411792755127)
(X_268  0.22254902124404907)
(X_269  0.25)
(X_270  0.30490198731422424)
(X_271  0.36764708161354065)
(X_272  0.4068627655506134)
(X_273  0.43431374430656433)
(X_274  0.46568629145622253)
(X_275  0.49705883860588074)
(X_276  0.34607842564582825)
(X_277  0.34607842564582825)
(X_278  0.3343137204647064)
(X_279  0.31078431010246277)
(X_280  0.3696078360080719)
(X_281  0.3696078360080719)
(X_282  0.3578431308269501)
(X_283  0.3382352888584137)
(X_284  0.31470587849617004)
(X_285  0.3950980603694916)
(X_286  0.387254923582077)
(X_287  0.3794117867946625)
(X_288  0.3225490152835846)
(X_289  0.3225490152835846)
(X_290  0.3225490152835846)
(X_291  0.32647058367729187)
(X_292  0.32647058367729187)
(X_293  0.3225490152835846)
(X_294  0.3186274468898773)
(X_295  0.41862747073173523)
(X_296  0.4696078598499298)
(X_297  0.36176469922065735)
(X_298  0.39313724637031555)
(X_299  0.5441176295280457)
(X_300  0.5323529243469238)
(X_301  0.4696078598499298)
(X_302  0.4382353127002716)
(X_303  0.3539215624332428)
(X_304  0.3578431308269501)
(X_305  0.34215685725212097)
(X_306  0.31470587849617004)
(X_307  0.2911764681339264)
(X_308  0.44607844948768616)
(X_309  0.4539215862751007)
(X_310  0.34215685725212097)
(X_311  0.3186274468898773)
(X_312  0.29901960492134094)
(X_313  0.3029411733150482)
(X_314  0.3068627417087555)
(X_315  0.4107843339443207)
(X_316  0.31470587849617004)
(X_317  0.31078431010246277)
(X_318  0.31470587849617004)
(X_319  0.4264706075191498)
(X_320  0.4264706075191498)
(X_321  0.41470590233802795)
(X_322  0.31078431010246277)
(X_323  0.31470587849617004)
(X_324  0.3696078360080719)
(X_325  0.34607842564582825)
(X_326  0.3343137204647064)
(X_327  0.3382352888584137)
(X_328  0.33039215207099915)
(X_329  0.3029411733150482)
(X_330  0.27156862616539)
(X_331  0.2598039209842682)
(X_332  0.3754902184009552)
(X_333  0.3754902184009552)
(X_334  0.2598039209842682)
(X_335  0.240196093916893)
(X_336  0.4068627655506134)
(X_337  0.4107843339443207)
(X_338  0.39901962876319885)
(X_339  0.36764708161354065)
(X_340  0.36764708161354065)
(X_341  0.3950980603694916)
(X_342  0.3186274468898773)
(X_343  0.3225490152835846)
(X_344  0.4421568810939789)
(X_345  0.43039217591285706)
(X_346  0.43431374430656433)
(X_347  0.4539215862751007)
(X_348  0.3499999940395355)
(X_349  0.33039215207099915)
(X_350  0.3225490152835846)
(X_351  0.43431374430656433)
(X_352  0.36764708161354065)
(X_353  0.2754901945590973)
(X_354  0.25196078419685364)
(X_355  0.2245098203420639)
(X_356  0.25196078419685364)
(X_357  0.3068627417087555)
(X_358  0.39901962876319885)
(X_359  0.3480392396450043)
(X_360  0.3480392396450043)
(X_361  0.29509803652763367)
(X_362  0.33039215207099915)
(X_363  0.3343137204647064)
(X_364  0.4637255072593689)
(X_365  0.551960825920105)
(X_366  0.5009803771972656)
(X_367  0.4382353127002716)
(X_368  0.31078431010246277)
(X_369  0.3186274468898773)
(X_370  0.31078431010246277)
(X_371  0.28333333134651184)
(X_372  0.28333333134651184)
(X_373  0.2598039209842682)
(X_374  0.3558823764324188)
(X_375  0.3715686500072479)
(X_376  0.3598039448261261)
(X_377  0.22843138873577118)
(X_378  0.22058825194835663)
(X_379  0.23627452552318573)
(X_380  0.22058825194835663)
(X_381  0.27156862616539)
(X_382  0.3754902184009552)
(X_383  0.33627453446388245)
(X_384  0.26372548937797546)
(X_385  0.33039215207099915)
(X_386  0.32647058367729187)
(X_387  0.2558823525905609)
(X_388  0.3480392396450043)
(X_389  0.43039217591285706)
(X_390  0.4166666567325592)
(X_391  0.551960825920105)
(X_392  0.5852941274642944)
(X_393  0.5735294222831726)
(X_394  0.6264706254005432)
(X_395  0.5676470994949341)
(X_396  0.5558823943138123)
(X_397  0.5715686678886414)
(X_398  0.44411763548851013)
(X_399  0.3970588147640228)
(X_400  0.32647058367729187)
(X_401  0.2872548997402191)
(X_402  0.27156862616539)
(X_403  0.3754902184009552)
(X_404  0.35196080803871155)
(X_405  0.3088235557079315)
(X_406  0.29313725233078003)
(X_407  0.3127451241016388)
(X_408  0.19705882668495178)
(X_409  0.27156862616539)
(X_410  0.41862747073173523)
(X_411  0.4068627655506134)
(X_412  0.4107843339443207)
(X_413  0.34607842564582825)
(X_414  0.46568629145622253)
(X_415  0.45000001788139343)
(X_416  0.29509803652763367)
(X_417  0.34215685725212097)
(X_418  0.3813725411891937)
(X_419  0.3892156779766083)
(X_420  0.3696078360080719)
(X_421  0.4892157018184662)
(X_422  0.49313727021217346)
(X_423  0.5088235139846802)
(X_424  0.4754902124404907)
(X_425  0.550000011920929)
(X_426  0.5539215803146362)
(X_427  0.6147059202194214)
(X_428  0.5068627595901489)
(X_429  0.4598039388656616)
(X_430  0.4323529303073883)
(X_431  0.42843136191368103)
(X_432  0.49705883860588074)
(X_433  0.4421568810939789)
(X_434  0.3225490152835846)
(X_435  0.34607842564582825)
(X_436  0.5088235139846802)
(X_437  0.5598039627075195)
(X_438  0.5029411911964417)
(X_439  0.4833333492279053)
(X_440  0.42450979351997375)
(X_441  0.3892156779766083)
(X_442  0.4166666567325592)
(X_443  0.4598039388656616)
(X_444  0.48725491762161255)
(X_445  0.4637255072593689)
(X_446  0.40882351994514465)
(X_447  0.4382353127002716)
(X_448  0.38333335518836975)
(X_449  0.39901962876319885)
(X_450  0.3715686500072479)
(X_451  0.3245098292827606)
(X_452  0.25196078419685364)
(X_453  0.34215685725212097)
(X_454  0.49313727021217346)
(X_455  0.47745099663734436)
(X_456  0.49313727021217346)
(X_457  0.5127450823783875)
(X_458  0.5245097875595093)
(X_459  0.5245097875595093)
(X_460  0.5323529243469238)
(X_461  0.5598039627075195)
(X_462  0.5715686678886414)
(X_463  0.47156864404678345)
(X_464  0.4637255072593689)
(X_465  0.4166666567325592)
(X_466  0.3892156779766083)
(X_467  0.45000001788139343)
(X_468  0.40294119715690613)
(X_469  0.43431374430656433)
(X_470  0.49705883860588074)
(X_471  0.520588219165802)
(X_472  0.49313727021217346)
(X_473  0.4735294282436371)
(X_474  0.41862747073173523)
(X_475  0.3598039448261261)
(X_476  0.18529412150382996)
(X_477  0.2088235467672348)
(X_478  0.3127451241016388)
(X_479  0.30098041892051697)
(X_480  0.2245098203420639)
(X_481  0.27156862616539)
(X_482  0.28333333134651184)
(X_483  0.26372548937797546)
(X_484  0.3539215624332428)
(X_485  0.3578431308269501)
(X_486  0.44607844948768616)
(X_487  0.43431374430656433)
(X_488  0.43431374430656433)
(X_489  0.4382353127002716)
(X_490  0.41470590233802795)
(X_491  0.38333335518836975)
(X_492  0.3186274468898773)
(X_493  0.27941176295280457)
(X_494  0.3637255132198334)
(X_495  0.33627453446388245)
(X_496  0.2970588207244873)
(X_497  0.3245098292827606)
(X_498  0.387254923582077)
(X_499  0.29901960492134094)
(X_500  0.4264706075191498)
(X_501  0.3068627417087555)
(X_502  0.2558823525905609)
(X_503  0.29313725233078003)
(X_504  0.23039215803146362)
(X_505  0.2343137264251709)
(X_506  0.24607843160629272)
(X_507  0.2696078419685364)
(X_508  0.28921568393707275)
(X_509  0.19705882668495178)
(X_510  0.19705882668495178)
(X_511  0.1931372582912445)
(X_512  0.3068627417087555)
(X_513  0.3029411733150482)
(X_514  0.2911764681339264)
(X_515  0.2872548997402191)
(X_516  0.29901960492134094)
(X_517  0.3029411733150482)
(X_518  0.27156862616539)
(X_519  0.22843138873577118)
(X_520  0.240196093916893)
(X_521  0.21274511516094208)
(X_522  0.21666668355464935)
(X_523  0.20490197837352753)
(X_524  0.17352941632270813)
(X_525  0.1931372582912445)
(X_526  0.344117671251297)
(X_527  0.35196080803871155)
(X_528  0.24803923070430756)
(X_529  0.23235295712947845)
(X_530  0.1931372582912445)
(X_531  0.24215686321258545)
(X_532  0.22254902124404907)
(X_533  0.19117647409439087)
(X_534  0.18333333730697632)
(X_535  0.21470588445663452)
(X_536  0.2343137264251709)
(X_537  0.13431373238563538)
(X_538  0.15000000596046448)
(X_539  0.18137255311012268)
(X_540  0.18137255311012268)
(X_541  0.18529412150382996)
(X_542  0.2852941155433655)
(X_543  0.2852941155433655)
(X_544  0.30098041892051697)
(X_545  0.31666669249534607)
(X_546  0.30490198731422424)
(X_547  0.18137255311012268)
(X_548  0.2539215683937073)
(X_549  0.13823530077934265)
(X_550  0.15784314274787903)
(X_551  0.15784314274787903)
(X_552  0.22647058963775635)
(X_553  0.24215686321258545)
(X_554  0.2774509787559509)
(X_555  0.17352941632270813)
(X_556  0.28921568393707275)
(X_557  0.18921568989753723)
(X_558  0.16960784792900085)
(X_559  0.13823530077934265)
(X_560  0.1872549057006836)
(X_561  0.04411764815449715)
(X_562  0.03235294297337532)
(X_563  0.06372549384832382)
(X_564  0.0833333432674408)
(X_565  0.0833333432674408)
(X_566  0.10686275362968445)
(X_567  0.1460784375667572)
(X_568  0.10686275362968445)
(X_569  0.12647059559822083)
(X_570  0.1303921639919281)
(X_571  0.11078432202339172)
(X_572  0.0990196168422699)
(X_573  0.11078432202339172)
(X_574  0.22647058963775635)
(X_575  0.12647059559822083)
(X_576  0.20686274766921997)
(X_577  0.09509804844856262)
(X_578  0.12254902720451355)
(X_579  0.22647058963775635)
(X_580  0.19117647409439087)
(X_581  0.19901961088180542)
(X_582  0.22647058963775635)
(X_583  0.114705890417099)
(X_584  0.14215686917304993)
(X_585  0.1460784375667572)
(X_586  0.14215686917304993)
(X_587  0.12254902720451355)
(X_588  0.14803922176361084)
(X_589  0.02450980618596077)
(X_590  0.12450980395078659)
(X_591  0.1558823585510254)
(X_592  0.1715686321258545)
(X_593  0.06372549384832382)
(X_594  0.07156863063573837)
(X_595  0.19117647409439087)
(X_596  0.17549020051956177)
(X_597  0.19901961088180542)
(X_598  0.10686275362968445)
(X_599  0.0833333432674408)
(X_600  0.06372549384832382)
(X_601  0.07941177487373352)
(X_602  0.11078432202339172)
(X_603  0.1303921639919281)
(X_604  0.19509804248809814)
(X_605  0.1872549057006836)
(X_606  0.114705890417099)
(X_607  0.2186274528503418)
(X_608  0.18333333730697632)
(X_609  0.1872549057006836)
(X_610  0.11078432202339172)
(X_611  0.0990196168422699)
(X_612  0.09117648005485535)
(X_613  0.0990196168422699)
(X_614  0.19509804248809814)
(X_615  0.17941176891326904)
(X_616  0.14411765336990356)
(X_617  0.136274516582489)
(X_618  0.13235294818878174)
(X_619  0.14411765336990356)
(X_620  0.0519607849419117)
(X_621  0.1558823585510254)
(X_622  0.0519607849419117)
(X_623  0.15196079015731812)
(X_624  0.008823529817163944)
(X_625  0.13235294818878174)
(X_626  0.1401960849761963)
(X_627  0.12843137979507446)
(X_628  0.12843137979507446)
(X_629  0.14803922176361084)
(X_630  0.16764706373214722)
(X_631  0.17549020051956177)
(X_632  0.04411764815449715)
(X_633  0.03235294297337532)
(X_634  0.05588235333561897)
(X_635  0.15980392694473267)
(X_636  0.12843137979507446)
(X_637  0.136274516582489)
(X_638  0.16372549533843994)
(X_639  0.15980392694473267)
(X_640  0.15196079015731812)
(X_641  0.16372549533843994)
(X_642  0.15980392694473267)
(X_643  0.1401960849761963)
(X_644  0.15196079015731812)
(X_645  0.04411764815449715)
(X_646  0.12450980395078659)
(X_647  0.004901961423456669)
(X_648  0.008823529817163944)
(X_649  0.02450980618596077)
(X_650  0.13235294818878174)
(X_651  0.12843137979507446)
(X_652  0.1401960849761963)
(X_653  0.04803921654820442)
(X_654  0.04803921654820442)
(X_655  0.04019607976078987)
(X_656  0.1401960849761963)
(X_657  0.15196079015731812)
(X_658  0.04803921654820442)
(X_659  0.03235294297337532)
(X_660  0.14411765336990356)
(X_661  0.13235294818878174)
(X_662  0.0519607849419117)
(X_663  0.05588235333561897)
(X_664  0.02450980618596077)
(X_665  0.04019607976078987)
(X_666  0.17549020051956177)
(X_667  0.07156863063573837)
(X_668  0.04019607976078987)
(X_669  0.04803921654820442)
(X_670  0.04803921654820442)
(X_671  0.03235294297337532)
(X_672  0.12450980395078659)
(X_673  0.028431374579668045)
(X_674  0.028431374579668045)
(X_675  0.02450980618596077)
(X_676  0.020588237792253494)
(X_677  0.11666666716337204)
(X_678  0.12450980395078659)
(X_679  0.13235294818878174)
(X_680  0.02450980618596077)
(X_681  0.12058823555707932)
(X_682  0.11666666716337204)
(X_683  0.12058823555707932)
(X_684  0.028431374579668045)
(X_685  0.13235294818878174)
(X_686  0.028431374579668045)
(X_687  0.12450980395078659)
(X_688  0.12058823555707932)
(X_689  0.12058823555707932)
(X_690  0.020588237792253494)
(X_691  0.02450980618596077)
(X_692  0.12843137979507446)
(X_693  0.12843137979507446)
(X_694  0.028431374579668045)
(X_695  0.03235294297337532)
(X_696  0.12058823555707932)
(X_697  0.12058823555707932)
(X_698  0.12058823555707932)
(X_699  0.12058823555707932)
(X_700  0.11666666716337204)
(X_701  0.12058823555707932)
(X_702  0.12058823555707932)
(X_703  0.11666666716337204)
(X_704  0.012745101936161518)
(X_705  0.008823529817163944)
(X_706  0.01666666939854622)
(X_707  0.02450980618596077)
(X_708  0.020588237792253494)
(X_709  0.01666666939854622)
(X_710  0.11274509876966476)
(X_711  0.11666666716337204)
(X_712  0.12450980395078659)
(X_713  0.028431374579668045)
(X_714  0.02450980618596077)
(X_715  0.020588237792253494)
(X_716  0.11666666716337204)
(X_717  0.11666666716337204)
(X_718  0.020588237792253494)
(X_719  0.020588237792253494)
(X_720  0.12058823555707932)
(X_721  0.12450980395078659)
(X_722  0.12450980395078659)
(X_723  0.12450980395078659)
(X_724  0.02450980618596077)
(X_725  0.02450980618596077)
(X_726  0.02450980618596077)
(X_727  0.12450980395078659)
(X_728  0.10882353037595749)
(X_729  0.012745101936161518)
(X_730  0.11274509876966476)
(X_731  0.10882353037595749)
(X_732  0.10098039358854294)
(X_733  0.10098039358854294)
(X_734  0.10882353037595749)
(X_735  0.11666666716337204)
(X_736  0.11666666716337204)
(X_737  0.11274509876966476)
(X_738  0.008823529817163944)
(X_739  0.012745101936161518)
(X_740  0.12058823555707932)
(X_741  0.12450980395078659)
(X_742  0.12058823555707932)
(X_743  0.11666666716337204)
(X_744  0.11274509876966476)
(X_745  0.11274509876966476)
(X_746  0.11274509876966476)
(X_747  0.01666666939854622)
(X_748  0.01666666939854622)
(X_749  0.01666666939854622)
(X_750  0.01666666939854622)
(X_751  0.020588237792253494)
(X_752  0.12058823555707932)
(X_753  0.12058823555707932)
(X_754  0.12058823555707932)
(X_755  0.12058823555707932)
(X_756  0.10490196198225021)
(X_757  0.008823529817163944)
(X_758  0.10882353037595749)
(X_759  0.004901961423456669)
(X_760  0.0009803927969187498)
(X_761  0.0009803927969187498)
(X_762  0.10490196198225021)
(X_763  0.11274509876966476)
(X_764  0.10882353037595749)
(X_765  0.10490196198225021)
(X_766  0.10098039358854294)
(X_767  0.004901961423456669)
(X_768  0.012745101936161518)
(X_769  0.01666666939854622)
(X_770  0.012745101936161518)
(X_771  0.008823529817163944)
(X_772  0.008823529817163944)
(X_773  0.008823529817163944)
(X_774  0.008823529817163944)
(X_775  0.008823529817163944)
(X_776  0.10882353037595749)
(X_777  0.10882353037595749)
(X_778  0.11274509876966476)
(X_779  0.11274509876966476)
(X_780  0.008823529817163944)
(X_781  0.008823529817163944)
(X_782  0.008823529817163944)
(X_783  0.004901961423456669)
(Y_0 -19.85287857055664)
(Y_1 25.069183349609375)
(Y_2 -11.453076362609863)
(Y_3 5.987727165222168))