((X_0  0.02450980618596077)
(X_1  0.03235294297337532)
(X_2  0.036274511367082596)
(X_3  0.03235294297337532)
(X_4  0.02450980618596077)
(X_5  0.028431374579668045)
(X_6  0.14411765336990356)
(X_7  0.15980392694473267)
(X_8  0.1558823585510254)
(X_9  0.1558823585510254)
(X_10  0.1558823585510254)
(X_11  0.15980392694473267)
(X_12  0.16764706373214722)
(X_13  0.17941176891326904)
(X_14  0.09117648005485535)
(X_15  0.0990196168422699)
(X_16  0.10294118523597717)
(X_17  0.114705890417099)
(X_18  0.12254902720451355)
(X_19  0.22647058963775635)
(X_20  0.22254902124404907)
(X_21  0.23039215803146362)
(X_22  0.24607843160629272)
(X_23  0.2617647051811218)
(X_24  0.16960784792900085)
(X_25  0.16960784792900085)
(X_26  0.17352941632270813)
(X_27  0.1774509847164154)
(X_28  0.10882353037595749)
(X_29  0.11274509876966476)
(X_30  0.11666666716337204)
(X_31  0.11666666716337204)
(X_32  0.008823529817163944)
(X_33  0.012745101936161518)
(X_34  0.028431374579668045)
(X_35  0.04019607976078987)
(X_36  0.13235294818878174)
(X_37  0.12843137979507446)
(X_38  0.02450980618596077)
(X_39  0.12450980395078659)
(X_40  0.12058823555707932)
(X_41  0.12058823555707932)
(X_42  0.12058823555707932)
(X_43  0.12450980395078659)
(X_44  0.10882353037595749)
(X_45  0.01666666939854622)
(X_46  0.020588237792253494)
(X_47  0.01666666939854622)
(X_48  0.008823529817163944)
(X_49  0.008823529817163944)
(X_50  0.12058823555707932)
(X_51  0.12843137979507446)
(X_52  0.12843137979507446)
(X_53  0.12843137979507446)
(X_54  0.12843137979507446)
(X_55  0.028431374579668045)
(X_56  0.03235294297337532)
(X_57  0.036274511367082596)
(X_58  0.036274511367082596)
(X_59  0.13235294818878174)
(X_60  0.12843137979507446)
(X_61  0.12843137979507446)
(X_62  0.03235294297337532)
(X_63  0.04019607976078987)
(X_64  0.01666666939854622)
(X_65  0.01666666939854622)
(X_66  0.11666666716337204)
(X_67  0.11274509876966476)
(X_68  0.10882353037595749)
(X_69  0.10098039358854294)
(X_70  0.09705882519483566)
(X_71  0.09313725680112839)
(X_72  0.12843137979507446)
(X_73  0.028431374579668045)
(X_74  0.03235294297337532)
(X_75  0.02450980618596077)
(X_76  0.020588237792253494)
(X_77  0.11666666716337204)
(X_78  0.12450980395078659)
(X_79  0.13235294818878174)
(X_80  0.12450980395078659)
(X_81  0.12450980395078659)
(X_82  0.12450980395078659)
(X_83  0.12450980395078659)
(X_84  0.01666666939854622)
(X_85  0.01666666939854622)
(X_86  0.01666666939854622)
(X_87  0.012745101936161518)
(X_88  0.10490196198225021)
(X_89  0.10098039358854294)
(X_90  0.10098039358854294)
(X_91  0.10490196198225021)
(X_92  0.10490196198225021)
(X_93  0.10882353037595749)
(X_94  0.11274509876966476)
(X_95  0.12058823555707932)
(X_96  0.12058823555707932)
(X_97  0.01666666939854622)
(X_98  0.012745101936161518)
(X_99  0.008823529817163944)
(X_100  0.01666666939854622)
(X_101  0.020588237792253494)
(X_102  0.020588237792253494)
(X_103  0.020588237792253494)
(X_104  0.02450980618596077)
(X_105  0.028431374579668045)
(X_106  0.03235294297337532)
(X_107  0.04019607976078987)
(X_108  0.036274511367082596)
(X_109  0.036274511367082596)
(X_110  0.036274511367082596)
(X_111  0.03235294297337532)
(X_112  0.11274509876966476)
(X_113  0.10882353037595749)
(X_114  0.10882353037595749)
(X_115  0.11274509876966476)
(X_116  0.01666666939854622)
(X_117  0.01666666939854622)
(X_118  0.11274509876966476)
(X_119  0.012745101936161518)
(X_120  -0.006862743757665157)
(X_121  -0.0029411755967885256)
(X_122  0.004901961423456669)
(X_123  0.012745101936161518)
(X_124  0.11666666716337204)
(X_125  0.01666666939854622)
(X_126  0.01666666939854622)
(X_127  0.012745101936161518)
(X_128  0.004901961423456669)
(X_129  0.0009803927969187498)
(X_130  0.10098039358854294)
(X_131  0.0009803927969187498)
(X_132  0.008823529817163944)
(X_133  0.012745101936161518)
(X_134  0.01666666939854622)
(X_135  0.020588237792253494)
(X_136  0.10490196198225021)
(X_137  0.10490196198225021)
(X_138  0.10882353037595749)
(X_139  0.11274509876966476)
(X_140  0.10098039358854294)
(X_141  0.10098039358854294)
(X_142  0.0009803927969187498)
(X_143  0.008823529817163944)
(X_144  0.01666666939854622)
(X_145  0.020588237792253494)
(X_146  0.01666666939854622)
(X_147  0.012745101936161518)
(X_148  0.11274509876966476)
(X_149  0.11666666716337204)
(X_150  0.11666666716337204)
(X_151  0.11666666716337204)
(X_152  0.11666666716337204)
(X_153  0.11274509876966476)
(X_154  0.11274509876966476)
(X_155  0.10882353037595749)
(X_156  0.136274516582489)
(X_157  0.12843137979507446)
(X_158  0.12058823555707932)
(X_159  0.020588237792253494)
(X_160  0.02450980618596077)
(X_161  0.12843137979507446)
(X_162  0.12450980395078659)
(X_163  0.12058823555707932)
(X_164  0.10098039358854294)
(X_165  0.10098039358854294)
(X_166  0.10490196198225021)
(X_167  0.10882353037595749)
(X_168  0.0519607849419117)
(X_169  0.14411765336990356)
(X_170  0.036274511367082596)
(X_171  0.03235294297337532)
(X_172  0.03235294297337532)
(X_173  0.02450980618596077)
(X_174  0.10882353037595749)
(X_175  0.09313725680112839)
(X_176  0.13235294818878174)
(X_177  0.12843137979507446)
(X_178  0.12450980395078659)
(X_179  0.11666666716337204)
(X_180  0.11274509876966476)
(X_181  0.11274509876966476)
(X_182  0.11274509876966476)
(X_183  0.11274509876966476)
(X_184  0.01666666939854622)
(X_185  0.004901961423456669)
(X_186  -0.0029411755967885256)
(X_187  0.0009803927969187498)
(X_188  0.008823529817163944)
(X_189  0.01666666939854622)
(X_190  0.11274509876966476)
(X_191  0.10882353037595749)
(X_192  0.10098039358854294)
(X_193  0.10098039358854294)
(X_194  0.10490196198225021)
(X_195  0.10490196198225021)
(X_196  0.3401961028575897)
(X_197  0.3245098292827606)
(X_198  0.30490198731422424)
(X_199  0.18921568989753723)
(X_200  0.17352941632270813)
(X_201  0.15000000596046448)
(X_202  0.11862745881080627)
(X_203  0.09509804844856262)
(X_204  0.01666666939854622)
(X_205  0.012745101936161518)
(X_206  0.004901961423456669)
(X_207  0.0009803927969187498)
(X_208  -0.0029411755967885256)
(X_209  0.0009803927969187498)
(X_210  0.004901961423456669)
(X_211  0.10490196198225021)
(X_212  0.10882353037595749)
(X_213  0.10098039358854294)
(X_214  0.09705882519483566)
(X_215  0.10882353037595749)
(X_216  0.12843137979507446)
(X_217  0.04019607976078987)
(X_218  0.04411764815449715)
(X_219  0.036274511367082596)
(X_220  0.15980392694473267)
(X_221  0.05980392172932625)
(X_222  0.05588235333561897)
(X_223  0.05588235333561897)
(X_224  0.240196093916893)
(X_225  0.22843138873577118)
(X_226  0.21666668355464935)
(X_227  0.2088235467672348)
(X_228  0.2088235467672348)
(X_229  0.21666668355464935)
(X_230  0.23235295712947845)
(X_231  0.3401961028575897)
(X_232  0.2970588207244873)
(X_233  0.25)
(X_234  0.17941176891326904)
(X_235  0.12450980395078659)
(X_236  0.09313725680112839)
(X_237  0.08921568840742111)
(X_238  0.10098039358854294)
(X_239  0.10882353037595749)
(X_240  -0.018627449870109558)
(X_241  0.12450980395078659)
(X_242  0.09117648005485535)
(X_243  0.15392157435417175)
(X_244  0.19705882668495178)
(X_245  0.22058825194835663)
(X_246  0.23235295712947845)
(X_247  0.240196093916893)
(X_248  0.3558823764324188)
(X_249  0.2558823525905609)
(X_250  0.2598039209842682)
(X_251  0.3598039448261261)
(X_252  0.2970588207244873)
(X_253  0.28921568393707275)
(X_254  0.18137255311012268)
(X_255  0.2774509787559509)
(X_256  0.2774509787559509)
(X_257  0.2852941155433655)
(X_258  0.2970588207244873)
(X_259  0.30490198731422424)
(X_260  0.3284313976764679)
(X_261  0.30098041892051697)
(X_262  0.2617647051811218)
(X_263  0.2186274528503418)
(X_264  0.1872549057006836)
(X_265  0.17549020051956177)
(X_266  0.17941176891326904)
(X_267  0.0833333432674408)
(X_268  0.15784314274787903)
(X_269  0.18137255311012268)
(X_270  0.21274511516094208)
(X_271  0.23627452552318573)
(X_272  0.240196093916893)
(X_273  0.23627452552318573)
(X_274  0.23235295712947845)
(X_275  0.22843138873577118)
(X_276  0.25196078419685364)
(X_277  0.25196078419685364)
(X_278  0.35196080803871155)
(X_279  0.35196080803871155)
(X_280  0.18529412150382996)
(X_281  0.18137255311012268)
(X_282  0.16960784792900085)
(X_283  0.15784314274787903)
(X_284  0.15000000596046448)
(X_285  0.24215686321258545)
(X_286  0.24215686321258545)
(X_287  0.13823530077934265)
(X_288  0.25)
(X_289  0.25784313678741455)
(X_290  0.2617647051811218)
(X_291  0.25)
(X_292  0.2343137264251709)
(X_293  0.22647058963775635)
(X_294  0.13431373238563538)
(X_295  0.14215686917304993)
(X_296  0.2186274528503418)
(X_297  0.2343137264251709)
(X_298  0.2539215683937073)
(X_299  0.16568627953529358)
(X_300  0.16960784792900085)
(X_301  0.17352941632270813)
(X_302  0.1774509847164154)
(X_303  0.2852941155433655)
(X_304  0.3127451241016388)
(X_305  0.21274511516094208)
(X_306  0.21274511516094208)
(X_307  0.21274511516094208)
(X_308  0.4166666567325592)
(X_309  0.4166666567325592)
(X_310  0.41274508833885193)
(X_311  0.40882351994514465)
(X_312  0.4009803831577301)
(X_313  0.39313724637031555)
(X_314  0.3892156779766083)
(X_315  0.385294109582901)
(X_316  0.3068627417087555)
(X_317  0.3225490152835846)
(X_318  0.32647058367729187)
(X_319  0.3068627417087555)
(X_320  0.26764705777168274)
(X_321  0.33627453446388245)
(X_322  0.3284313976764679)
(X_323  0.33235296607017517)
(X_324  0.22058825194835663)
(X_325  0.31666669249534607)
(X_326  0.20490197837352753)
(X_327  0.18921568989753723)
(X_328  0.16960784792900085)
(X_329  0.15392157435417175)
(X_330  0.15392157435417175)
(X_331  0.15392157435417175)
(X_332  0.25)
(X_333  0.25)
(X_334  0.2539215683937073)
(X_335  0.2539215683937073)
(X_336  0.2872548997402191)
(X_337  0.3911764919757843)
(X_338  0.40294119715690613)
(X_339  0.41470590233802795)
(X_340  0.4225490391254425)
(X_341  0.4264706075191498)
(X_342  0.33039215207099915)
(X_343  0.33039215207099915)
(X_344  0.5049019455909729)
(X_345  0.42450979351997375)
(X_346  0.44019606709480286)
(X_347  0.4362744987010956)
(X_348  0.5166666507720947)
(X_349  0.5049019455909729)
(X_350  0.5127450823783875)
(X_351  0.42450979351997375)
(X_352  0.42450979351997375)
(X_353  0.4205882251262665)
(X_354  0.41274508833885193)
(X_355  0.3970588147640228)
(X_356  0.3813725411891937)
(X_357  0.37745097279548645)
(X_358  0.385294109582901)
(X_359  0.49313727021217346)
(X_360  0.46568629145622253)
(X_361  0.4696078598499298)
(X_362  0.3735294044017792)
(X_363  0.48137256503105164)
(X_364  0.13431373238563538)
(X_365  0.13823530077934265)
(X_366  0.14215686917304993)
(X_367  0.24215686321258545)
(X_368  0.24215686321258545)
(X_369  0.24215686321258545)
(X_370  0.23823529481887817)
(X_371  0.23823529481887817)
(X_372  0.0990196168422699)
(X_373  0.114705890417099)
(X_374  0.13823530077934265)
(X_375  0.2539215683937073)
(X_376  0.2617647051811218)
(X_377  0.2774509787559509)
(X_378  0.30098041892051697)
(X_379  0.22058825194835663)
(X_380  0.29313725233078003)
(X_381  0.30098041892051697)
(X_382  0.3127451241016388)
(X_383  0.32058826088905334)
(X_384  0.3284313976764679)
(X_385  0.24411766231060028)
(X_386  0.26764705777168274)
(X_387  0.28333333134651184)
(X_388  0.3911764919757843)
(X_389  0.3911764919757843)
(X_390  0.3950980603694916)
(X_391  0.40294119715690613)
(X_392  0.10294118523597717)
(X_393  0.0990196168422699)
(X_394  0.19117647409439087)
(X_395  0.17941176891326904)
(X_396  0.16764706373214722)
(X_397  0.15980392694473267)
(X_398  0.15196079015731812)
(X_399  0.14803922176361084)
(X_400  0.19117647409439087)
(X_401  0.1872549057006836)
(X_402  0.18333333730697632)
(X_403  0.17941176891326904)
(X_404  0.0676470622420311)
(X_405  0.05980392172932625)
(X_406  0.15196079015731812)
(X_407  0.15196079015731812)
(X_408  0.09117648005485535)
(X_409  0.0990196168422699)
(X_410  0.0990196168422699)
(X_411  0.09117648005485535)
(X_412  0.07941177487373352)
(X_413  0.16764706373214722)
(X_414  0.16764706373214722)
(X_415  0.1715686321258545)
(X_416  0.07941177487373352)
(X_417  0.0833333432674408)
(X_418  0.18333333730697632)
(X_419  0.18333333730697632)
(X_420  0.04019607976078987)
(X_421  0.04019607976078987)
(X_422  0.1401960849761963)
(X_423  0.1401960849761963)
(X_424  0.1401960849761963)
(X_425  0.14411765336990356)
(X_426  0.15196079015731812)
(X_427  0.0519607849419117)
(X_428  0.0009803927969187498)
(X_429  0.10490196198225021)
(X_430  0.11274509876966476)
(X_431  0.13235294818878174)
(X_432  0.15196079015731812)
(X_433  0.15980392694473267)
(X_434  0.15980392694473267)
(X_435  0.05588235333561897)
(X_436  0.008823529817163944)
(X_437  0.02450980618596077)
(X_438  0.036274511367082596)
(X_439  0.04411764815449715)
(X_440  0.04411764815449715)
(X_441  0.04019607976078987)
(X_442  0.04411764815449715)
(X_443  0.04803921654820442)
(X_444  0.12450980395078659)
(X_445  0.12450980395078659)
(X_446  0.12058823555707932)
(X_447  0.12058823555707932)
(X_448  0.020588237792253494)
(X_449  0.12058823555707932)
(X_450  0.12058823555707932)
(X_451  0.12058823555707932)
(X_452  0.12058823555707932)
(X_453  0.12058823555707932)
(X_454  0.12058823555707932)
(X_455  0.020588237792253494)
(X_456  0.012745101936161518)
(X_457  0.012745101936161518)
(X_458  0.012745101936161518)
(X_459  0.11274509876966476)
(X_460  0.11274509876966476)
(X_461  0.11274509876966476)
(X_462  0.11274509876966476)
(X_463  0.11274509876966476)
(X_464  0.12450980395078659)
(X_465  0.12450980395078659)
(X_466  0.12450980395078659)
(X_467  0.02450980618596077)
(X_468  0.02450980618596077)
(X_469  0.02450980618596077)
(X_470  0.02450980618596077)
(X_471  0.02450980618596077)
(X_472  0.020588237792253494)
(X_473  0.020588237792253494)
(X_474  0.020588237792253494)
(X_475  0.12058823555707932)
(X_476  0.012745101936161518)
(X_477  0.012745101936161518)
(X_478  0.012745101936161518)
(X_479  0.012745101936161518)
(X_480  0.012745101936161518)
(X_481  0.012745101936161518)
(X_482  0.012745101936161518)
(X_483  0.012745101936161518)
(X_484  0.004901961423456669)
(X_485  0.004901961423456669)
(X_486  0.004901961423456669)
(X_487  0.10490196198225021)
(X_488  0.10490196198225021)
(X_489  0.10490196198225021)
(X_490  0.10490196198225021)
(X_491  0.10490196198225021)
(X_492  0.11666666716337204)
(X_493  0.11666666716337204)
(X_494  0.01666666939854622)
(X_495  0.01666666939854622)
(X_496  0.11666666716337204)
(X_497  0.11666666716337204)
(X_498  0.11666666716337204)
(X_499  0.01666666939854622)
(X_500  0.020588237792253494)
(X_501  0.020588237792253494)
(X_502  0.020588237792253494)
(X_503  0.12058823555707932)
(X_504  0.0009803927969187498)
(X_505  0.10098039358854294)
(X_506  0.10098039358854294)
(X_507  0.10098039358854294)
(X_508  0.10098039358854294)
(X_509  0.0009803927969187498)
(X_510  0.0009803927969187498)
(X_511  0.0009803927969187498)
(X_512  0.0009803927969187498)
(X_513  0.0009803927969187498)
(X_514  0.0009803927969187498)
(X_515  0.10098039358854294)
(X_516  0.10098039358854294)
(X_517  0.10098039358854294)
(X_518  0.0009803927969187498)
(X_519  0.10098039358854294)
(X_520  0.10490196198225021)
(X_521  0.10490196198225021)
(X_522  0.10490196198225021)
(X_523  0.004901961423456669)
(X_524  0.004901961423456669)
(X_525  0.10490196198225021)
(X_526  0.004901961423456669)
(X_527  0.004901961423456669)
(X_528  0.012745101936161518)
(X_529  0.012745101936161518)
(X_530  0.012745101936161518)
(X_531  0.012745101936161518)
(X_532  -0.0029411755967885256)
(X_533  0.09705882519483566)
(X_534  -0.0029411755967885256)
(X_535  -0.0029411755967885256)
(X_536  -0.0029411755967885256)
(X_537  -0.0029411755967885256)
(X_538  -0.0029411755967885256)
(X_539  -0.0029411755967885256)
(X_540  -0.0029411755967885256)
(X_541  -0.0029411755967885256)
(X_542  -0.0029411755967885256)
(X_543  0.09705882519483566)
(X_544  0.09705882519483566)
(X_545  -0.0029411755967885256)
(X_546  -0.0029411755967885256)
(X_547  0.09705882519483566)
(X_548  -0.0029411755967885256)
(X_549  0.09705882519483566)
(X_550  -0.0029411755967885256)
(X_551  -0.0029411755967885256)
(X_552  -0.0029411755967885256)
(X_553  -0.0029411755967885256)
(X_554  -0.0029411755967885256)
(X_555  -0.0029411755967885256)
(X_556  0.10882353037595749)
(X_557  0.10882353037595749)
(X_558  0.10882353037595749)
(X_559  0.10882353037595749)
(X_560  -0.0029411755967885256)
(X_561  -0.0029411755967885256)
(X_562  -0.0029411755967885256)
(X_563  -0.0029411755967885256)
(X_564  -0.0029411755967885256)
(X_565  -0.0029411755967885256)
(X_566  -0.0029411755967885256)
(X_567  -0.0029411755967885256)
(X_568  0.09705882519483566)
(X_569  -0.0029411755967885256)
(X_570  -0.0029411755967885256)
(X_571  -0.0029411755967885256)
(X_572  0.09705882519483566)
(X_573  -0.0029411755967885256)
(X_574  -0.0029411755967885256)
(X_575  -0.0029411755967885256)
(X_576  0.09705882519483566)
(X_577  0.09705882519483566)
(X_578  -0.0029411755967885256)
(X_579  -0.0029411755967885256)
(X_580  -0.0029411755967885256)
(X_581  -0.0029411755967885256)
(X_582  -0.0029411755967885256)
(X_583  -0.0029411755967885256)
(X_584  0.0009803927969187498)
(X_585  0.10098039358854294)
(X_586  0.0009803927969187498)
(X_587  0.10098039358854294)
(X_588  0.09705882519483566)
(X_589  0.09705882519483566)
(X_590  0.09705882519483566)
(X_591  -0.0029411755967885256)
(X_592  -0.0029411755967885256)
(X_593  0.09705882519483566)
(X_594  0.09705882519483566)
(X_595  -0.0029411755967885256)
(X_596  -0.006862743757665157)
(X_597  -0.006862743757665157)
(X_598  -0.006862743757665157)
(X_599  0.09313725680112839)
(X_600  0.09313725680112839)
(X_601  0.09313725680112839)
(X_602  0.09313725680112839)
(X_603  0.09313725680112839)
(X_604  0.09313725680112839)
(X_605  -0.006862743757665157)
(X_606  -0.006862743757665157)
(X_607  -0.006862743757665157)
(X_608  0.09313725680112839)
(X_609  0.09313725680112839)
(X_610  -0.006862743757665157)
(X_611  -0.006862743757665157)
(X_612  -0.0029411755967885256)
(X_613  0.09705882519483566)
(X_614  0.09705882519483566)
(X_615  0.09705882519483566)
(X_616  -0.006862743757665157)
(X_617  0.09313725680112839)
(X_618  0.09313725680112839)
(X_619  -0.006862743757665157)
(X_620  0.09313725680112839)
(X_621  -0.006862743757665157)
(X_622  -0.006862743757665157)
(X_623  -0.006862743757665157)
(X_624  0.08921568840742111)
(X_625  0.08921568840742111)
(X_626  0.08921568840742111)
(X_627  0.08921568840742111)
(X_628  0.08921568840742111)
(X_629  0.08921568840742111)
(X_630  0.08921568840742111)
(X_631  0.08921568840742111)
(X_632  0.08921568840742111)
(X_633  0.08921568840742111)
(X_634  0.08921568840742111)
(X_635  0.08921568840742111)
(X_636  0.08921568840742111)
(X_637  0.08921568840742111)
(X_638  0.08921568840742111)
(X_639  0.08921568840742111)
(X_640  0.08921568840742111)
(X_641  0.08921568840742111)
(X_642  0.08921568840742111)
(X_643  0.08921568840742111)
(X_644  0.08921568840742111)
(X_645  0.08921568840742111)
(X_646  -0.010784312151372433)
(X_647  -0.010784312151372433)
(X_648  -0.010784312151372433)
(X_649  -0.010784312151372433)
(X_650  0.08921568840742111)
(X_651  -0.010784312151372433)
(X_652  -0.018627449870109558)
(X_653  -0.018627449870109558)
(X_654  -0.018627449870109558)
(X_655  -0.018627449870109558)
(X_656  0.08137255162000656)
(X_657  0.08137255162000656)
(X_658  0.08137255162000656)
(X_659  0.08137255162000656)
(X_660  0.08529412001371384)
(X_661  0.08529412001371384)
(X_662  -0.014705880545079708)
(X_663  -0.014705880545079708)
(X_664  -0.014705880545079708)
(X_665  -0.014705880545079708)
(X_666  -0.014705880545079708)
(X_667  -0.014705880545079708)
(X_668  -0.010784312151372433)
(X_669  -0.010784312151372433)
(X_670  -0.010784312151372433)
(X_671  0.08921568840742111)
(X_672  -0.022549020126461983)
(X_673  0.07745098322629929)
(X_674  0.08137255162000656)
(X_675  0.08529412001371384)
(X_676  0.08529412001371384)
(X_677  0.08529412001371384)
(X_678  0.08137255162000656)
(X_679  0.08137255162000656)
(X_680  0.08529412001371384)
(X_681  0.08529412001371384)
(X_682  0.08529412001371384)
(X_683  -0.014705880545079708)
(X_684  -0.014705880545079708)
(X_685  -0.014705880545079708)
(X_686  0.08529412001371384)
(X_687  0.08529412001371384)
(X_688  0.08529412001371384)
(X_689  0.08529412001371384)
(X_690  0.08529412001371384)
(X_691  0.08529412001371384)
(X_692  0.08529412001371384)
(X_693  0.08529412001371384)
(X_694  0.08529412001371384)
(X_695  0.08529412001371384)
(X_696  0.08529412001371384)
(X_697  -0.014705880545079708)
(X_698  -0.014705880545079708)
(X_699  -0.014705880545079708)
(X_700  0.07745098322629929)
(X_701  0.08137255162000656)
(X_702  0.08137255162000656)
(X_703  0.08137255162000656)
(X_704  0.08529412001371384)
(X_705  -0.018627449870109558)
(X_706  -0.018627449870109558)
(X_707  -0.018627449870109558)
(X_708  -0.018627449870109558)
(X_709  -0.018627449870109558)
(X_710  -0.018627449870109558)
(X_711  -0.018627449870109558)
(X_712  -0.018627449870109558)
(X_713  -0.018627449870109558)
(X_714  -0.018627449870109558)
(X_715  0.08137255162000656)
(X_716  -0.014705880545079708)
(X_717  -0.014705880545079708)
(X_718  -0.014705880545079708)
(X_719  -0.014705880545079708)
(X_720  -0.014705880545079708)
(X_721  -0.014705880545079708)
(X_722  -0.014705880545079708)
(X_723  -0.014705880545079708)
(X_724  -0.014705880545079708)
(X_725  -0.014705880545079708)
(X_726  -0.014705880545079708)
(X_727  -0.014705880545079708)
(X_728  0.08137255162000656)
(X_729  0.08137255162000656)
(X_730  0.08137255162000656)
(X_731  0.08137255162000656)
(X_732  0.08137255162000656)
(X_733  0.08137255162000656)
(X_734  0.08137255162000656)
(X_735  0.08137255162000656)
(X_736  -0.022549020126461983)
(X_737  -0.022549020126461983)
(X_738  -0.022549020126461983)
(X_739  -0.022549020126461983)
(X_740  -0.022549020126461983)
(X_741  -0.022549020126461983)
(X_742  -0.022549020126461983)
(X_743  -0.022549020126461983)
(X_744  -0.014705880545079708)
(X_745  -0.014705880545079708)
(X_746  -0.014705880545079708)
(X_747  -0.014705880545079708)
(X_748  -0.014705880545079708)
(X_749  0.08529412001371384)
(X_750  0.08529412001371384)
(X_751  0.08529412001371384)
(X_752  0.08529412001371384)
(X_753  0.08529412001371384)
(X_754  0.08529412001371384)
(X_755  0.08529412001371384)
(X_756  -0.014705880545079708)
(X_757  -0.014705880545079708)
(X_758  -0.018627449870109558)
(X_759  -0.018627449870109558)
(X_760  0.07745098322629929)
(X_761  0.07745098322629929)
(X_762  0.08137255162000656)
(X_763  0.08137255162000656)
(X_764  0.07352941483259201)
(X_765  0.07352941483259201)
(X_766  0.07352941483259201)
(X_767  0.07352941483259201)
(X_768  0.07352941483259201)
(X_769  0.07352941483259201)
(X_770  0.07352941483259201)
(X_771  0.07352941483259201)
(X_772  0.08137255162000656)
(X_773  -0.018627449870109558)
(X_774  -0.018627449870109558)
(X_775  -0.018627449870109558)
(X_776  -0.018627449870109558)
(X_777  -0.018627449870109558)
(X_778  0.08137255162000656)
(X_779  0.08137255162000656)
(X_780  0.08137255162000656)
(X_781  -0.018627449870109558)
(X_782  -0.018627449870109558)
(X_783  0.08137255162000656)
(Y_0 28.733016967773438)
(Y_1 -6.323851108551025)
(Y_2 17.090669631958008)
(Y_3 -39.95505142211914))