((X_0  0.7441176772117615)
(X_1  0.636274516582489)
(X_2  0.6205882430076599)
(X_3  0.6009804010391235)
(X_4  0.5852941274642944)
(X_5  0.5696078538894653)
(X_6  0.5617647171020508)
(X_7  0.5578431487083435)
(X_8  0.4911764860153198)
(X_9  0.4833333492279053)
(X_10  0.5676470994949341)
(X_11  0.44411763548851013)
(X_12  0.4205882251262665)
(X_13  0.49313727021217346)
(X_14  0.4735294282436371)
(X_15  0.46176472306251526)
(X_16  0.3225490152835846)
(X_17  0.31078431010246277)
(X_18  0.2911764681339264)
(X_19  0.26372548937797546)
(X_20  0.33627453446388245)
(X_21  0.3127451241016388)
(X_22  0.30098041892051697)
(X_23  0.1931372582912445)
(X_24  0.2617647051811218)
(X_25  0.24607843160629272)
(X_26  0.22647058963775635)
(X_27  0.21078431606292725)
(X_28  0.18333333730697632)
(X_29  0.18333333730697632)
(X_30  0.07549020648002625)
(X_31  0.0676470622420311)
(X_32  0.05980392172932625)
(X_33  0.0519607849419117)
(X_34  0.04803921654820442)
(X_35  0.14411765336990356)
(X_36  0.04411764815449715)
(X_37  0.04803921654820442)
(X_38  0.04803921654820442)
(X_39  0.0519607849419117)
(X_40  0.0519607849419117)
(X_41  0.15196079015731812)
(X_42  0.14803922176361084)
(X_43  0.04803921654820442)
(X_44  0.16372549533843994)
(X_45  0.16372549533843994)
(X_46  0.15980392694473267)
(X_47  0.05588235333561897)
(X_48  0.05588235333561897)
(X_49  0.0519607849419117)
(X_50  0.0519607849419117)
(X_51  0.0519607849419117)
(X_52  0.16764706373214722)
(X_53  0.05980392172932625)
(X_54  0.14803922176361084)
(X_55  0.136274516582489)
(X_56  0.14411765336990356)
(X_57  0.04411764815449715)
(X_58  0.04803921654820442)
(X_59  0.04803921654820442)
(X_60  0.04411764815449715)
(X_61  0.04019607976078987)
(X_62  0.036274511367082596)
(X_63  0.03235294297337532)
(X_64  0.036274511367082596)
(X_65  0.04019607976078987)
(X_66  0.04411764815449715)
(X_67  0.04803921654820442)
(X_68  0.15196079015731812)
(X_69  0.0519607849419117)
(X_70  0.0519607849419117)
(X_71  0.0519607849419117)
(X_72  -0.0029411755967885256)
(X_73  0.004901961423456669)
(X_74  0.012745101936161518)
(X_75  0.02450980618596077)
(X_76  0.13235294818878174)
(X_77  0.04019607976078987)
(X_78  0.04411764815449715)
(X_79  0.04803921654820442)
(X_80  0.01666666939854622)
(X_81  0.01666666939854622)
(X_82  0.012745101936161518)
(X_83  0.11274509876966476)
(X_84  0.12843137979507446)
(X_85  0.13235294818878174)
(X_86  0.13235294818878174)
(X_87  0.13235294818878174)
(X_88  0.12843137979507446)
(X_89  0.020588237792253494)
(X_90  0.01666666939854622)
(X_91  0.008823529817163944)
(X_92  0.136274516582489)
(X_93  0.036274511367082596)
(X_94  0.036274511367082596)
(X_95  0.03235294297337532)
(X_96  0.12450980395078659)
(X_97  0.12058823555707932)
(X_98  0.11274509876966476)
(X_99  0.10882353037595749)
(X_100  0.13235294818878174)
(X_101  0.136274516582489)
(X_102  0.1401960849761963)
(X_103  0.14411765336990356)
(X_104  0.04411764815449715)
(X_105  0.04019607976078987)
(X_106  0.036274511367082596)
(X_107  0.03235294297337532)
(X_108  0.028431374579668045)
(X_109  0.03235294297337532)
(X_110  0.036274511367082596)
(X_111  0.1401960849761963)
(X_112  0.03235294297337532)
(X_113  0.13235294818878174)
(X_114  0.13235294818878174)
(X_115  0.13235294818878174)
(X_116  0.03235294297337532)
(X_117  0.028431374579668045)
(X_118  0.02450980618596077)
(X_119  0.02450980618596077)
(X_120  0.02450980618596077)
(X_121  0.028431374579668045)
(X_122  0.03235294297337532)
(X_123  0.036274511367082596)
(X_124  0.036274511367082596)
(X_125  0.036274511367082596)
(X_126  0.03235294297337532)
(X_127  0.03235294297337532)
(X_128  0.136274516582489)
(X_129  0.136274516582489)
(X_130  0.13235294818878174)
(X_131  0.12843137979507446)
(X_132  0.12058823555707932)
(X_133  0.11274509876966476)
(X_134  0.10490196198225021)
(X_135  0.10098039358854294)
(X_136  0.13235294818878174)
(X_137  0.03235294297337532)
(X_138  0.136274516582489)
(X_139  0.1401960849761963)
(X_140  0.12843137979507446)
(X_141  0.12843137979507446)
(X_142  0.12450980395078659)
(X_143  0.12450980395078659)
(X_144  0.12843137979507446)
(X_145  0.03235294297337532)
(X_146  0.04019607976078987)
(X_147  0.14411765336990356)
(X_148  0.10490196198225021)
(X_149  0.10882353037595749)
(X_150  0.11274509876966476)
(X_151  0.11666666716337204)
(X_152  0.11666666716337204)
(X_153  0.11666666716337204)
(X_154  0.11666666716337204)
(X_155  0.11666666716337204)
(X_156  0.1401960849761963)
(X_157  0.136274516582489)
(X_158  0.13235294818878174)
(X_159  0.12843137979507446)
(X_160  0.12843137979507446)
(X_161  0.12843137979507446)
(X_162  0.03235294297337532)
(X_163  0.13235294818878174)
(X_164  0.12450980395078659)
(X_165  0.02450980618596077)
(X_166  0.02450980618596077)
(X_167  0.12450980395078659)
(X_168  0.136274516582489)
(X_169  0.12843137979507446)
(X_170  0.12058823555707932)
(X_171  0.11274509876966476)
(X_172  0.11274509876966476)
(X_173  0.020588237792253494)
(X_174  0.028431374579668045)
(X_175  0.036274511367082596)
(X_176  0.028431374579668045)
(X_177  0.12843137979507446)
(X_178  0.13235294818878174)
(X_179  0.13235294818878174)
(X_180  0.13235294818878174)
(X_181  0.03235294297337532)
(X_182  0.028431374579668045)
(X_183  0.028431374579668045)
(X_184  0.13235294818878174)
(X_185  0.12843137979507446)
(X_186  0.11666666716337204)
(X_187  0.10882353037595749)
(X_188  0.10882353037595749)
(X_189  0.11274509876966476)
(X_190  0.020588237792253494)
(X_191  0.12843137979507446)
(X_192  0.12450980395078659)
(X_193  0.02450980618596077)
(X_194  0.02450980618596077)
(X_195  0.020588237792253494)
(X_196  0.07941177487373352)
(X_197  0.16372549533843994)
(X_198  0.04803921654820442)
(X_199  0.028431374579668045)
(X_200  0.020588237792253494)
(X_201  0.12058823555707932)
(X_202  0.12843137979507446)
(X_203  0.036274511367082596)
(X_204  0.008823529817163944)
(X_205  0.012745101936161518)
(X_206  0.02450980618596077)
(X_207  0.036274511367082596)
(X_208  0.04803921654820442)
(X_209  0.05588235333561897)
(X_210  0.06372549384832382)
(X_211  0.16372549533843994)
(X_212  0.1715686321258545)
(X_213  0.15980392694473267)
(X_214  0.1401960849761963)
(X_215  0.12058823555707932)
(X_216  0.10882353037595749)
(X_217  0.10882353037595749)
(X_218  0.11666666716337204)
(X_219  0.12058823555707932)
(X_220  0.12450980395078659)
(X_221  0.12058823555707932)
(X_222  0.020588237792253494)
(X_223  0.11666666716337204)
(X_224  0.2911764681339264)
(X_225  0.26372548937797546)
(X_226  0.3284313976764679)
(X_227  0.30098041892051697)
(X_228  0.1774509847164154)
(X_229  0.14215686917304993)
(X_230  0.0990196168422699)
(X_231  0.06372549384832382)
(X_232  0.0519607849419117)
(X_233  0.11078432202339172)
(X_234  0.1460784375667572)
(X_235  0.13431373238563538)
(X_236  0.14215686917304993)
(X_237  0.1931372582912445)
(X_238  0.23235295712947845)
(X_239  0.240196093916893)
(X_240  0.27941176295280457)
(X_241  0.28921568393707275)
(X_242  0.22647058963775635)
(X_243  0.2186274528503418)
(X_244  0.19509804248809814)
(X_245  0.136274516582489)
(X_246  0.10490196198225021)
(X_247  0.12450980395078659)
(X_248  0.020588237792253494)
(X_249  0.028431374579668045)
(X_250  0.036274511367082596)
(X_251  0.1401960849761963)
(X_252  0.27156862616539)
(X_253  0.2872548997402191)
(X_254  0.4068627655506134)
(X_255  0.41862747073173523)
(X_256  0.4225490391254425)
(X_257  0.4225490391254425)
(X_258  0.4264706075191498)
(X_259  0.43039217591285706)
(X_260  0.26764705777168274)
(X_261  0.23627452552318573)
(X_262  0.22058825194835663)
(X_263  0.2558823525905609)
(X_264  0.41862747073173523)
(X_265  0.37745097279548645)
(X_266  0.5166666507720947)
(X_267  0.5401960611343384)
(X_268  0.49705883860588074)
(X_269  0.46176472306251526)
(X_270  0.40294119715690613)
(X_271  0.3401961028575897)
(X_272  0.18921568989753723)
(X_273  0.2656862735748291)
(X_274  0.2696078419685364)
(X_275  0.28921568393707275)
(X_276  0.28921568393707275)
(X_277  0.19705882668495178)
(X_278  0.20490197837352753)
(X_279  0.2088235467672348)
(X_280  0.30098041892051697)
(X_281  0.33627453446388245)
(X_282  0.26764705777168274)
(X_283  0.27156862616539)
(X_284  0.24803923070430756)
(X_285  0.33235296607017517)
(X_286  0.344117671251297)
(X_287  0.3637255132198334)
(X_288  0.3637255132198334)
(X_289  0.24803923070430756)
(X_290  0.2911764681339264)
(X_291  0.385294109582901)
(X_292  0.44019606709480286)
(X_293  0.4323529303073883)
(X_294  0.42450979351997375)
(X_295  0.44019606709480286)
(X_296  0.5323529243469238)
(X_297  0.4637255072593689)
(X_298  0.4480392038822174)
(X_299  0.3656862676143646)
(X_300  0.387254923582077)
(X_301  0.3754902184009552)
(X_302  0.3950980603694916)
(X_303  0.3029411733150482)
(X_304  0.38333335518836975)
(X_305  0.28333333134651184)
(X_306  0.27941176295280457)
(X_307  0.3794117867946625)
(X_308  0.4735294282436371)
(X_309  0.4892157018184662)
(X_310  0.49313727021217346)
(X_311  0.36176469922065735)
(X_312  0.3029411733150482)
(X_313  0.25196078419685364)
(X_314  0.23235295712947845)
(X_315  0.23235295712947845)
(X_316  0.3127451241016388)
(X_317  0.27941176295280457)
(X_318  0.4735294282436371)
(X_319  0.5166666507720947)
(X_320  0.46568629145622253)
(X_321  0.28333333134651184)
(X_322  0.2558823525905609)
(X_323  0.2754901945590973)
(X_324  0.25196078419685364)
(X_325  0.31078431010246277)
(X_326  0.3539215624332428)
(X_327  0.33039215207099915)
(X_328  0.3754902184009552)
(X_329  0.3401961028575897)
(X_330  0.33627453446388245)
(X_331  0.344117671251297)
(X_332  0.22843138873577118)
(X_333  0.21274511516094208)
(X_334  0.19705882668495178)
(X_335  0.18137255311012268)
(X_336  0.42450979351997375)
(X_337  0.5245097875595093)
(X_338  0.520588219165802)
(X_339  0.5088235139846802)
(X_340  0.4892157018184662)
(X_341  0.46176472306251526)
(X_342  0.3382352888584137)
(X_343  0.3225490152835846)
(X_344  0.41470590233802795)
(X_345  0.48137256503105164)
(X_346  0.4009803831577301)
(X_347  0.3186274468898773)
(X_348  0.2088235467672348)
(X_349  0.15784314274787903)
(X_350  0.16960784792900085)
(X_351  0.29313725233078003)
(X_352  0.2539215683937073)
(X_353  0.27352941036224365)
(X_354  0.33627453446388245)
(X_355  0.3068627417087555)
(X_356  0.4107843339443207)
(X_357  0.3637255132198334)
(X_358  0.3598039448261261)
(X_359  0.3911764919757843)
(X_360  0.2872548997402191)
(X_361  0.26372548937797546)
(X_362  0.23627452552318573)
(X_363  0.31666669249534607)
(X_364  0.30098041892051697)
(X_365  0.2970588207244873)
(X_366  0.30098041892051697)
(X_367  0.3284313976764679)
(X_368  0.3637255132198334)
(X_369  0.28333333134651184)
(X_370  0.27941176295280457)
(X_371  0.26764705777168274)
(X_372  0.27156862616539)
(X_373  0.2911764681339264)
(X_374  0.3558823764324188)
(X_375  0.2656862735748291)
(X_376  0.2186274528503418)
(X_377  0.14215686917304993)
(X_378  0.15784314274787903)
(X_379  0.1460784375667572)
(X_380  0.16568627953529358)
(X_381  0.13823530077934265)
(X_382  0.2774509787559509)
(X_383  0.2754901945590973)
(X_384  0.32647058367729187)
(X_385  0.31470587849617004)
(X_386  0.33039215207099915)
(X_387  0.385294109582901)
(X_388  0.43431374430656433)
(X_389  0.4107843339443207)
(X_390  0.2872548997402191)
(X_391  0.2754901945590973)
(X_392  0.20686274766921997)
(X_393  0.19901961088180542)
(X_394  0.2029411792755127)
(X_395  0.12647059559822083)
(X_396  0.2656862735748291)
(X_397  0.29313725233078003)
(X_398  0.2970588207244873)
(X_399  0.28921568393707275)
(X_400  0.11862745881080627)
(X_401  0.10294118523597717)
(X_402  0.07941177487373352)
(X_403  0.1715686321258545)
(X_404  0.18333333730697632)
(X_405  0.2029411792755127)
(X_406  0.10294118523597717)
(X_407  0.08725491166114807)
(X_408  0.19901961088180542)
(X_409  0.16764706373214722)
(X_410  0.1715686321258545)
(X_411  0.2186274528503418)
(X_412  0.27352941036224365)
(X_413  0.20098040997982025)
(X_414  0.3245098292827606)
(X_415  0.35196080803871155)
(X_416  0.1931372582912445)
(X_417  0.17352941632270813)
(X_418  0.15000000596046448)
(X_419  0.15000000596046448)
(X_420  0.09117648005485535)
(X_421  0.0833333432674408)
(X_422  0.07549020648002625)
(X_423  0.07941177487373352)
(X_424  0.09117648005485535)
(X_425  0.10294118523597717)
(X_426  0.20686274766921997)
(X_427  0.2029411792755127)
(X_428  0.22254902124404907)
(X_429  0.1715686321258545)
(X_430  0.04411764815449715)
(X_431  0.0519607849419117)
(X_432  0.04803921654820442)
(X_433  0.028431374579668045)
(X_434  0.04019607976078987)
(X_435  0.07941177487373352)
(X_436  0.1558823585510254)
(X_437  0.1558823585510254)
(X_438  0.1401960849761963)
(X_439  0.13235294818878174)
(X_440  0.15980392694473267)
(X_441  0.2029411792755127)
(X_442  0.114705890417099)
(X_443  0.09509804844856262)
(X_444  0.10294118523597717)
(X_445  0.0833333432674408)
(X_446  0.06372549384832382)
(X_447  0.16372549533843994)
(X_448  0.16372549533843994)
(X_449  0.05980392172932625)
(X_450  0.05588235333561897)
(X_451  0.05588235333561897)
(X_452  0.1558823585510254)
(X_453  0.1558823585510254)
(X_454  0.1558823585510254)
(X_455  0.15980392694473267)
(X_456  0.14411765336990356)
(X_457  0.136274516582489)
(X_458  0.12450980395078659)
(X_459  0.11666666716337204)
(X_460  0.11666666716337204)
(X_461  0.02450980618596077)
(X_462  0.036274511367082596)
(X_463  0.04411764815449715)
(X_464  0.04411764815449715)
(X_465  0.04019607976078987)
(X_466  0.1401960849761963)
(X_467  0.1401960849761963)
(X_468  0.15196079015731812)
(X_469  0.16764706373214722)
(X_470  0.18333333730697632)
(X_471  0.19509804248809814)
(X_472  0.16764706373214722)
(X_473  0.16372549533843994)
(X_474  0.15196079015731812)
(X_475  0.14411765336990356)
(X_476  0.04803921654820442)
(X_477  0.04411764815449715)
(X_478  0.14411765336990356)
(X_479  0.14411765336990356)
(X_480  0.04411764815449715)
(X_481  0.04411764815449715)
(X_482  0.04803921654820442)
(X_483  0.15196079015731812)
(X_484  0.136274516582489)
(X_485  0.12843137979507446)
(X_486  0.12058823555707932)
(X_487  0.012745101936161518)
(X_488  0.012745101936161518)
(X_489  0.020588237792253494)
(X_490  0.028431374579668045)
(X_491  0.036274511367082596)
(X_492  0.02450980618596077)
(X_493  0.020588237792253494)
(X_494  0.11666666716337204)
(X_495  0.11666666716337204)
(X_496  0.12450980395078659)
(X_497  0.1401960849761963)
(X_498  0.1558823585510254)
(X_499  0.06372549384832382)
(X_500  0.15196079015731812)
(X_501  0.04803921654820442)
(X_502  0.036274511367082596)
(X_503  0.028431374579668045)
(X_504  0.028431374579668045)
(X_505  0.02450980618596077)
(X_506  0.12450980395078659)
(X_507  0.02450980618596077)
(X_508  0.028431374579668045)
(X_509  0.13235294818878174)
(X_510  0.136274516582489)
(X_511  0.04019607976078987)
(X_512  0.02450980618596077)
(X_513  0.020588237792253494)
(X_514  0.012745101936161518)
(X_515  0.004901961423456669)
(X_516  0.004901961423456669)
(X_517  0.012745101936161518)
(X_518  0.020588237792253494)
(X_519  0.02450980618596077)
(X_520  0.012745101936161518)
(X_521  0.008823529817163944)
(X_522  0.004901961423456669)
(X_523  0.0009803927969187498)
(X_524  0.008823529817163944)
(X_525  0.11666666716337204)
(X_526  0.12843137979507446)
(X_527  0.136274516582489)
(X_528  0.03235294297337532)
(X_529  0.028431374579668045)
(X_530  0.020588237792253494)
(X_531  0.012745101936161518)
(X_532  0.11274509876966476)
(X_533  0.11274509876966476)
(X_534  0.11274509876966476)
(X_535  0.11274509876966476)
(X_536  0.11666666716337204)
(X_537  0.02450980618596077)
(X_538  0.028431374579668045)
(X_539  0.03235294297337532)
(X_540  0.01666666939854622)
(X_541  0.008823529817163944)
(X_542  0.004901961423456669)
(X_543  0.0009803927969187498)
(X_544  0.0009803927969187498)
(X_545  0.004901961423456669)
(X_546  0.008823529817163944)
(X_547  0.01666666939854622)
(X_548  0.12058823555707932)
(X_549  0.01666666939854622)
(X_550  0.008823529817163944)
(X_551  0.008823529817163944)
(X_552  0.10882353037595749)
(X_553  0.11666666716337204)
(X_554  0.12450980395078659)
(X_555  0.028431374579668045)
(X_556  0.11666666716337204)
(X_557  0.11274509876966476)
(X_558  0.10882353037595749)
(X_559  0.10098039358854294)
(X_560  0.10490196198225021)
(X_561  0.004901961423456669)
(X_562  0.10490196198225021)
(X_563  0.008823529817163944)
(X_564  0.012745101936161518)
(X_565  0.01666666939854622)
(X_566  0.02450980618596077)
(X_567  0.028431374579668045)
(X_568  0.004901961423456669)
(X_569  0.10490196198225021)
(X_570  0.09705882519483566)
(X_571  -0.0029411755967885256)
(X_572  -0.0029411755967885256)
(X_573  -0.0029411755967885256)
(X_574  0.004901961423456669)
(X_575  0.004901961423456669)
(X_576  0.02450980618596077)
(X_577  0.020588237792253494)
(X_578  0.11666666716337204)
(X_579  0.11274509876966476)
(X_580  0.11274509876966476)
(X_581  0.11666666716337204)
(X_582  0.12058823555707932)
(X_583  0.12058823555707932)
(X_584  0.10490196198225021)
(X_585  0.004901961423456669)
(X_586  0.0009803927969187498)
(X_587  0.0009803927969187498)
(X_588  0.10490196198225021)
(X_589  0.004901961423456669)
(X_590  0.0009803927969187498)
(X_591  0.0009803927969187498)
(X_592  0.004901961423456669)
(X_593  0.10882353037595749)
(X_594  0.11274509876966476)
(X_595  0.11666666716337204)
(X_596  0.10098039358854294)
(X_597  0.09705882519483566)
(X_598  -0.0029411755967885256)
(X_599  -0.006862743757665157)
(X_600  -0.006862743757665157)
(X_601  -0.0029411755967885256)
(X_602  -0.0029411755967885256)
(X_603  0.0009803927969187498)
(X_604  0.10882353037595749)
(X_605  0.10882353037595749)
(X_606  0.10490196198225021)
(X_607  0.10490196198225021)
(X_608  0.10490196198225021)
(X_609  0.004901961423456669)
(X_610  0.10490196198225021)
(X_611  0.10882353037595749)
(X_612  0.0009803927969187498)
(X_613  0.0009803927969187498)
(X_614  0.10098039358854294)
(X_615  0.10098039358854294)
(X_616  0.10098039358854294)
(X_617  0.10098039358854294)
(X_618  -0.0029411755967885256)
(X_619  -0.0029411755967885256)
(X_620  -0.0029411755967885256)
(X_621  0.09705882519483566)
(X_622  0.0009803927969187498)
(X_623  0.004901961423456669)
(X_624  0.09705882519483566)
(X_625  0.09705882519483566)
(X_626  0.09705882519483566)
(X_627  0.09705882519483566)
(X_628  -0.0029411755967885256)
(X_629  -0.0029411755967885256)
(X_630  -0.0029411755967885256)
(X_631  -0.0029411755967885256)
(X_632  0.09705882519483566)
(X_633  0.09313725680112839)
(X_634  0.09313725680112839)
(X_635  0.09313725680112839)
(X_636  0.09313725680112839)
(X_637  0.09705882519483566)
(X_638  0.09705882519483566)
(X_639  -0.0029411755967885256)
(X_640  -0.006862743757665157)
(X_641  -0.0029411755967885256)
(X_642  0.09705882519483566)
(X_643  0.09705882519483566)
(X_644  0.09705882519483566)
(X_645  -0.0029411755967885256)
(X_646  0.09313725680112839)
(X_647  0.08921568840742111)
(X_648  0.08921568840742111)
(X_649  0.08921568840742111)
(X_650  0.09313725680112839)
(X_651  0.09313725680112839)
(X_652  0.09705882519483566)
(X_653  -0.0029411755967885256)
(X_654  -0.0029411755967885256)
(X_655  -0.0029411755967885256)
(X_656  -0.0029411755967885256)
(X_657  -0.0029411755967885256)
(X_658  -0.0029411755967885256)
(X_659  -0.0029411755967885256)
(X_660  0.08921568840742111)
(X_661  0.08921568840742111)
(X_662  0.09313725680112839)
(X_663  0.09313725680112839)
(X_664  -0.006862743757665157)
(X_665  0.09313725680112839)
(X_666  0.09705882519483566)
(X_667  -0.0029411755967885256)
(X_668  -0.010784312151372433)
(X_669  -0.010784312151372433)
(X_670  0.09313725680112839)
(X_671  -0.0029411755967885256)
(X_672  0.08921568840742111)
(X_673  -0.010784312151372433)
(X_674  -0.010784312151372433)
(X_675  -0.010784312151372433)
(X_676  -0.010784312151372433)
(X_677  0.08921568840742111)
(X_678  0.08921568840742111)
(X_679  0.08921568840742111)
(X_680  -0.006862743757665157)
(X_681  -0.006862743757665157)
(X_682  -0.006862743757665157)
(X_683  -0.006862743757665157)
(X_684  -0.006862743757665157)
(X_685  -0.006862743757665157)
(X_686  -0.006862743757665157)
(X_687  -0.006862743757665157)
(X_688  0.09313725680112839)
(X_689  0.09313725680112839)
(X_690  -0.006862743757665157)
(X_691  -0.006862743757665157)
(X_692  0.09313725680112839)
(X_693  0.09313725680112839)
(X_694  -0.006862743757665157)
(X_695  0.09313725680112839)
(X_696  0.09313725680112839)
(X_697  0.09313725680112839)
(X_698  0.09313725680112839)
(X_699  0.09313725680112839)
(X_700  0.08921568840742111)
(X_701  -0.010784312151372433)
(X_702  0.08921568840742111)
(X_703  0.08921568840742111)
(X_704  -0.010784312151372433)
(X_705  -0.010784312151372433)
(X_706  -0.010784312151372433)
(X_707  -0.010784312151372433)
(X_708  -0.006862743757665157)
(X_709  -0.006862743757665157)
(X_710  -0.006862743757665157)
(X_711  -0.006862743757665157)
(X_712  -0.006862743757665157)
(X_713  -0.006862743757665157)
(X_714  -0.006862743757665157)
(X_715  -0.006862743757665157)
(X_716  0.09313725680112839)
(X_717  0.09313725680112839)
(X_718  -0.006862743757665157)
(X_719  -0.006862743757665157)
(X_720  -0.006862743757665157)
(X_721  -0.006862743757665157)
(X_722  0.09313725680112839)
(X_723  0.09313725680112839)
(X_724  0.09313725680112839)
(X_725  0.09313725680112839)
(X_726  0.09313725680112839)
(X_727  0.09313725680112839)
(X_728  0.08921568840742111)
(X_729  -0.010784312151372433)
(X_730  0.08921568840742111)
(X_731  0.08921568840742111)
(X_732  0.08921568840742111)
(X_733  0.08921568840742111)
(X_734  0.08921568840742111)
(X_735  0.08921568840742111)
(X_736  -0.006862743757665157)
(X_737  -0.006862743757665157)
(X_738  -0.006862743757665157)
(X_739  -0.006862743757665157)
(X_740  -0.006862743757665157)
(X_741  -0.006862743757665157)
(X_742  -0.006862743757665157)
(X_743  -0.006862743757665157)
(X_744  -0.006862743757665157)
(X_745  -0.006862743757665157)
(X_746  -0.006862743757665157)
(X_747  -0.006862743757665157)
(X_748  0.09313725680112839)
(X_749  0.09313725680112839)
(X_750  -0.006862743757665157)
(X_751  0.09313725680112839)
(X_752  0.09313725680112839)
(X_753  0.09313725680112839)
(X_754  0.09313725680112839)
(X_755  0.09313725680112839)
(X_756  0.08921568840742111)
(X_757  0.08921568840742111)
(X_758  0.08921568840742111)
(X_759  -0.010784312151372433)
(X_760  -0.010784312151372433)
(X_761  -0.010784312151372433)
(X_762  0.08921568840742111)
(X_763  0.08921568840742111)
(X_764  -0.010784312151372433)
(X_765  -0.010784312151372433)
(X_766  -0.010784312151372433)
(X_767  -0.010784312151372433)
(X_768  -0.010784312151372433)
(X_769  -0.010784312151372433)
(X_770  -0.010784312151372433)
(X_771  -0.010784312151372433)
(X_772  -0.010784312151372433)
(X_773  -0.010784312151372433)
(X_774  -0.010784312151372433)
(X_775  -0.010784312151372433)
(X_776  0.08921568840742111)
(X_777  0.08921568840742111)
(X_778  -0.010784312151372433)
(X_779  0.08921568840742111)
(X_780  -0.010784312151372433)
(X_781  -0.010784312151372433)
(X_782  -0.010784312151372433)
(X_783  -0.010784312151372433)
(Y_0 -21.222270965576172)
(Y_1 21.82105827331543)
(Y_2 -15.424217224121094)
(Y_3 15.86618423461914))