((X_0  0.16764706373214722)
(X_1  0.17941176891326904)
(X_2  0.10686275362968445)
(X_3  0.19117647409439087)
(X_4  0.1401960849761963)
(X_5  0.14411765336990356)
(X_6  0.16764706373214722)
(X_7  0.04803921654820442)
(X_8  0.17941176891326904)
(X_9  0.1715686321258545)
(X_10  0.16764706373214722)
(X_11  0.07549020648002625)
(X_12  0.09117648005485535)
(X_13  0.19509804248809814)
(X_14  0.18333333730697632)
(X_15  0.07156863063573837)
(X_16  0.06372549384832382)
(X_17  0.07156863063573837)
(X_18  0.06372549384832382)
(X_19  0.05588235333561897)
(X_20  0.15980392694473267)
(X_21  0.17941176891326904)
(X_22  0.0990196168422699)
(X_23  0.0990196168422699)
(X_24  0.1872549057006836)
(X_25  0.17549020051956177)
(X_26  0.0676470622420311)
(X_27  0.16764706373214722)
(X_28  0.18333333730697632)
(X_29  0.1401960849761963)
(X_30  0.028431374579668045)
(X_31  0.13235294818878174)
(X_32  0.04803921654820442)
(X_33  0.12254902720451355)
(X_34  0.1774509847164154)
(X_35  0.1617647111415863)
(X_36  0.18137255311012268)
(X_37  0.1617647111415863)
(X_38  0.13823530077934265)
(X_39  0.11862745881080627)
(X_40  0.10686275362968445)
(X_41  0.09509804844856262)
(X_42  0.0833333432674408)
(X_43  0.07549020648002625)
(X_44  0.05588235333561897)
(X_45  0.05980392172932625)
(X_46  0.1715686321258545)
(X_47  0.07941177487373352)
(X_48  0.07156863063573837)
(X_49  0.0519607849419117)
(X_50  0.036274511367082596)
(X_51  0.03235294297337532)
(X_52  0.15980392694473267)
(X_53  0.17549020051956177)
(X_54  0.1872549057006836)
(X_55  0.1872549057006836)
(X_56  0.1401960849761963)
(X_57  0.05980392172932625)
(X_58  0.13823530077934265)
(X_59  0.2245098203420639)
(X_60  0.29901960492134094)
(X_61  0.3970588147640228)
(X_62  0.4598039388656616)
(X_63  0.4480392038822174)
(X_64  0.46764707565307617)
(X_65  0.4911764860153198)
(X_66  0.5068627595901489)
(X_67  0.48725491762161255)
(X_68  0.4205882251262665)
(X_69  0.3186274468898773)
(X_70  0.2245098203420639)
(X_71  0.1617647111415863)
(X_72  0.12647059559822083)
(X_73  0.09509804844856262)
(X_74  0.07549020648002625)
(X_75  0.07941177487373352)
(X_76  0.1715686321258545)
(X_77  0.16372549533843994)
(X_78  0.18333333730697632)
(X_79  0.22254902124404907)
(X_80  0.23039215803146362)
(X_81  0.2617647051811218)
(X_82  0.2970588207244873)
(X_83  0.30490198731422424)
(X_84  0.2852941155433655)
(X_85  0.2558823525905609)
(X_86  0.4696078598499298)
(X_87  0.5245097875595093)
(X_88  0.5088235139846802)
(X_89  0.5245097875595093)
(X_90  0.45588237047195435)
(X_91  0.44019606709480286)
(X_92  0.4205882251262665)
(X_93  0.4205882251262665)
(X_94  0.4166666567325592)
(X_95  0.4049019515514374)
(X_96  0.4009803831577301)
(X_97  0.5127450823783875)
(X_98  0.5441176295280457)
(X_99  0.5715686678886414)
(X_100  0.5284313559532166)
(X_101  0.47745099663734436)
(X_102  0.44607844948768616)
(X_103  0.45000001788139343)
(X_104  0.45000001788139343)
(X_105  0.34215685725212097)
(X_106  0.3735294044017792)
(X_107  0.42450979351997375)
(X_108  0.5676470994949341)
(X_109  0.4950980544090271)
(X_110  0.522549033164978)
(X_111  0.638235330581665)
(X_112  0.3813725411891937)
(X_113  0.3970588147640228)
(X_114  0.5245097875595093)
(X_115  0.49705883860588074)
(X_116  0.43039217591285706)
(X_117  0.32647058367729187)
(X_118  0.3539215624332428)
(X_119  0.34607842564582825)
(X_120  0.31470587849617004)
(X_121  0.3499999940395355)
(X_122  0.39313724637031555)
(X_123  0.41274508833885193)
(X_124  0.40882351994514465)
(X_125  0.3892156779766083)
(X_126  0.37745097279548645)
(X_127  0.3696078360080719)
(X_128  0.5284313559532166)
(X_129  0.5009803771972656)
(X_130  0.5009803771972656)
(X_131  0.5284313559532166)
(X_132  0.5362744927406311)
(X_133  0.5088235139846802)
(X_134  0.4852941334247589)
(X_135  0.4852941334247589)
(X_136  0.42843136191368103)
(X_137  0.4323529303073883)
(X_138  0.5362744927406311)
(X_139  0.5441176295280457)
(X_140  0.4735294282436371)
(X_141  0.4264706075191498)
(X_142  0.4068627655506134)
(X_143  0.39901962876319885)
(X_144  0.29509803652763367)
(X_145  0.33039215207099915)
(X_146  0.34607842564582825)
(X_147  0.40294119715690613)
(X_148  0.3754902184009552)
(X_149  0.3480392396450043)
(X_150  0.3127451241016388)
(X_151  0.2852941155433655)
(X_152  0.2970588207244873)
(X_153  0.3480392396450043)
(X_154  0.41470590233802795)
(X_155  0.46568629145622253)
(X_156  0.3499999940395355)
(X_157  0.3225490152835846)
(X_158  0.40294119715690613)
(X_159  0.4225490391254425)
(X_160  0.36176469922065735)
(X_161  0.3813725411891937)
(X_162  0.3656862676143646)
(X_163  0.4421568810939789)
(X_164  0.33039215207099915)
(X_165  0.3225490152835846)
(X_166  0.31470587849617004)
(X_167  0.41470590233802795)
(X_168  0.4068627655506134)
(X_169  0.3637255132198334)
(X_170  0.3558823764324188)
(X_171  0.3637255132198334)
(X_172  0.36764708161354065)
(X_173  0.29509803652763367)
(X_174  0.2754901945590973)
(X_175  0.20490197837352753)
(X_176  0.4107843339443207)
(X_177  0.3950980603694916)
(X_178  0.3754902184009552)
(X_179  0.35196080803871155)
(X_180  0.33235296607017517)
(X_181  0.3088235557079315)
(X_182  0.2852941155433655)
(X_183  0.2696078419685364)
(X_184  0.3715686500072479)
(X_185  0.3284313976764679)
(X_186  0.2696078419685364)
(X_187  0.24607843160629272)
(X_188  0.2088235467672348)
(X_189  0.2872548997402191)
(X_190  0.29509803652763367)
(X_191  0.35196080803871155)
(X_192  0.3637255132198334)
(X_193  0.3754902184009552)
(X_194  0.2911764681339264)
(X_195  0.29901960492134094)
(X_196  0.29509803652763367)
(X_197  0.28333333134651184)
(X_198  0.39901962876319885)
(X_199  0.39901962876319885)
(X_200  0.38333335518836975)
(X_201  0.41470590233802795)
(X_202  0.4382353127002716)
(X_203  0.4107843339443207)
(X_204  0.3284313976764679)
(X_205  0.3088235557079315)
(X_206  0.29313725233078003)
(X_207  0.30098041892051697)
(X_208  0.22058825194835663)
(X_209  0.24803923070430756)
(X_210  0.2598039209842682)
(X_211  0.26372548937797546)
(X_212  0.35196080803871155)
(X_213  0.3245098292827606)
(X_214  0.2617647051811218)
(X_215  0.22254902124404907)
(X_216  0.27352941036224365)
(X_217  0.33627453446388245)
(X_218  0.29313725233078003)
(X_219  0.19509804248809814)
(X_220  0.23039215803146362)
(X_221  0.16960784792900085)
(X_222  0.21274511516094208)
(X_223  0.33627453446388245)
(X_224  0.21274511516094208)
(X_225  0.1774509847164154)
(X_226  0.15784314274787903)
(X_227  0.2813725471496582)
(X_228  0.3284313976764679)
(X_229  0.2754901945590973)
(X_230  0.32647058367729187)
(X_231  0.36176469922065735)
(X_232  0.4421568810939789)
(X_233  0.3656862676143646)
(X_234  0.40294119715690613)
(X_235  0.24803923070430756)
(X_236  0.3068627417087555)
(X_237  0.34607842564582825)
(X_238  0.26372548937797546)
(X_239  0.1617647111415863)
(X_240  0.12254902720451355)
(X_241  0.2617647051811218)
(X_242  0.22647058963775635)
(X_243  0.2343137264251709)
(X_244  0.23039215803146362)
(X_245  0.2186274528503418)
(X_246  0.25784313678741455)
(X_247  0.1303921639919281)
(X_248  0.20098040997982025)
(X_249  0.1460784375667572)
(X_250  0.09117648005485535)
(X_251  0.0833333432674408)
(X_252  0.33039215207099915)
(X_253  0.3029411733150482)
(X_254  0.2872548997402191)
(X_255  0.3029411733150482)
(X_256  0.41862747073173523)
(X_257  0.4225490391254425)
(X_258  0.4264706075191498)
(X_259  0.43431374430656433)
(X_260  0.36176469922065735)
(X_261  0.3813725411891937)
(X_262  0.44607844948768616)
(X_263  0.4264706075191498)
(X_264  0.5009803771972656)
(X_265  0.5401960611343384)
(X_266  0.385294109582901)
(X_267  0.3186274468898773)
(X_268  0.2872548997402191)
(X_269  0.31078431010246277)
(X_270  0.3480392396450043)
(X_271  0.32058826088905334)
(X_272  0.3088235557079315)
(X_273  0.344117671251297)
(X_274  0.46568629145622253)
(X_275  0.4009803831577301)
(X_276  0.31666669249534607)
(X_277  0.2656862735748291)
(X_278  0.11862745881080627)
(X_279  0.11078432202339172)
(X_280  0.3029411733150482)
(X_281  0.3950980603694916)
(X_282  0.4068627655506134)
(X_283  0.3382352888584137)
(X_284  0.34607842564582825)
(X_285  0.41862747073173523)
(X_286  0.38333335518836975)
(X_287  0.3637255132198334)
(X_288  0.28333333134651184)
(X_289  0.3029411733150482)
(X_290  0.2872548997402191)
(X_291  0.3029411733150482)
(X_292  0.48137256503105164)
(X_293  0.41274508833885193)
(X_294  0.3813725411891937)
(X_295  0.36176469922065735)
(X_296  0.3813725411891937)
(X_297  0.44411763548851013)
(X_298  0.42450979351997375)
(X_299  0.5127450823783875)
(X_300  0.4852941334247589)
(X_301  0.49313727021217346)
(X_302  0.6029412150382996)
(X_303  0.5382353067398071)
(X_304  0.3499999940395355)
(X_305  0.4107843339443207)
(X_306  0.2754901945590973)
(X_307  0.27941176295280457)
(X_308  0.3127451241016388)
(X_309  0.32058826088905334)
(X_310  0.24803923070430756)
(X_311  0.2911764681339264)
(X_312  0.29901960492134094)
(X_313  0.3598039448261261)
(X_314  0.3088235557079315)
(X_315  0.2774509787559509)
(X_316  0.25784313678741455)
(X_317  0.2656862735748291)
(X_318  0.2617647051811218)
(X_319  0.29313725233078003)
(X_320  0.35196080803871155)
(X_321  0.2558823525905609)
(X_322  0.23235295712947845)
(X_323  0.25196078419685364)
(X_324  0.36764708161354065)
(X_325  0.3539215624332428)
(X_326  0.46568629145622253)
(X_327  0.4735294282436371)
(X_328  0.43431374430656433)
(X_329  0.39901962876319885)
(X_330  0.45000001788139343)
(X_331  0.44607844948768616)
(X_332  0.31470587849617004)
(X_333  0.2872548997402191)
(X_334  0.27156862616539)
(X_335  0.2872548997402191)
(X_336  0.2088235467672348)
(X_337  0.30490198731422424)
(X_338  0.32058826088905334)
(X_339  0.3480392396450043)
(X_340  0.3480392396450043)
(X_341  0.30098041892051697)
(X_342  0.1460784375667572)
(X_343  0.114705890417099)
(X_344  0.21470588445663452)
(X_345  0.2186274528503418)
(X_346  0.10686275362968445)
(X_347  0.1303921639919281)
(X_348  0.17352941632270813)
(X_349  0.15784314274787903)
(X_350  0.13823530077934265)
(X_351  0.27352941036224365)
(X_352  0.28921568393707275)
(X_353  0.3401961028575897)
(X_354  0.3127451241016388)
(X_355  0.3127451241016388)
(X_356  0.29313725233078003)
(X_357  0.27352941036224365)
(X_358  0.3245098292827606)
(X_359  0.3127451241016388)
(X_360  0.27352941036224365)
(X_361  0.25)
(X_362  0.1460784375667572)
(X_363  0.16568627953529358)
(X_364  0.16568627953529358)
(X_365  0.15000000596046448)
(X_366  0.15392157435417175)
(X_367  0.27352941036224365)
(X_368  0.27352941036224365)
(X_369  0.23823529481887817)
(X_370  0.10294118523597717)
(X_371  0.0833333432674408)
(X_372  0.21470588445663452)
(X_373  0.12254902720451355)
(X_374  0.11078432202339172)
(X_375  0.12254902720451355)
(X_376  0.15784314274787903)
(X_377  0.15000000596046448)
(X_378  0.1303921639919281)
(X_379  0.15392157435417175)
(X_380  0.2656862735748291)
(X_381  0.30098041892051697)
(X_382  0.2696078419685364)
(X_383  0.2813725471496582)
(X_384  0.18921568989753723)
(X_385  0.18921568989753723)
(X_386  0.33235296607017517)
(X_387  0.30490198731422424)
(X_388  0.25)
(X_389  0.23039215803146362)
(X_390  0.22254902124404907)
(X_391  0.2343137264251709)
(X_392  0.18333333730697632)
(X_393  0.16372549533843994)
(X_394  0.15980392694473267)
(X_395  0.0833333432674408)
(X_396  0.19509804248809814)
(X_397  0.18333333730697632)
(X_398  0.16764706373214722)
(X_399  0.16372549533843994)
(X_400  0.0833333432674408)
(X_401  0.10294118523597717)
(X_402  0.0833333432674408)
(X_403  0.17941176891326904)
(X_404  0.2186274528503418)
(X_405  0.22647058963775635)
(X_406  0.10686275362968445)
(X_407  0.11078432202339172)
(X_408  0.07549020648002625)
(X_409  0.12254902720451355)
(X_410  0.11078432202339172)
(X_411  0.23823529481887817)
(X_412  0.25)
(X_413  0.23823529481887817)
(X_414  0.2656862735748291)
(X_415  0.22647058963775635)
(X_416  0.13431373238563538)
(X_417  0.114705890417099)
(X_418  0.10686275362968445)
(X_419  0.114705890417099)
(X_420  0.07549020648002625)
(X_421  0.0519607849419117)
(X_422  0.04019607976078987)
(X_423  0.05588235333561897)
(X_424  0.0676470622420311)
(X_425  0.05588235333561897)
(X_426  0.14411765336990356)
(X_427  0.14411765336990356)
(X_428  0.1401960849761963)
(X_429  0.16764706373214722)
(X_430  0.04411764815449715)
(X_431  0.02450980618596077)
(X_432  0.0676470622420311)
(X_433  0.08725491166114807)
(X_434  0.06372549384832382)
(X_435  0.0519607849419117)
(X_436  0.16372549533843994)
(X_437  0.2029411792755127)
(X_438  0.16764706373214722)
(X_439  0.1715686321258545)
(X_440  0.16372549533843994)
(X_441  0.1558823585510254)
(X_442  0.10294118523597717)
(X_443  0.0833333432674408)
(X_444  0.10294118523597717)
(X_445  0.08725491166114807)
(X_446  0.07941177487373352)
(X_447  0.19117647409439087)
(X_448  0.1401960849761963)
(X_449  0.14411765336990356)
(X_450  0.04803921654820442)
(X_451  0.15196079015731812)
(X_452  0.0519607849419117)
(X_453  0.0519607849419117)
(X_454  0.0519607849419117)
(X_455  0.15196079015731812)
(X_456  0.1401960849761963)
(X_457  0.1401960849761963)
(X_458  0.14411765336990356)
(X_459  0.14411765336990356)
(X_460  0.04411764815449715)
(X_461  0.04803921654820442)
(X_462  0.04803921654820442)
(X_463  0.04803921654820442)
(X_464  0.04803921654820442)
(X_465  0.04803921654820442)
(X_466  0.14803922176361084)
(X_467  0.14803922176361084)
(X_468  0.14803922176361084)
(X_469  0.14803922176361084)
(X_470  0.14803922176361084)
(X_471  0.14803922176361084)
(X_472  0.15980392694473267)
(X_473  0.1558823585510254)
(X_474  0.1558823585510254)
(X_475  0.1558823585510254)
(X_476  0.03235294297337532)
(X_477  0.136274516582489)
(X_478  0.136274516582489)
(X_479  0.1401960849761963)
(X_480  0.04411764815449715)
(X_481  0.04411764815449715)
(X_482  0.04019607976078987)
(X_483  0.1401960849761963)
(X_484  0.13235294818878174)
(X_485  0.13235294818878174)
(X_486  0.03235294297337532)
(X_487  0.036274511367082596)
(X_488  0.036274511367082596)
(X_489  0.036274511367082596)
(X_490  0.04019607976078987)
(X_491  0.04019607976078987)
(X_492  0.04019607976078987)
(X_493  0.04019607976078987)
(X_494  0.04019607976078987)
(X_495  0.1401960849761963)
(X_496  0.1401960849761963)
(X_497  0.1401960849761963)
(X_498  0.1401960849761963)
(X_499  0.04019607976078987)
(X_500  0.14411765336990356)
(X_501  0.04411764815449715)
(X_502  0.04411764815449715)
(X_503  0.04019607976078987)
(X_504  0.020588237792253494)
(X_505  0.020588237792253494)
(X_506  0.02450980618596077)
(X_507  0.028431374579668045)
(X_508  0.03235294297337532)
(X_509  0.03235294297337532)
(X_510  0.12843137979507446)
(X_511  0.12843137979507446)
(X_512  0.020588237792253494)
(X_513  0.12058823555707932)
(X_514  0.12450980395078659)
(X_515  0.02450980618596077)
(X_516  0.02450980618596077)
(X_517  0.028431374579668045)
(X_518  0.028431374579668045)
(X_519  0.028431374579668045)
(X_520  0.028431374579668045)
(X_521  0.028431374579668045)
(X_522  0.028431374579668045)
(X_523  0.028431374579668045)
(X_524  0.028431374579668045)
(X_525  0.12843137979507446)
(X_526  0.12843137979507446)
(X_527  0.12843137979507446)
(X_528  0.028431374579668045)
(X_529  0.028431374579668045)
(X_530  0.028431374579668045)
(X_531  0.02450980618596077)
(X_532  0.11274509876966476)
(X_533  0.11666666716337204)
(X_534  0.12058823555707932)
(X_535  0.12450980395078659)
(X_536  0.02450980618596077)
(X_537  0.02450980618596077)
(X_538  0.02450980618596077)
(X_539  0.12058823555707932)
(X_540  0.01666666939854622)
(X_541  0.01666666939854622)
(X_542  0.11666666716337204)
(X_543  0.12058823555707932)
(X_544  0.020588237792253494)
(X_545  0.020588237792253494)
(X_546  0.02450980618596077)
(X_547  0.02450980618596077)
(X_548  0.12058823555707932)
(X_549  0.12058823555707932)
(X_550  0.12058823555707932)
(X_551  0.12058823555707932)
(X_552  0.12058823555707932)
(X_553  0.12058823555707932)
(X_554  0.020588237792253494)
(X_555  0.020588237792253494)
(X_556  0.12058823555707932)
(X_557  0.020588237792253494)
(X_558  0.01666666939854622)
(X_559  0.11666666716337204)
(X_560  0.11274509876966476)
(X_561  0.11274509876966476)
(X_562  0.01666666939854622)
(X_563  0.020588237792253494)
(X_564  0.02450980618596077)
(X_565  0.02450980618596077)
(X_566  0.020588237792253494)
(X_567  0.020588237792253494)
(X_568  0.11666666716337204)
(X_569  0.11666666716337204)
(X_570  0.11666666716337204)
(X_571  0.12058823555707932)
(X_572  0.020588237792253494)
(X_573  0.02450980618596077)
(X_574  0.02450980618596077)
(X_575  0.02450980618596077)
(X_576  0.020588237792253494)
(X_577  0.020588237792253494)
(X_578  0.12058823555707932)
(X_579  0.12058823555707932)
(X_580  0.12058823555707932)
(X_581  0.12058823555707932)
(X_582  0.12058823555707932)
(X_583  0.12058823555707932)
(X_584  0.12058823555707932)
(X_585  0.01666666939854622)
(X_586  0.01666666939854622)
(X_587  0.01666666939854622)
(X_588  0.11274509876966476)
(X_589  0.012745101936161518)
(X_590  0.01666666939854622)
(X_591  0.020588237792253494)
(X_592  0.020588237792253494)
(X_593  0.020588237792253494)
(X_594  0.020588237792253494)
(X_595  0.12058823555707932)
(X_596  0.11666666716337204)
(X_597  0.11666666716337204)
(X_598  0.11666666716337204)
(X_599  0.12058823555707932)
(X_600  0.020588237792253494)
(X_601  0.02450980618596077)
(X_602  0.02450980618596077)
(X_603  0.02450980618596077)
(X_604  0.11666666716337204)
(X_605  0.11666666716337204)
(X_606  0.11666666716337204)
(X_607  0.11666666716337204)
(X_608  0.11666666716337204)
(X_609  0.11666666716337204)
(X_610  0.11666666716337204)
(X_611  0.11666666716337204)
(X_612  0.020588237792253494)
(X_613  0.020588237792253494)
(X_614  0.01666666939854622)
(X_615  0.11666666716337204)
(X_616  0.10490196198225021)
(X_617  0.008823529817163944)
(X_618  0.012745101936161518)
(X_619  0.01666666939854622)
(X_620  0.01666666939854622)
(X_621  0.11666666716337204)
(X_622  0.11666666716337204)
(X_623  0.11274509876966476)
(X_624  0.11274509876966476)
(X_625  0.11274509876966476)
(X_626  0.11274509876966476)
(X_627  0.11666666716337204)
(X_628  0.01666666939854622)
(X_629  0.020588237792253494)
(X_630  0.020588237792253494)
(X_631  0.12058823555707932)
(X_632  0.012745101936161518)
(X_633  0.012745101936161518)
(X_634  0.012745101936161518)
(X_635  0.012745101936161518)
(X_636  0.012745101936161518)
(X_637  0.11274509876966476)
(X_638  0.11274509876966476)
(X_639  0.11274509876966476)
(X_640  0.020588237792253494)
(X_641  0.020588237792253494)
(X_642  0.11666666716337204)
(X_643  0.11666666716337204)
(X_644  0.0009803927969187498)
(X_645  0.004901961423456669)
(X_646  0.10882353037595749)
(X_647  0.11274509876966476)
(X_648  0.11274509876966476)
(X_649  0.11274509876966476)
(X_650  0.008823529817163944)
(X_651  0.10882353037595749)
(X_652  0.10882353037595749)
(X_653  0.10882353037595749)
(X_654  0.008823529817163944)
(X_655  0.012745101936161518)
(X_656  0.012745101936161518)
(X_657  0.01666666939854622)
(X_658  0.01666666939854622)
(X_659  0.01666666939854622)
(X_660  0.10882353037595749)
(X_661  0.10882353037595749)
(X_662  0.10882353037595749)
(X_663  0.10882353037595749)
(X_664  0.008823529817163944)
(X_665  0.008823529817163944)
(X_666  0.008823529817163944)
(X_667  0.008823529817163944)
(X_668  0.01666666939854622)
(X_669  0.01666666939854622)
(X_670  0.01666666939854622)
(X_671  0.012745101936161518)
(X_672  0.33627453446388245)
(X_673  0.2245098203420639)
(X_674  0.20490197837352753)
(X_675  0.1774509847164154)
(X_676  0.15000000596046448)
(X_677  0.22647058963775635)
(X_678  0.20686274766921997)
(X_679  0.19509804248809814)
(X_680  0.16764706373214722)
(X_681  0.16372549533843994)
(X_682  0.15980392694473267)
(X_683  0.15196079015731812)
(X_684  0.1401960849761963)
(X_685  0.13235294818878174)
(X_686  0.028431374579668045)
(X_687  0.02450980618596077)
(X_688  0.12058823555707932)
(X_689  0.11666666716337204)
(X_690  0.01666666939854622)
(X_691  0.012745101936161518)
(X_692  0.10882353037595749)
(X_693  0.008823529817163944)
(X_694  0.004901961423456669)
(X_695  0.004901961423456669)
(X_696  0.11274509876966476)
(X_697  0.10490196198225021)
(X_698  0.10098039358854294)
(X_699  -0.0029411755967885256)
(X_700  0.8990195989608765)
(X_701  0.8950980305671692)
(X_702  0.8794117569923401)
(X_703  0.863725483417511)
(X_704  0.8441176414489746)
(X_705  0.9284313917160034)
(X_706  0.8166666626930237)
(X_707  0.8088235259056091)
(X_708  0.79313725233078)
(X_709  0.7774509787559509)
(X_710  0.75)
(X_711  0.8186274766921997)
(X_712  0.779411792755127)
(X_713  0.6441176533699036)
(X_714  0.6205882430076599)
(X_715  0.6049019694328308)
(X_716  0.638235330581665)
(X_717  0.6225490570068359)
(X_718  0.4950980544090271)
(X_719  0.45588237047195435)
(X_720  0.4166666567325592)
(X_721  0.37745097279548645)
(X_722  0.3499999940395355)
(X_723  0.43431374430656433)
(X_724  0.35196080803871155)
(X_725  0.344117671251297)
(X_726  0.33235296607017517)
(X_727  0.32058826088905334)
(X_728  1.0499999523162842)
(X_729  0.949999988079071)
(X_730  1.0499999523162842)
(X_731  1.0499999523162842)
(X_732  1.0499999523162842)
(X_733  1.0460784435272217)
(X_734  1.0421568155288696)
(X_735  1.0382353067398071)
(X_736  1.0460784435272217)
(X_737  1.0460784435272217)
(X_738  0.9460784196853638)
(X_739  0.9460784196853638)
(X_740  1.0460784435272217)
(X_741  0.9460784196853638)
(X_742  0.9460784196853638)
(X_743  0.9460784196853638)
(X_744  0.949999988079071)
(X_745  0.949999988079071)
(X_746  1.0499999523162842)
(X_747  0.949999988079071)
(X_748  1.0499999523162842)
(X_749  1.0460784435272217)
(X_750  0.9421568512916565)
(X_751  1.0382353067398071)
(X_752  1.0421568155288696)
(X_753  1.034313678741455)
(X_754  1.022549033164978)
(X_755  1.006862759590149)
(X_756  1.0499999523162842)
(X_757  1.0499999523162842)
(X_758  1.0499999523162842)
(X_759  0.949999988079071)
(X_760  0.949999988079071)
(X_761  0.949999988079071)
(X_762  1.0499999523162842)
(X_763  1.0499999523162842)
(X_764  0.9421568512916565)
(X_765  1.0421568155288696)
(X_766  0.9421568512916565)
(X_767  0.9421568512916565)
(X_768  0.9421568512916565)
(X_769  0.9421568512916565)
(X_770  0.9421568512916565)
(X_771  0.9421568512916565)
(X_772  0.9421568512916565)
(X_773  0.9421568512916565)
(X_774  0.9460784196853638)
(X_775  0.9460784196853638)
(X_776  0.949999988079071)
(X_777  0.949999988079071)
(X_778  0.949999988079071)
(X_779  0.949999988079071)
(X_780  0.9460784196853638)
(X_781  0.9421568512916565)
(X_782  0.9382352828979492)
(X_783  0.9343137145042419)
(Y_0 -12.2440824508667)
(Y_1 23.77556610107422)
(Y_2 -9.095011711120605)
(Y_3 2.5702052116394043))