((X_0  1.0499999523162842)
(X_1  0.949999988079071)
(X_2  0.9460784196853638)
(X_3  0.9382352828979492)
(X_4  0.9343137145042419)
(X_5  0.9421568512916565)
(X_6  0.949999988079071)
(X_7  0.949999988079071)
(X_8  1.0499999523162842)
(X_9  1.0499999523162842)
(X_10  1.0499999523162842)
(X_11  1.0499999523162842)
(X_12  1.0499999523162842)
(X_13  1.0499999523162842)
(X_14  1.0499999523162842)
(X_15  0.949999988079071)
(X_16  0.949999988079071)
(X_17  0.9460784196853638)
(X_18  0.9421568512916565)
(X_19  0.9421568512916565)
(X_20  1.0460784435272217)
(X_21  1.0499999523162842)
(X_22  1.0499999523162842)
(X_23  1.0499999523162842)
(X_24  1.0382353067398071)
(X_25  0.9421568512916565)
(X_26  0.9421568512916565)
(X_27  1.0460784435272217)
(X_28  1.022549033164978)
(X_29  0.9343137145042419)
(X_30  0.949999988079071)
(X_31  0.949999988079071)
(X_32  0.949999988079071)
(X_33  0.949999988079071)
(X_34  1.0499999523162842)
(X_35  1.0460784435272217)
(X_36  1.0421568155288696)
(X_37  0.9421568512916565)
(X_38  0.9460784196853638)
(X_39  0.9460784196853638)
(X_40  0.9421568512916565)
(X_41  1.0382353067398071)
(X_42  1.0303921699523926)
(X_43  0.9264705777168274)
(X_44  1.0499999523162842)
(X_45  1.0499999523162842)
(X_46  1.0499999523162842)
(X_47  1.0499999523162842)
(X_48  1.0499999523162842)
(X_49  0.949999988079071)
(X_50  0.949999988079071)
(X_51  0.949999988079071)
(X_52  1.0499999523162842)
(X_53  0.949999988079071)
(X_54  0.949999988079071)
(X_55  1.0499999523162842)
(X_56  0.5049019455909729)
(X_57  0.45196080207824707)
(X_58  0.5343137383460999)
(X_59  0.6323529481887817)
(X_60  0.7186274528503418)
(X_61  0.7852941155433655)
(X_62  0.8245097994804382)
(X_63  0.8441176414489746)
(X_64  1.0264705419540405)
(X_65  0.9303921461105347)
(X_66  0.9382352828979492)
(X_67  1.0499999523162842)
(X_68  1.0499999523162842)
(X_69  0.949999988079071)
(X_70  0.949999988079071)
(X_71  1.0499999523162842)
(X_72  0.9421568512916565)
(X_73  0.9421568512916565)
(X_74  0.9421568512916565)
(X_75  0.9421568512916565)
(X_76  0.9382352828979492)
(X_77  1.034313678741455)
(X_78  0.9303921461105347)
(X_79  1.0264705419540405)
(X_80  1.0499999523162842)
(X_81  1.0421568155288696)
(X_82  0.9382352828979492)
(X_83  1.0303921699523926)
(X_84  0.14411765336990356)
(X_85  0.15196079015731812)
(X_86  0.16372549533843994)
(X_87  0.17941176891326904)
(X_88  0.2029411792755127)
(X_89  0.12647059559822083)
(X_90  0.24607843160629272)
(X_91  0.2617647051811218)
(X_92  0.3401961028575897)
(X_93  0.26372548937797546)
(X_94  0.3068627417087555)
(X_95  0.3656862676143646)
(X_96  0.5245097875595093)
(X_97  0.5833333730697632)
(X_98  0.6225490570068359)
(X_99  0.6460784673690796)
(X_100  0.7127451300621033)
(X_101  0.7205882668495178)
(X_102  0.7284314036369324)
(X_103  0.7401961088180542)
(X_104  0.6441176533699036)
(X_105  0.6441176533699036)
(X_106  0.6441176533699036)
(X_107  0.6401960849761963)
(X_108  0.6245098114013672)
(X_109  0.6205882430076599)
(X_110  0.6088235378265381)
(X_111  0.6970588564872742)
(X_112  0.028431374579668045)
(X_113  0.12450980395078659)
(X_114  0.11274509876966476)
(X_115  0.11274509876966476)
(X_116  0.020588237792253494)
(X_117  0.04019607976078987)
(X_118  0.06372549384832382)
(X_119  0.07941177487373352)
(X_120  0.06372549384832382)
(X_121  0.05980392172932625)
(X_122  0.0519607849419117)
(X_123  0.04411764815449715)
(X_124  0.036274511367082596)
(X_125  0.028431374579668045)
(X_126  0.02450980618596077)
(X_127  0.12058823555707932)
(X_128  0.12450980395078659)
(X_129  0.12843137979507446)
(X_130  0.13235294818878174)
(X_131  0.1401960849761963)
(X_132  0.1401960849761963)
(X_133  0.136274516582489)
(X_134  0.13235294818878174)
(X_135  0.12843137979507446)
(X_136  0.16372549533843994)
(X_137  0.05588235333561897)
(X_138  0.04411764815449715)
(X_139  0.136274516582489)
(X_140  0.1872549057006836)
(X_141  0.18333333730697632)
(X_142  0.1715686321258545)
(X_143  0.05980392172932625)
(X_144  0.04411764815449715)
(X_145  0.03235294297337532)
(X_146  0.02450980618596077)
(X_147  0.12058823555707932)
(X_148  0.10882353037595749)
(X_149  0.10882353037595749)
(X_150  0.11274509876966476)
(X_151  0.11666666716337204)
(X_152  0.12450980395078659)
(X_153  0.136274516582489)
(X_154  0.14411765336990356)
(X_155  0.14803922176361084)
(X_156  0.15980392694473267)
(X_157  0.15980392694473267)
(X_158  0.15980392694473267)
(X_159  0.1558823585510254)
(X_160  0.14803922176361084)
(X_161  0.04411764815449715)
(X_162  0.036274511367082596)
(X_163  0.13235294818878174)
(X_164  0.16372549533843994)
(X_165  0.05588235333561897)
(X_166  0.0519607849419117)
(X_167  0.14411765336990356)
(X_168  0.012745101936161518)
(X_169  0.11666666716337204)
(X_170  0.02450980618596077)
(X_171  0.12843137979507446)
(X_172  0.13235294818878174)
(X_173  0.03235294297337532)
(X_174  0.03235294297337532)
(X_175  0.03235294297337532)
(X_176  0.14803922176361084)
(X_177  0.14411765336990356)
(X_178  0.036274511367082596)
(X_179  0.12843137979507446)
(X_180  0.12843137979507446)
(X_181  0.028431374579668045)
(X_182  0.028431374579668045)
(X_183  0.03235294297337532)
(X_184  0.12843137979507446)
(X_185  0.12843137979507446)
(X_186  0.13235294818878174)
(X_187  0.1401960849761963)
(X_188  0.14803922176361084)
(X_189  0.1558823585510254)
(X_190  0.16372549533843994)
(X_191  0.16764706373214722)
(X_192  0.1401960849761963)
(X_193  0.1401960849761963)
(X_194  0.04019607976078987)
(X_195  0.04019607976078987)
(X_196  0.036274511367082596)
(X_197  0.13235294818878174)
(X_198  0.02450980618596077)
(X_199  0.020588237792253494)
(X_200  0.02450980618596077)
(X_201  0.036274511367082596)
(X_202  0.04411764815449715)
(X_203  0.0519607849419117)
(X_204  0.02450980618596077)
(X_205  0.020588237792253494)
(X_206  0.11666666716337204)
(X_207  0.11666666716337204)
(X_208  0.020588237792253494)
(X_209  0.028431374579668045)
(X_210  0.036274511367082596)
(X_211  0.1401960849761963)
(X_212  0.15196079015731812)
(X_213  0.15980392694473267)
(X_214  0.07941177487373352)
(X_215  0.10294118523597717)
(X_216  0.13823530077934265)
(X_217  0.17352941632270813)
(X_218  0.30098041892051697)
(X_219  0.31666669249534607)
(X_220  0.38333335518836975)
(X_221  0.38333335518836975)
(X_222  0.2872548997402191)
(X_223  0.2911764681339264)
(X_224  0.028431374579668045)
(X_225  0.12843137979507446)
(X_226  0.136274516582489)
(X_227  0.14411765336990356)
(X_228  0.04803921654820442)
(X_229  0.036274511367082596)
(X_230  0.01666666939854622)
(X_231  -0.0029411755967885256)
(X_232  0.1401960849761963)
(X_233  0.028431374579668045)
(X_234  0.01666666939854622)
(X_235  0.12450980395078659)
(X_236  0.05588235333561897)
(X_237  0.10686275362968445)
(X_238  0.15784314274787903)
(X_239  0.18921568989753723)
(X_240  0.27941176295280457)
(X_241  0.41862747073173523)
(X_242  0.4421568810939789)
(X_243  0.4421568810939789)
(X_244  0.457843154668808)
(X_245  0.49313727021217346)
(X_246  0.49705883860588074)
(X_247  0.4696078598499298)
(X_248  0.4049019515514374)
(X_249  0.41274508833885193)
(X_250  0.4205882251262665)
(X_251  0.5245097875595093)
(X_252  0.05980392172932625)
(X_253  0.04019607976078987)
(X_254  0.01666666939854622)
(X_255  0.10098039358854294)
(X_256  0.10490196198225021)
(X_257  0.12843137979507446)
(X_258  0.15196079015731812)
(X_259  0.16764706373214722)
(X_260  0.05588235333561897)
(X_261  0.09117648005485535)
(X_262  0.1460784375667572)
(X_263  0.2088235467672348)
(X_264  0.26764705777168274)
(X_265  0.3186274468898773)
(X_266  0.457843154668808)
(X_267  0.47745099663734436)
(X_268  0.45000001788139343)
(X_269  0.46568629145622253)
(X_270  0.4696078598499298)
(X_271  0.36176469922065735)
(X_272  0.3656862676143646)
(X_273  0.4735294282436371)
(X_274  0.4696078598499298)
(X_275  0.457843154668808)
(X_276  0.46568629145622253)
(X_277  0.3696078360080719)
(X_278  0.3735294044017792)
(X_279  0.3696078360080719)
(X_280  0.3558823764324188)
(X_281  0.3245098292827606)
(X_282  0.1774509847164154)
(X_283  0.1303921639919281)
(X_284  0.10686275362968445)
(X_285  0.2186274528503418)
(X_286  0.24607843160629272)
(X_287  0.27352941036224365)
(X_288  0.3598039448261261)
(X_289  0.2911764681339264)
(X_290  0.3343137204647064)
(X_291  0.3578431308269501)
(X_292  0.3539215624332428)
(X_293  0.3382352888584137)
(X_294  0.3225490152835846)
(X_295  0.41470590233802795)
(X_296  0.4264706075191498)
(X_297  0.31470587849617004)
(X_298  0.31470587849617004)
(X_299  0.32647058367729187)
(X_300  0.43431374430656433)
(X_301  0.43431374430656433)
(X_302  0.44607844948768616)
(X_303  0.36176469922065735)
(X_304  0.3578431308269501)
(X_305  0.36176469922065735)
(X_306  0.3656862676143646)
(X_307  0.36176469922065735)
(X_308  0.6343137621879578)
(X_309  0.6186274886131287)
(X_310  0.5911765098571777)
(X_311  0.45196080207824707)
(X_312  0.4166666567325592)
(X_313  0.39313724637031555)
(X_314  0.3892156779766083)
(X_315  0.39313724637031555)
(X_316  0.4225490391254425)
(X_317  0.4382353127002716)
(X_318  0.45000001788139343)
(X_319  0.44607844948768616)
(X_320  0.33039215207099915)
(X_321  0.31470587849617004)
(X_322  0.31470587849617004)
(X_323  0.3225490152835846)
(X_324  0.3696078360080719)
(X_325  0.3382352888584137)
(X_326  0.33039215207099915)
(X_327  0.3539215624332428)
(X_328  0.46568629145622253)
(X_329  0.46176472306251526)
(X_330  0.48137256503105164)
(X_331  0.5245097875595093)
(X_332  0.5049019455909729)
(X_333  0.41274508833885193)
(X_334  0.42450979351997375)
(X_335  0.42843136191368103)
(X_336  0.4421568810939789)
(X_337  0.45000001788139343)
(X_338  0.46176472306251526)
(X_339  0.3656862676143646)
(X_340  0.3578431308269501)
(X_341  0.44607844948768616)
(X_342  0.4382353127002716)
(X_343  0.33039215207099915)
(X_344  0.4107843339443207)
(X_345  0.41470590233802795)
(X_346  0.41862747073173523)
(X_347  0.3186274468898773)
(X_348  0.3186274468898773)
(X_349  0.33039215207099915)
(X_350  0.3578431308269501)
(X_351  0.47745099663734436)
(X_352  0.47745099663734436)
(X_353  0.43431374430656433)
(X_354  0.31078431010246277)
(X_355  0.31470587849617004)
(X_356  0.3068627417087555)
(X_357  0.38333335518836975)
(X_358  0.3950980603694916)
(X_359  0.43039217591285706)
(X_360  0.387254923582077)
(X_361  0.29901960492134094)
(X_362  0.31470587849617004)
(X_363  0.3225490152835846)
(X_364  0.3480392396450043)
(X_365  0.35196080803871155)
(X_366  0.3558823764324188)
(X_367  0.3754902184009552)
(X_368  0.2911764681339264)
(X_369  0.3029411733150482)
(X_370  0.3029411733150482)
(X_371  0.29509803652763367)
(X_372  0.3186274468898773)
(X_373  0.31078431010246277)
(X_374  0.40294119715690613)
(X_375  0.3911764919757843)
(X_376  0.3754902184009552)
(X_377  0.2598039209842682)
(X_378  0.24411766231060028)
(X_379  0.23627452552318573)
(X_380  0.2245098203420639)
(X_381  0.2970588207244873)
(X_382  0.27352941036224365)
(X_383  0.2617647051811218)
(X_384  0.1460784375667572)
(X_385  0.1303921639919281)
(X_386  0.13431373238563538)
(X_387  0.1460784375667572)
(X_388  0.21470588445663452)
(X_389  0.12254902720451355)
(X_390  0.13431373238563538)
(X_391  0.13823530077934265)
(X_392  0.41862747073173523)
(X_393  0.29901960492134094)
(X_394  0.3794117867946625)
(X_395  0.3794117867946625)
(X_396  0.3950980603694916)
(X_397  0.39901962876319885)
(X_398  0.28333333134651184)
(X_399  0.26372548937797546)
(X_400  0.2245098203420639)
(X_401  0.21274511516094208)
(X_402  0.20490197837352753)
(X_403  0.30098041892051697)
(X_404  0.2970588207244873)
(X_405  0.2813725471496582)
(X_406  0.1460784375667572)
(X_407  0.11862745881080627)
(X_408  0.20686274766921997)
(X_409  0.21078431606292725)
(X_410  0.2029411792755127)
(X_411  0.18333333730697632)
(X_412  0.17941176891326904)
(X_413  0.08725491166114807)
(X_414  0.1872549057006836)
(X_415  0.17941176891326904)
(X_416  0.07549020648002625)
(X_417  0.0833333432674408)
(X_418  0.09117648005485535)
(X_419  0.09117648005485535)
(X_420  0.3539215624332428)
(X_421  0.32647058367729187)
(X_422  0.39901962876319885)
(X_423  0.29901960492134094)
(X_424  0.3068627417087555)
(X_425  0.29509803652763367)
(X_426  0.2558823525905609)
(X_427  0.31666669249534607)
(X_428  0.20490197837352753)
(X_429  0.2774509787559509)
(X_430  0.15000000596046448)
(X_431  0.14215686917304993)
(X_432  0.14215686917304993)
(X_433  0.12647059559822083)
(X_434  0.08725491166114807)
(X_435  0.05588235333561897)
(X_436  0.15980392694473267)
(X_437  0.18333333730697632)
(X_438  0.17941176891326904)
(X_439  0.04803921654820442)
(X_440  0.04411764815449715)
(X_441  0.05980392172932625)
(X_442  0.05588235333561897)
(X_443  0.028431374579668045)
(X_444  0.036274511367082596)
(X_445  0.04411764815449715)
(X_446  0.0519607849419117)
(X_447  0.1558823585510254)
(X_448  0.25)
(X_449  0.14215686917304993)
(X_450  0.1303921639919281)
(X_451  0.12647059559822083)
(X_452  0.14215686917304993)
(X_453  0.17352941632270813)
(X_454  0.21274511516094208)
(X_455  0.23235295712947845)
(X_456  0.28921568393707275)
(X_457  0.2813725471496582)
(X_458  0.2617647051811218)
(X_459  0.24215686321258545)
(X_460  0.21470588445663452)
(X_461  0.19117647409439087)
(X_462  0.07549020648002625)
(X_463  0.06372549384832382)
(X_464  0.04019607976078987)
(X_465  0.04411764815449715)
(X_466  0.04803921654820442)
(X_467  0.05588235333561897)
(X_468  0.16372549533843994)
(X_469  0.1715686321258545)
(X_470  0.17549020051956177)
(X_471  0.17941176891326904)
(X_472  0.21078431606292725)
(X_473  0.21078431606292725)
(X_474  0.21470588445663452)
(X_475  0.21470588445663452)
(X_476  0.1617647111415863)
(X_477  0.15392157435417175)
(X_478  0.25)
(X_479  0.2539215683937073)
(X_480  0.16568627953529358)
(X_481  0.1931372582912445)
(X_482  0.22058825194835663)
(X_483  0.23627452552318573)
(X_484  0.30490198731422424)
(X_485  0.2970588207244873)
(X_486  0.2852941155433655)
(X_487  0.16960784792900085)
(X_488  0.2539215683937073)
(X_489  0.23823529481887817)
(X_490  0.22647058963775635)
(X_491  0.2186274528503418)
(X_492  0.12647059559822083)
(X_493  0.22254902124404907)
(X_494  0.22254902124404907)
(X_495  0.22254902124404907)
(X_496  0.2186274528503418)
(X_497  0.2186274528503418)
(X_498  0.21470588445663452)
(X_499  0.114705890417099)
(X_500  0.19117647409439087)
(X_501  0.09509804844856262)
(X_502  0.19509804248809814)
(X_503  0.19509804248809814)
(X_504  0.23039215803146362)
(X_505  0.23039215803146362)
(X_506  0.23039215803146362)
(X_507  0.2343137264251709)
(X_508  0.24215686321258545)
(X_509  0.25)
(X_510  0.15784314274787903)
(X_511  0.1617647111415863)
(X_512  0.13431373238563538)
(X_513  0.1303921639919281)
(X_514  0.12254902720451355)
(X_515  0.11862745881080627)
(X_516  0.11078432202339172)
(X_517  0.10294118523597717)
(X_518  0.09509804844856262)
(X_519  0.09509804844856262)
(X_520  0.07156863063573837)
(X_521  0.0676470622420311)
(X_522  0.06372549384832382)
(X_523  0.05980392172932625)
(X_524  0.05588235333561897)
(X_525  0.15196079015731812)
(X_526  0.14803922176361084)
(X_527  0.14411765336990356)
(X_528  0.0676470622420311)
(X_529  0.0676470622420311)
(X_530  0.0676470622420311)
(X_531  0.0676470622420311)
(X_532  0.1872549057006836)
(X_533  0.19117647409439087)
(X_534  0.19509804248809814)
(X_535  0.19509804248809814)
(X_536  0.19117647409439087)
(X_537  0.18333333730697632)
(X_538  0.17549020051956177)
(X_539  0.1715686321258545)
(X_540  0.0519607849419117)
(X_541  0.0519607849419117)
(X_542  0.14803922176361084)
(X_543  0.14411765336990356)
(X_544  0.04411764815449715)
(X_545  0.04019607976078987)
(X_546  0.036274511367082596)
(X_547  0.036274511367082596)
(X_548  0.136274516582489)
(X_549  0.036274511367082596)
(X_550  0.036274511367082596)
(X_551  0.04019607976078987)
(X_552  0.1401960849761963)
(X_553  0.1401960849761963)
(X_554  0.04411764815449715)
(X_555  0.04411764815449715)
(X_556  0.15196079015731812)
(X_557  0.15196079015731812)
(X_558  0.15196079015731812)
(X_559  0.04803921654820442)
(X_560  0.16372549533843994)
(X_561  0.0676470622420311)
(X_562  0.07549020648002625)
(X_563  0.0833333432674408)
(X_564  0.07941177487373352)
(X_565  0.07156863063573837)
(X_566  0.05980392172932625)
(X_567  0.04803921654820442)
(X_568  0.05588235333561897)
(X_569  0.0519607849419117)
(X_570  0.0519607849419117)
(X_571  0.04803921654820442)
(X_572  0.04411764815449715)
(X_573  0.04019607976078987)
(X_574  0.04019607976078987)
(X_575  0.036274511367082596)
(X_576  0.04019607976078987)
(X_577  0.04411764815449715)
(X_578  0.04411764815449715)
(X_579  0.15196079015731812)
(X_580  0.1558823585510254)
(X_581  0.05980392172932625)
(X_582  0.06372549384832382)
(X_583  0.06372549384832382)
(X_584  0.04411764815449715)
(X_585  0.04411764815449715)
(X_586  0.04411764815449715)
(X_587  0.04019607976078987)
(X_588  0.13235294818878174)
(X_589  0.04019607976078987)
(X_590  0.14803922176361084)
(X_591  0.15980392694473267)
(X_592  0.16372549533843994)
(X_593  0.16372549533843994)
(X_594  0.15980392694473267)
(X_595  0.1558823585510254)
(X_596  0.1558823585510254)
(X_597  0.1558823585510254)
(X_598  0.0519607849419117)
(X_599  0.04803921654820442)
(X_600  0.04411764815449715)
(X_601  0.04019607976078987)
(X_602  0.036274511367082596)
(X_603  0.036274511367082596)
(X_604  0.12450980395078659)
(X_605  0.12450980395078659)
(X_606  0.12450980395078659)
(X_607  0.12450980395078659)
(X_608  0.12450980395078659)
(X_609  0.12058823555707932)
(X_610  0.020588237792253494)
(X_611  0.020588237792253494)
(X_612  0.03235294297337532)
(X_613  0.03235294297337532)
(X_614  0.13235294818878174)
(X_615  0.13235294818878174)
(X_616  0.10882353037595749)
(X_617  0.012745101936161518)
(X_618  0.01666666939854622)
(X_619  0.02450980618596077)
(X_620  0.028431374579668045)
(X_621  0.13235294818878174)
(X_622  0.13235294818878174)
(X_623  0.036274511367082596)
(X_624  0.028431374579668045)
(X_625  0.02450980618596077)
(X_626  0.02450980618596077)
(X_627  0.12058823555707932)
(X_628  0.11666666716337204)
(X_629  0.012745101936161518)
(X_630  0.012745101936161518)
(X_631  0.10882353037595749)
(X_632  0.036274511367082596)
(X_633  0.036274511367082596)
(X_634  0.03235294297337532)
(X_635  0.12843137979507446)
(X_636  0.12450980395078659)
(X_637  0.12058823555707932)
(X_638  0.11666666716337204)
(X_639  0.11666666716337204)
(X_640  0.012745101936161518)
(X_641  0.11274509876966476)
(X_642  0.11274509876966476)
(X_643  0.11666666716337204)
(X_644  0.12058823555707932)
(X_645  0.11666666716337204)
(X_646  0.11274509876966476)
(X_647  0.10882353037595749)
(X_648  0.10490196198225021)
(X_649  0.10490196198225021)
(X_650  0.10490196198225021)
(X_651  0.10882353037595749)
(X_652  0.12058823555707932)
(X_653  0.01666666939854622)
(X_654  0.01666666939854622)
(X_655  0.01666666939854622)
(X_656  0.01666666939854622)
(X_657  0.012745101936161518)
(X_658  0.012745101936161518)
(X_659  0.012745101936161518)
(X_660  0.10882353037595749)
(X_661  0.10882353037595749)
(X_662  0.10882353037595749)
(X_663  0.004901961423456669)
(X_664  0.004901961423456669)
(X_665  0.10098039358854294)
(X_666  0.10098039358854294)
(X_667  0.0009803927969187498)
(X_668  -0.0029411755967885256)
(X_669  -0.0029411755967885256)
(X_670  0.10098039358854294)
(X_671  0.0009803927969187498)
(X_672  0.004901961423456669)
(X_673  0.004901961423456669)
(X_674  0.004901961423456669)
(X_675  0.004901961423456669)
(X_676  0.004901961423456669)
(X_677  0.004901961423456669)
(X_678  0.10882353037595749)
(X_679  0.008823529817163944)
(X_680  -0.0029411755967885256)
(X_681  0.10098039358854294)
(X_682  0.004901961423456669)
(X_683  0.004901961423456669)
(X_684  0.004901961423456669)
(X_685  0.004901961423456669)
(X_686  0.0009803927969187498)
(X_687  -0.0029411755967885256)
(X_688  0.10490196198225021)
(X_689  0.10490196198225021)
(X_690  0.004901961423456669)
(X_691  0.004901961423456669)
(X_692  0.004901961423456669)
(X_693  0.10490196198225021)
(X_694  0.10490196198225021)
(X_695  0.10490196198225021)
(X_696  0.10098039358854294)
(X_697  0.10098039358854294)
(X_698  0.10098039358854294)
(X_699  0.10098039358854294)
(X_700  0.10098039358854294)
(X_701  0.10098039358854294)
(X_702  0.10098039358854294)
(X_703  0.10098039358854294)
(X_704  0.0009803927969187498)
(X_705  0.0009803927969187498)
(X_706  0.0009803927969187498)
(X_707  0.004901961423456669)
(X_708  -0.0029411755967885256)
(X_709  0.09705882519483566)
(X_710  0.0009803927969187498)
(X_711  0.0009803927969187498)
(X_712  0.0009803927969187498)
(X_713  0.0009803927969187498)
(X_714  -0.0029411755967885256)
(X_715  -0.0029411755967885256)
(X_716  0.10098039358854294)
(X_717  0.10098039358854294)
(X_718  0.0009803927969187498)
(X_719  0.0009803927969187498)
(X_720  0.10098039358854294)
(X_721  0.10098039358854294)
(X_722  0.10098039358854294)
(X_723  0.10098039358854294)
(X_724  0.09705882519483566)
(X_725  0.09705882519483566)
(X_726  0.09705882519483566)
(X_727  0.09705882519483566)
(X_728  0.09705882519483566)
(X_729  0.09705882519483566)
(X_730  0.09705882519483566)
(X_731  0.09705882519483566)
(X_732  0.09705882519483566)
(X_733  0.09705882519483566)
(X_734  0.09705882519483566)
(X_735  0.09705882519483566)
(X_736  -0.010784312151372433)
(X_737  -0.006862743757665157)
(X_738  -0.006862743757665157)
(X_739  -0.0029411755967885256)
(X_740  -0.0029411755967885256)
(X_741  -0.006862743757665157)
(X_742  -0.006862743757665157)
(X_743  -0.010784312151372433)
(X_744  -0.0029411755967885256)
(X_745  -0.0029411755967885256)
(X_746  -0.0029411755967885256)
(X_747  -0.0029411755967885256)
(X_748  -0.0029411755967885256)
(X_749  -0.0029411755967885256)
(X_750  -0.0029411755967885256)
(X_751  -0.0029411755967885256)
(X_752  0.09313725680112839)
(X_753  0.09313725680112839)
(X_754  0.09313725680112839)
(X_755  0.09313725680112839)
(X_756  0.09705882519483566)
(X_757  0.09705882519483566)
(X_758  0.09313725680112839)
(X_759  0.09313725680112839)
(X_760  -0.006862743757665157)
(X_761  -0.006862743757665157)
(X_762  -0.010784312151372433)
(X_763  -0.010784312151372433)
(X_764  -0.014705880545079708)
(X_765  0.08921568840742111)
(X_766  -0.010784312151372433)
(X_767  -0.006862743757665157)
(X_768  -0.006862743757665157)
(X_769  -0.010784312151372433)
(X_770  -0.010784312151372433)
(X_771  -0.014705880545079708)
(X_772  -0.006862743757665157)
(X_773  -0.006862743757665157)
(X_774  -0.006862743757665157)
(X_775  -0.006862743757665157)
(X_776  0.09313725680112839)
(X_777  0.09313725680112839)
(X_778  0.09313725680112839)
(X_779  0.09313725680112839)
(X_780  -0.010784312151372433)
(X_781  -0.010784312151372433)
(X_782  -0.010784312151372433)
(X_783  -0.010784312151372433)
(Y_0 -13.098937034606934)
(Y_1 -4.882813930511475)
(Y_2 -2.8199303150177)
(Y_3 20.062898635864258))