((X_0  0.15196079015731812)
(X_1  0.06372549384832382)
(X_2  0.07156863063573837)
(X_3  0.17549020051956177)
(X_4  0.07549020648002625)
(X_5  0.07156863063573837)
(X_6  0.1715686321258545)
(X_7  0.17549020051956177)
(X_8  0.16372549533843994)
(X_9  0.16764706373214722)
(X_10  0.07156863063573837)
(X_11  0.1715686321258545)
(X_12  0.1715686321258545)
(X_13  0.16764706373214722)
(X_14  0.05980392172932625)
(X_15  0.05588235333561897)
(X_16  0.07941177487373352)
(X_17  0.0676470622420311)
(X_18  0.05588235333561897)
(X_19  0.0519607849419117)
(X_20  0.05588235333561897)
(X_21  0.0676470622420311)
(X_22  0.08725491166114807)
(X_23  0.19901961088180542)
(X_24  0.13823530077934265)
(X_25  0.13823530077934265)
(X_26  0.13823530077934265)
(X_27  0.23823529481887817)
(X_28  0.0519607849419117)
(X_29  0.05980392172932625)
(X_30  0.0676470622420311)
(X_31  0.16764706373214722)
(X_32  0.15980392694473267)
(X_33  0.05588235333561897)
(X_34  0.1558823585510254)
(X_35  0.05588235333561897)
(X_36  0.05588235333561897)
(X_37  0.05980392172932625)
(X_38  0.16372549533843994)
(X_39  0.16372549533843994)
(X_40  0.16372549533843994)
(X_41  0.1558823585510254)
(X_42  0.15196079015731812)
(X_43  0.14803922176361084)
(X_44  0.15196079015731812)
(X_45  0.14803922176361084)
(X_46  0.04411764815449715)
(X_47  0.04411764815449715)
(X_48  0.04803921654820442)
(X_49  0.05588235333561897)
(X_50  0.16372549533843994)
(X_51  0.16764706373214722)
(X_52  0.16764706373214722)
(X_53  0.16764706373214722)
(X_54  0.16764706373214722)
(X_55  0.16764706373214722)
(X_56  0.1558823585510254)
(X_57  0.05980392172932625)
(X_58  0.0676470622420311)
(X_59  0.06372549384832382)
(X_60  0.0519607849419117)
(X_61  0.04411764815449715)
(X_62  0.04411764815449715)
(X_63  0.04803921654820442)
(X_64  0.04803921654820442)
(X_65  0.14803922176361084)
(X_66  0.14803922176361084)
(X_67  0.15196079015731812)
(X_68  0.14803922176361084)
(X_69  0.14411765336990356)
(X_70  0.1401960849761963)
(X_71  0.136274516582489)
(X_72  0.028431374579668045)
(X_73  0.03235294297337532)
(X_74  0.036274511367082596)
(X_75  0.04019607976078987)
(X_76  0.04411764815449715)
(X_77  0.14411765336990356)
(X_78  0.14411765336990356)
(X_79  0.14411765336990356)
(X_80  0.1401960849761963)
(X_81  0.1401960849761963)
(X_82  0.1401960849761963)
(X_83  0.1401960849761963)
(X_84  0.04803921654820442)
(X_85  0.05588235333561897)
(X_86  0.05980392172932625)
(X_87  0.05588235333561897)
(X_88  0.04803921654820442)
(X_89  0.14411765336990356)
(X_90  0.04411764815449715)
(X_91  0.14803922176361084)
(X_92  0.136274516582489)
(X_93  0.136274516582489)
(X_94  0.036274511367082596)
(X_95  0.036274511367082596)
(X_96  0.136274516582489)
(X_97  0.13235294818878174)
(X_98  0.13235294818878174)
(X_99  0.12843137979507446)
(X_100  0.12843137979507446)
(X_101  0.13235294818878174)
(X_102  0.03235294297337532)
(X_103  0.036274511367082596)
(X_104  0.036274511367082596)
(X_105  0.1401960849761963)
(X_106  0.04019607976078987)
(X_107  0.04019607976078987)
(X_108  0.0519607849419117)
(X_109  0.0519607849419117)
(X_110  0.15196079015731812)
(X_111  0.15196079015731812)
(X_112  0.12843137979507446)
(X_113  0.136274516582489)
(X_114  0.1401960849761963)
(X_115  0.136274516582489)
(X_116  0.13235294818878174)
(X_117  0.13235294818878174)
(X_118  0.1401960849761963)
(X_119  0.14803922176361084)
(X_120  0.13235294818878174)
(X_121  0.13235294818878174)
(X_122  0.12843137979507446)
(X_123  0.12843137979507446)
(X_124  0.12450980395078659)
(X_125  0.02450980618596077)
(X_126  0.02450980618596077)
(X_127  0.02450980618596077)
(X_128  0.03235294297337532)
(X_129  0.028431374579668045)
(X_130  0.02450980618596077)
(X_131  0.020588237792253494)
(X_132  0.020588237792253494)
(X_133  0.02450980618596077)
(X_134  0.03235294297337532)
(X_135  0.036274511367082596)
(X_136  0.04019607976078987)
(X_137  0.04019607976078987)
(X_138  0.1401960849761963)
(X_139  0.1401960849761963)
(X_140  0.11274509876966476)
(X_141  0.11666666716337204)
(X_142  0.020588237792253494)
(X_143  0.12058823555707932)
(X_144  0.01666666939854622)
(X_145  0.020588237792253494)
(X_146  0.028431374579668045)
(X_147  0.036274511367082596)
(X_148  0.136274516582489)
(X_149  0.13235294818878174)
(X_150  0.12843137979507446)
(X_151  0.12450980395078659)
(X_152  0.12450980395078659)
(X_153  0.12450980395078659)
(X_154  0.12450980395078659)
(X_155  0.12843137979507446)
(X_156  0.02450980618596077)
(X_157  0.020588237792253494)
(X_158  0.012745101936161518)
(X_159  0.008823529817163944)
(X_160  0.008823529817163944)
(X_161  0.11274509876966476)
(X_162  0.12058823555707932)
(X_163  0.12843137979507446)
(X_164  0.12450980395078659)
(X_165  0.12450980395078659)
(X_166  0.12450980395078659)
(X_167  0.12450980395078659)
(X_168  0.020588237792253494)
(X_169  0.02450980618596077)
(X_170  0.02450980618596077)
(X_171  0.020588237792253494)
(X_172  0.01666666939854622)
(X_173  0.01666666939854622)
(X_174  0.02450980618596077)
(X_175  0.036274511367082596)
(X_176  0.04019607976078987)
(X_177  0.036274511367082596)
(X_178  0.12843137979507446)
(X_179  0.12450980395078659)
(X_180  0.12450980395078659)
(X_181  0.12450980395078659)
(X_182  0.12843137979507446)
(X_183  0.13235294818878174)
(X_184  0.020588237792253494)
(X_185  0.020588237792253494)
(X_186  0.020588237792253494)
(X_187  0.01666666939854622)
(X_188  0.01666666939854622)
(X_189  0.01666666939854622)
(X_190  0.01666666939854622)
(X_191  0.11666666716337204)
(X_192  0.02450980618596077)
(X_193  0.12450980395078659)
(X_194  0.12450980395078659)
(X_195  0.12450980395078659)
(X_196  0.14411765336990356)
(X_197  0.14803922176361084)
(X_198  0.14411765336990356)
(X_199  0.036274511367082596)
(X_200  0.02450980618596077)
(X_201  0.02450980618596077)
(X_202  0.03235294297337532)
(X_203  0.04019607976078987)
(X_204  0.04411764815449715)
(X_205  0.1401960849761963)
(X_206  0.13235294818878174)
(X_207  0.028431374579668045)
(X_208  0.02450980618596077)
(X_209  0.028431374579668045)
(X_210  0.03235294297337532)
(X_211  0.136274516582489)
(X_212  0.12058823555707932)
(X_213  0.12450980395078659)
(X_214  0.136274516582489)
(X_215  0.1401960849761963)
(X_216  0.1401960849761963)
(X_217  0.13235294818878174)
(X_218  0.12450980395078659)
(X_219  0.11666666716337204)
(X_220  0.028431374579668045)
(X_221  0.028431374579668045)
(X_222  0.028431374579668045)
(X_223  0.028431374579668045)
(X_224  0.03235294297337532)
(X_225  0.04019607976078987)
(X_226  0.036274511367082596)
(X_227  0.020588237792253494)
(X_228  0.01666666939854622)
(X_229  0.028431374579668045)
(X_230  0.028431374579668045)
(X_231  0.01666666939854622)
(X_232  0.136274516582489)
(X_233  0.136274516582489)
(X_234  0.13235294818878174)
(X_235  0.12450980395078659)
(X_236  0.11666666716337204)
(X_237  0.11274509876966476)
(X_238  0.11666666716337204)
(X_239  0.12058823555707932)
(X_240  0.11274509876966476)
(X_241  0.12058823555707932)
(X_242  0.12843137979507446)
(X_243  0.12450980395078659)
(X_244  0.11274509876966476)
(X_245  0.012745101936161518)
(X_246  0.02450980618596077)
(X_247  0.036274511367082596)
(X_248  0.008823529817163944)
(X_249  0.01666666939854622)
(X_250  0.028431374579668045)
(X_251  0.1401960849761963)
(X_252  0.4539215862751007)
(X_253  0.45000001788139343)
(X_254  0.31470587849617004)
(X_255  0.2558823525905609)
(X_256  0.3088235557079315)
(X_257  0.2813725471496582)
(X_258  0.25)
(X_259  0.22254902124404907)
(X_260  0.14411765336990356)
(X_261  0.136274516582489)
(X_262  0.11666666716337204)
(X_263  0.10098039358854294)
(X_264  0.09705882519483566)
(X_265  0.10882353037595749)
(X_266  0.13235294818878174)
(X_267  0.14803922176361084)
(X_268  0.008823529817163944)
(X_269  0.01666666939854622)
(X_270  0.02450980618596077)
(X_271  0.03235294297337532)
(X_272  0.04019607976078987)
(X_273  0.06372549384832382)
(X_274  0.09509804844856262)
(X_275  0.11862745881080627)
(X_276  0.20098040997982025)
(X_277  0.2088235467672348)
(X_278  0.22058825194835663)
(X_279  0.33235296607017517)
(X_280  0.3186274468898773)
(X_281  0.33039215207099915)
(X_282  0.3343137204647064)
(X_283  0.3225490152835846)
(X_284  0.32647058367729187)
(X_285  0.4382353127002716)
(X_286  0.4421568810939789)
(X_287  0.33039215207099915)
(X_288  0.29901960492134094)
(X_289  0.26764705777168274)
(X_290  0.21274511516094208)
(X_291  0.25)
(X_292  0.19117647409439087)
(X_293  0.14803922176361084)
(X_294  0.020588237792253494)
(X_295  0.004901961423456669)
(X_296  -0.006862743757665157)
(X_297  0.12450980395078659)
(X_298  0.07941177487373352)
(X_299  0.14215686917304993)
(X_300  0.20490197837352753)
(X_301  0.36764708161354065)
(X_302  0.4225490391254425)
(X_303  0.3539215624332428)
(X_304  0.4382353127002716)
(X_305  0.34215685725212097)
(X_306  0.3499999940395355)
(X_307  0.4539215862751007)
(X_308  0.27941176295280457)
(X_309  0.29509803652763367)
(X_310  0.29509803652763367)
(X_311  0.28333333134651184)
(X_312  0.28333333134651184)
(X_313  0.2911764681339264)
(X_314  0.2911764681339264)
(X_315  0.3794117867946625)
(X_316  0.34215685725212097)
(X_317  0.33039215207099915)
(X_318  0.31470587849617004)
(X_319  0.2911764681339264)
(X_320  0.3558823764324188)
(X_321  0.31666669249534607)
(X_322  0.27352941036224365)
(X_323  0.24607843160629272)
(X_324  0.21666668355464935)
(X_325  0.3401961028575897)
(X_326  0.3715686500072479)
(X_327  0.29901960492134094)
(X_328  0.31470587849617004)
(X_329  0.31470587849617004)
(X_330  0.3068627417087555)
(X_331  0.29901960492134094)
(X_332  0.3911764919757843)
(X_333  0.3911764919757843)
(X_334  0.2911764681339264)
(X_335  0.3911764919757843)
(X_336  0.1617647111415863)
(X_337  0.2813725471496582)
(X_338  0.29313725233078003)
(X_339  0.29313725233078003)
(X_340  0.30098041892051697)
(X_341  0.32058826088905334)
(X_342  0.2245098203420639)
(X_343  0.21666668355464935)
(X_344  0.30098041892051697)
(X_345  0.30490198731422424)
(X_346  0.21666668355464935)
(X_347  0.33627453446388245)
(X_348  0.3480392396450043)
(X_349  0.3480392396450043)
(X_350  0.33235296607017517)
(X_351  0.31666669249534607)
(X_352  0.17352941632270813)
(X_353  0.2813725471496582)
(X_354  0.30098041892051697)
(X_355  0.31666669249534607)
(X_356  0.23235295712947845)
(X_357  0.23235295712947845)
(X_358  0.22843138873577118)
(X_359  0.3245098292827606)
(X_360  0.3284313976764679)
(X_361  0.22843138873577118)
(X_362  0.22843138873577118)
(X_363  0.3245098292827606)
(X_364  0.3892156779766083)
(X_365  0.39313724637031555)
(X_366  0.3813725411891937)
(X_367  0.45000001788139343)
(X_368  0.4264706075191498)
(X_369  0.4107843339443207)
(X_370  0.387254923582077)
(X_371  0.3598039448261261)
(X_372  0.27941176295280457)
(X_373  0.2598039209842682)
(X_374  0.23627452552318573)
(X_375  0.3245098292827606)
(X_376  0.3245098292827606)
(X_377  0.2245098203420639)
(X_378  0.21666668355464935)
(X_379  0.30490198731422424)
(X_380  0.3401961028575897)
(X_381  0.31666669249534607)
(X_382  0.2852941155433655)
(X_383  0.2617647051811218)
(X_384  0.25)
(X_385  0.1460784375667572)
(X_386  0.1460784375667572)
(X_387  0.1460784375667572)
(X_388  0.2539215683937073)
(X_389  0.15784314274787903)
(X_390  0.1617647111415863)
(X_391  0.2656862735748291)
(X_392  0.3813725411891937)
(X_393  0.40882351994514465)
(X_394  0.4362744987010956)
(X_395  0.551960825920105)
(X_396  0.479411780834198)
(X_397  0.5147058963775635)
(X_398  0.5264706015586853)
(X_399  0.5186274647712708)
(X_400  0.5186274647712708)
(X_401  0.4950980544090271)
(X_402  0.4754902124404907)
(X_403  0.4754902124404907)
(X_404  0.4911764860153198)
(X_405  0.5029411911964417)
(X_406  0.5029411911964417)
(X_407  0.5990196466445923)
(X_408  0.42450979351997375)
(X_409  0.41274508833885193)
(X_410  0.40882351994514465)
(X_411  0.4205882251262665)
(X_412  0.45196080207824707)
(X_413  0.5872549414634705)
(X_414  0.6068627834320068)
(X_415  0.6186274886131287)
(X_416  0.48725491762161255)
(X_417  0.48725491762161255)
(X_418  0.5872549414634705)
(X_419  0.5911765098571777)
(X_420  0.11862745881080627)
(X_421  0.24607843160629272)
(X_422  0.2696078419685364)
(X_423  0.2852941155433655)
(X_424  0.30490198731422424)
(X_425  0.33235296607017517)
(X_426  0.3401961028575897)
(X_427  0.33235296607017517)
(X_428  0.3401961028575897)
(X_429  0.33627453446388245)
(X_430  0.3401961028575897)
(X_431  0.26764705777168274)
(X_432  0.39901962876319885)
(X_433  0.4107843339443207)
(X_434  0.40294119715690613)
(X_435  0.2872548997402191)
(X_436  0.31078431010246277)
(X_437  0.3068627417087555)
(X_438  0.3068627417087555)
(X_439  0.31470587849617004)
(X_440  0.41862747073173523)
(X_441  0.31078431010246277)
(X_442  0.2872548997402191)
(X_443  0.26764705777168274)
(X_444  0.35196080803871155)
(X_445  0.35196080803871155)
(X_446  0.24411766231060028)
(X_447  0.3401961028575897)
(X_448  0.05588235333561897)
(X_449  0.1558823585510254)
(X_450  0.16372549533843994)
(X_451  0.1715686321258545)
(X_452  0.17941176891326904)
(X_453  0.08725491166114807)
(X_454  0.19117647409439087)
(X_455  0.09509804844856262)
(X_456  0.114705890417099)
(X_457  0.12254902720451355)
(X_458  0.12647059559822083)
(X_459  0.12254902720451355)
(X_460  0.11862745881080627)
(X_461  0.21470588445663452)
(X_462  0.2186274528503418)
(X_463  0.22647058963775635)
(X_464  0.21470588445663452)
(X_465  0.21078431606292725)
(X_466  0.2029411792755127)
(X_467  0.09509804844856262)
(X_468  0.09117648005485535)
(X_469  0.09117648005485535)
(X_470  0.09117648005485535)
(X_471  0.09509804844856262)
(X_472  0.1872549057006836)
(X_473  0.1872549057006836)
(X_474  0.1872549057006836)
(X_475  0.19117647409439087)
(X_476  0.0519607849419117)
(X_477  0.04803921654820442)
(X_478  0.04803921654820442)
(X_479  0.04411764815449715)
(X_480  0.04411764815449715)
(X_481  0.04019607976078987)
(X_482  0.04019607976078987)
(X_483  0.036274511367082596)
(X_484  0.07156863063573837)
(X_485  0.07549020648002625)
(X_486  0.07941177487373352)
(X_487  0.07941177487373352)
(X_488  0.1715686321258545)
(X_489  0.1715686321258545)
(X_490  0.17549020051956177)
(X_491  0.17941176891326904)
(X_492  0.17941176891326904)
(X_493  0.0833333432674408)
(X_494  0.0833333432674408)
(X_495  0.0833333432674408)
(X_496  0.07941177487373352)
(X_497  0.17549020051956177)
(X_498  0.16764706373214722)
(X_499  0.06372549384832382)
(X_500  0.036274511367082596)
(X_501  0.036274511367082596)
(X_502  0.036274511367082596)
(X_503  0.1401960849761963)
(X_504  0.036274511367082596)
(X_505  0.13235294818878174)
(X_506  0.12843137979507446)
(X_507  0.12058823555707932)
(X_508  0.11274509876966476)
(X_509  0.10490196198225021)
(X_510  0.10098039358854294)
(X_511  -0.0029411755967885256)
(X_512  0.12843137979507446)
(X_513  0.03235294297337532)
(X_514  0.036274511367082596)
(X_515  0.036274511367082596)
(X_516  0.028431374579668045)
(X_517  0.028431374579668045)
(X_518  0.13235294818878174)
(X_519  0.136274516582489)
(X_520  0.04019607976078987)
(X_521  0.04803921654820442)
(X_522  0.1558823585510254)
(X_523  0.05980392172932625)
(X_524  0.05588235333561897)
(X_525  0.04803921654820442)
(X_526  0.03235294297337532)
(X_527  0.02450980618596077)
(X_528  0.020588237792253494)
(X_529  0.020588237792253494)
(X_530  0.02450980618596077)
(X_531  0.12450980395078659)
(X_532  0.01666666939854622)
(X_533  0.01666666939854622)
(X_534  0.012745101936161518)
(X_535  0.012745101936161518)
(X_536  0.11274509876966476)
(X_537  0.10882353037595749)
(X_538  0.10882353037595749)
(X_539  0.10882353037595749)
(X_540  0.012745101936161518)
(X_541  0.01666666939854622)
(X_542  0.020588237792253494)
(X_543  0.020588237792253494)
(X_544  0.012745101936161518)
(X_545  0.008823529817163944)
(X_546  0.01666666939854622)
(X_547  0.12058823555707932)
(X_548  0.11666666716337204)
(X_549  0.12058823555707932)
(X_550  0.12843137979507446)
(X_551  0.03235294297337532)
(X_552  0.028431374579668045)
(X_553  0.020588237792253494)
(X_554  0.012745101936161518)
(X_555  0.004901961423456669)
(X_556  0.03235294297337532)
(X_557  0.03235294297337532)
(X_558  0.03235294297337532)
(X_559  0.03235294297337532)
(X_560  0.004901961423456669)
(X_561  0.10490196198225021)
(X_562  0.008823529817163944)
(X_563  0.008823529817163944)
(X_564  0.012745101936161518)
(X_565  0.01666666939854622)
(X_566  0.01666666939854622)
(X_567  0.01666666939854622)
(X_568  0.10882353037595749)
(X_569  0.012745101936161518)
(X_570  0.01666666939854622)
(X_571  0.01666666939854622)
(X_572  0.10882353037595749)
(X_573  0.008823529817163944)
(X_574  0.012745101936161518)
(X_575  0.01666666939854622)
(X_576  0.012745101936161518)
(X_577  0.11274509876966476)
(X_578  0.10882353037595749)
(X_579  0.10490196198225021)
(X_580  0.10490196198225021)
(X_581  0.10490196198225021)
(X_582  0.004901961423456669)
(X_583  0.10882353037595749)
(X_584  0.01666666939854622)
(X_585  0.01666666939854622)
(X_586  0.01666666939854622)
(X_587  0.11666666716337204)
(X_588  0.004901961423456669)
(X_589  0.004901961423456669)
(X_590  0.004901961423456669)
(X_591  0.004901961423456669)
(X_592  0.004901961423456669)
(X_593  0.004901961423456669)
(X_594  0.10098039358854294)
(X_595  0.10098039358854294)
(X_596  0.0009803927969187498)
(X_597  0.004901961423456669)
(X_598  0.008823529817163944)
(X_599  0.10882353037595749)
(X_600  0.10098039358854294)
(X_601  0.10098039358854294)
(X_602  0.10490196198225021)
(X_603  0.10882353037595749)
(X_604  0.11274509876966476)
(X_605  0.10882353037595749)
(X_606  0.10098039358854294)
(X_607  0.09705882519483566)
(X_608  0.09705882519483566)
(X_609  0.10098039358854294)
(X_610  0.10490196198225021)
(X_611  0.008823529817163944)
(X_612  0.10098039358854294)
(X_613  0.10098039358854294)
(X_614  0.10098039358854294)
(X_615  0.10098039358854294)
(X_616  0.10098039358854294)
(X_617  0.10098039358854294)
(X_618  0.10098039358854294)
(X_619  0.10098039358854294)
(X_620  -0.0029411755967885256)
(X_621  -0.0029411755967885256)
(X_622  -0.0029411755967885256)
(X_623  0.09705882519483566)
(X_624  0.09313725680112839)
(X_625  0.10098039358854294)
(X_626  0.10490196198225021)
(X_627  0.10098039358854294)
(X_628  -0.0029411755967885256)
(X_629  0.09313725680112839)
(X_630  0.09705882519483566)
(X_631  0.10490196198225021)
(X_632  0.0009803927969187498)
(X_633  0.0009803927969187498)
(X_634  0.10098039358854294)
(X_635  0.10490196198225021)
(X_636  0.004901961423456669)
(X_637  0.004901961423456669)
(X_638  0.10098039358854294)
(X_639  0.10098039358854294)
(X_640  0.10490196198225021)
(X_641  0.10098039358854294)
(X_642  0.10098039358854294)
(X_643  0.10098039358854294)
(X_644  0.09705882519483566)
(X_645  0.09705882519483566)
(X_646  -0.0029411755967885256)
(X_647  0.0009803927969187498)
(X_648  0.004901961423456669)
(X_649  0.004901961423456669)
(X_650  0.008823529817163944)
(X_651  0.10882353037595749)
(X_652  0.09313725680112839)
(X_653  0.0009803927969187498)
(X_654  0.004901961423456669)
(X_655  0.0009803927969187498)
(X_656  0.09313725680112839)
(X_657  0.09313725680112839)
(X_658  0.09705882519483566)
(X_659  0.10098039358854294)
(X_660  0.08921568840742111)
(X_661  0.09705882519483566)
(X_662  0.004901961423456669)
(X_663  0.012745101936161518)
(X_664  0.012745101936161518)
(X_665  0.008823529817163944)
(X_666  -0.0029411755967885256)
(X_667  -0.006862743757665157)
(X_668  -0.0029411755967885256)
(X_669  -0.0029411755967885256)
(X_670  0.09705882519483566)
(X_671  0.09313725680112839)
(X_672  -0.0029411755967885256)
(X_673  0.08921568840742111)
(X_674  0.08529412001371384)
(X_675  0.08921568840742111)
(X_676  0.09705882519483566)
(X_677  0.10098039358854294)
(X_678  0.09705882519483566)
(X_679  0.08921568840742111)
(X_680  0.10490196198225021)
(X_681  0.09705882519483566)
(X_682  0.08921568840742111)
(X_683  0.09313725680112839)
(X_684  0.09705882519483566)
(X_685  0.09705882519483566)
(X_686  0.08921568840742111)
(X_687  0.08529412001371384)
(X_688  0.10490196198225021)
(X_689  0.10490196198225021)
(X_690  0.10490196198225021)
(X_691  0.10490196198225021)
(X_692  0.10490196198225021)
(X_693  0.10490196198225021)
(X_694  0.10490196198225021)
(X_695  0.10490196198225021)
(X_696  0.10098039358854294)
(X_697  -0.0029411755967885256)
(X_698  -0.006862743757665157)
(X_699  0.09313725680112839)
(X_700  -0.0029411755967885256)
(X_701  0.09313725680112839)
(X_702  -0.010784312151372433)
(X_703  0.09705882519483566)
(X_704  0.10490196198225021)
(X_705  0.10882353037595749)
(X_706  0.008823529817163944)
(X_707  0.0009803927969187498)
(X_708  -0.0029411755967885256)
(X_709  -0.006862743757665157)
(X_710  -0.006862743757665157)
(X_711  -0.0029411755967885256)
(X_712  0.004901961423456669)
(X_713  0.008823529817163944)
(X_714  0.10882353037595749)
(X_715  0.10098039358854294)
(X_716  -0.014705880545079708)
(X_717  -0.014705880545079708)
(X_718  -0.010784312151372433)
(X_719  -0.010784312151372433)
(X_720  -0.006862743757665157)
(X_721  -0.0029411755967885256)
(X_722  0.0009803927969187498)
(X_723  0.0009803927969187498)
(X_724  -0.0029411755967885256)
(X_725  -0.0029411755967885256)
(X_726  -0.006862743757665157)
(X_727  -0.010784312151372433)
(X_728  -0.006862743757665157)
(X_729  -0.014705880545079708)
(X_730  -0.022549020126461983)
(X_731  0.07352941483259201)
(X_732  0.07352941483259201)
(X_733  0.06960784643888474)
(X_734  0.061764705926179886)
(X_735  0.053921569138765335)
(X_736  -0.010784312151372433)
(X_737  -0.018627449870109558)
(X_738  -0.022549020126461983)
(X_739  -0.026470588520169258)
(X_740  0.07745098322629929)
(X_741  -0.022549020126461983)
(X_742  -0.026470588520169258)
(X_743  -0.03431372344493866)
(X_744  -0.0029411755967885256)
(X_745  -0.006862743757665157)
(X_746  -0.010784312151372433)
(X_747  -0.010784312151372433)
(X_748  -0.010784312151372433)
(X_749  0.08921568840742111)
(X_750  0.08921568840742111)
(X_751  0.09313725680112839)
(X_752  0.09313725680112839)
(X_753  0.08921568840742111)
(X_754  0.08529412001371384)
(X_755  0.08529412001371384)
(X_756  0.3970588147640228)
(X_757  0.385294109582901)
(X_758  0.36176469922065735)
(X_759  0.3382352888584137)
(X_760  0.41862747073173523)
(X_761  0.39901962876319885)
(X_762  0.3754902184009552)
(X_763  0.3598039448261261)
(X_764  0.28921568393707275)
(X_765  0.17352941632270813)
(X_766  0.25784313678741455)
(X_767  0.24215686321258545)
(X_768  0.23039215803146362)
(X_769  0.2186274528503418)
(X_770  0.19901961088180542)
(X_771  0.1872549057006836)
(X_772  0.136274516582489)
(X_773  0.028431374579668045)
(X_774  0.01666666939854622)
(X_775  0.004901961423456669)
(X_776  -0.006862743757665157)
(X_777  -0.010784312151372433)
(X_778  -0.014705880545079708)
(X_779  0.08529412001371384)
(X_780  0.08921568840742111)
(X_781  -0.014705880545079708)
(X_782  -0.018627449870109558)
(X_783  -0.022549020126461983)
(Y_0 14.265246391296387)
(Y_1 24.412572860717773)
(Y_2 2.1699767112731934)
(Y_3 -42.14800262451172))