((X_0  0.44019606709480286)
(X_1  0.4323529303073883)
(X_2  0.42450979351997375)
(X_3  0.41274508833885193)
(X_4  0.3970588147640228)
(X_5  0.385294109582901)
(X_6  0.4735294282436371)
(X_7  0.4696078598499298)
(X_8  0.4264706075191498)
(X_9  0.41862747073173523)
(X_10  0.4107843339443207)
(X_11  0.39901962876319885)
(X_12  0.38333335518836975)
(X_13  0.3715686500072479)
(X_14  0.2598039209842682)
(X_15  0.2558823525905609)
(X_16  0.22843138873577118)
(X_17  0.22843138873577118)
(X_18  0.22058825194835663)
(X_19  0.21274511516094208)
(X_20  0.29313725233078003)
(X_21  0.27352941036224365)
(X_22  0.2539215683937073)
(X_23  0.24607843160629272)
(X_24  0.13823530077934265)
(X_25  0.1303921639919281)
(X_26  0.114705890417099)
(X_27  0.0990196168422699)
(X_28  0.1558823585510254)
(X_29  0.1558823585510254)
(X_30  0.15196079015731812)
(X_31  0.14803922176361084)
(X_32  0.14803922176361084)
(X_33  0.04411764815449715)
(X_34  0.04019607976078987)
(X_35  0.04019607976078987)
(X_36  0.16372549533843994)
(X_37  0.16372549533843994)
(X_38  0.05980392172932625)
(X_39  0.15980392694473267)
(X_40  0.1558823585510254)
(X_41  0.15196079015731812)
(X_42  0.15196079015731812)
(X_43  0.15196079015731812)
(X_44  0.14803922176361084)
(X_45  0.04803921654820442)
(X_46  0.04411764815449715)
(X_47  0.04411764815449715)
(X_48  0.04411764815449715)
(X_49  0.04411764815449715)
(X_50  0.14803922176361084)
(X_51  0.14803922176361084)
(X_52  0.15980392694473267)
(X_53  0.1558823585510254)
(X_54  0.15196079015731812)
(X_55  0.04803921654820442)
(X_56  0.04803921654820442)
(X_57  0.04803921654820442)
(X_58  0.0519607849419117)
(X_59  0.1558823585510254)
(X_60  0.1558823585510254)
(X_61  0.15980392694473267)
(X_62  0.06372549384832382)
(X_63  0.06372549384832382)
(X_64  0.020588237792253494)
(X_65  0.02450980618596077)
(X_66  0.12450980395078659)
(X_67  0.12843137979507446)
(X_68  0.13235294818878174)
(X_69  0.13235294818878174)
(X_70  0.136274516582489)
(X_71  0.136274516582489)
(X_72  0.14803922176361084)
(X_73  0.1401960849761963)
(X_74  0.036274511367082596)
(X_75  0.03235294297337532)
(X_76  0.03235294297337532)
(X_77  0.1401960849761963)
(X_78  0.15196079015731812)
(X_79  0.15980392694473267)
(X_80  0.15196079015731812)
(X_81  0.15980392694473267)
(X_82  0.16372549533843994)
(X_83  0.1715686321258545)
(X_84  0.04019607976078987)
(X_85  0.04019607976078987)
(X_86  0.04411764815449715)
(X_87  0.04411764815449715)
(X_88  0.14411765336990356)
(X_89  0.14803922176361084)
(X_90  0.14803922176361084)
(X_91  0.14803922176361084)
(X_92  0.1715686321258545)
(X_93  0.1715686321258545)
(X_94  0.16764706373214722)
(X_95  0.16764706373214722)
(X_96  0.06372549384832382)
(X_97  0.06372549384832382)
(X_98  0.05980392172932625)
(X_99  0.05980392172932625)
(X_100  0.05588235333561897)
(X_101  0.05588235333561897)
(X_102  0.0519607849419117)
(X_103  0.0519607849419117)
(X_104  0.05588235333561897)
(X_105  0.05980392172932625)
(X_106  0.0676470622420311)
(X_107  0.1715686321258545)
(X_108  0.05588235333561897)
(X_109  0.05588235333561897)
(X_110  0.06372549384832382)
(X_111  0.0676470622420311)
(X_112  0.15980392694473267)
(X_113  0.15980392694473267)
(X_114  0.15980392694473267)
(X_115  0.15980392694473267)
(X_116  0.06372549384832382)
(X_117  0.16372549533843994)
(X_118  0.16372549533843994)
(X_119  0.06372549384832382)
(X_120  0.05588235333561897)
(X_121  0.0519607849419117)
(X_122  0.04803921654820442)
(X_123  0.04411764815449715)
(X_124  0.04019607976078987)
(X_125  0.036274511367082596)
(X_126  0.03235294297337532)
(X_127  0.028431374579668045)
(X_128  0.020588237792253494)
(X_129  0.028431374579668045)
(X_130  0.136274516582489)
(X_131  0.04411764815449715)
(X_132  0.0519607849419117)
(X_133  0.05588235333561897)
(X_134  0.05588235333561897)
(X_135  0.0519607849419117)
(X_136  0.16372549533843994)
(X_137  0.15980392694473267)
(X_138  0.1558823585510254)
(X_139  0.15196079015731812)
(X_140  0.12843137979507446)
(X_141  0.12843137979507446)
(X_142  0.12843137979507446)
(X_143  0.13235294818878174)
(X_144  0.036274511367082596)
(X_145  0.036274511367082596)
(X_146  0.04019607976078987)
(X_147  0.04019607976078987)
(X_148  0.14803922176361084)
(X_149  0.14803922176361084)
(X_150  0.14803922176361084)
(X_151  0.14803922176361084)
(X_152  0.14411765336990356)
(X_153  0.14411765336990356)
(X_154  0.14411765336990356)
(X_155  0.14411765336990356)
(X_156  0.14803922176361084)
(X_157  0.15196079015731812)
(X_158  0.1558823585510254)
(X_159  0.05980392172932625)
(X_160  0.0519607849419117)
(X_161  0.14411765336990356)
(X_162  0.13235294818878174)
(X_163  0.12450980395078659)
(X_164  0.15196079015731812)
(X_165  0.14803922176361084)
(X_166  0.1401960849761963)
(X_167  0.13235294818878174)
(X_168  0.07156863063573837)
(X_169  0.16764706373214722)
(X_170  0.0676470622420311)
(X_171  0.06372549384832382)
(X_172  0.05980392172932625)
(X_173  0.05588235333561897)
(X_174  0.1558823585510254)
(X_175  0.1558823585510254)
(X_176  0.14411765336990356)
(X_177  0.14411765336990356)
(X_178  0.14411765336990356)
(X_179  0.14411765336990356)
(X_180  0.14411765336990356)
(X_181  0.14411765336990356)
(X_182  0.14411765336990356)
(X_183  0.14411765336990356)
(X_184  0.04803921654820442)
(X_185  0.04803921654820442)
(X_186  0.04803921654820442)
(X_187  0.04803921654820442)
(X_188  0.04411764815449715)
(X_189  0.04411764815449715)
(X_190  0.1401960849761963)
(X_191  0.136274516582489)
(X_192  0.14803922176361084)
(X_193  0.15196079015731812)
(X_194  0.1558823585510254)
(X_195  0.1558823585510254)
(X_196  0.24607843160629272)
(X_197  0.24215686321258545)
(X_198  0.2343137264251709)
(X_199  0.2186274528503418)
(X_200  0.10686275362968445)
(X_201  0.09509804844856262)
(X_202  0.0833333432674408)
(X_203  0.07941177487373352)
(X_204  0.0676470622420311)
(X_205  0.0676470622420311)
(X_206  0.06372549384832382)
(X_207  0.05980392172932625)
(X_208  0.05588235333561897)
(X_209  0.05588235333561897)
(X_210  0.0519607849419117)
(X_211  0.15196079015731812)
(X_212  0.136274516582489)
(X_213  0.14411765336990356)
(X_214  0.1558823585510254)
(X_215  0.17549020051956177)
(X_216  0.19901961088180542)
(X_217  0.23039215803146362)
(X_218  0.15392157435417175)
(X_219  0.16960784792900085)
(X_220  0.16568627953529358)
(X_221  0.1774509847164154)
(X_222  0.1931372582912445)
(X_223  0.20490197837352753)
(X_224  0.2872548997402191)
(X_225  0.2754901945590973)
(X_226  0.26372548937797546)
(X_227  0.24803923070430756)
(X_228  0.23627452552318573)
(X_229  0.2245098203420639)
(X_230  0.2088235467672348)
(X_231  0.19705882668495178)
(X_232  0.2696078419685364)
(X_233  0.2617647051811218)
(X_234  0.2343137264251709)
(X_235  0.2029411792755127)
(X_236  0.1715686321258545)
(X_237  0.16372549533843994)
(X_238  0.17549020051956177)
(X_239  0.19117647409439087)
(X_240  0.15784314274787903)
(X_241  0.2696078419685364)
(X_242  0.29313725233078003)
(X_243  0.22058825194835663)
(X_244  0.240196093916893)
(X_245  0.2558823525905609)
(X_246  0.26372548937797546)
(X_247  0.26764705777168274)
(X_248  0.3558823764324188)
(X_249  0.26372548937797546)
(X_250  0.2754901945590973)
(X_251  0.38333335518836975)
(X_252  0.31666669249534607)
(X_253  0.30490198731422424)
(X_254  0.2970588207244873)
(X_255  0.2970588207244873)
(X_256  0.30490198731422424)
(X_257  0.30490198731422424)
(X_258  0.2970588207244873)
(X_259  0.2852941155433655)
(X_260  0.30098041892051697)
(X_261  0.29313725233078003)
(X_262  0.2813725471496582)
(X_263  0.25784313678741455)
(X_264  0.23823529481887817)
(X_265  0.2343137264251709)
(X_266  0.24607843160629272)
(X_267  0.1617647111415863)
(X_268  0.18921568989753723)
(X_269  0.19705882668495178)
(X_270  0.21666668355464935)
(X_271  0.23235295712947845)
(X_272  0.24803923070430756)
(X_273  0.25196078419685364)
(X_274  0.2558823525905609)
(X_275  0.25196078419685364)
(X_276  0.2088235467672348)
(X_277  0.21666668355464935)
(X_278  0.3284313976764679)
(X_279  0.3401961028575897)
(X_280  0.19705882668495178)
(X_281  0.1774509847164154)
(X_282  0.1617647111415863)
(X_283  0.1617647111415863)
(X_284  0.16960784792900085)
(X_285  0.2696078419685364)
(X_286  0.2539215683937073)
(X_287  0.13431373238563538)
(X_288  0.25784313678741455)
(X_289  0.25784313678741455)
(X_290  0.2539215683937073)
(X_291  0.23823529481887817)
(X_292  0.22647058963775635)
(X_293  0.22254902124404907)
(X_294  0.1303921639919281)
(X_295  0.13823530077934265)
(X_296  0.15784314274787903)
(X_297  0.2656862735748291)
(X_298  0.2774509787559509)
(X_299  0.2813725471496582)
(X_300  0.18529412150382996)
(X_301  0.18137255311012268)
(X_302  0.1774509847164154)
(X_303  0.2696078419685364)
(X_304  0.2774509787559509)
(X_305  0.2813725471496582)
(X_306  0.18921568989753723)
(X_307  0.19705882668495178)
(X_308  0.3382352888584137)
(X_309  0.31470587849617004)
(X_310  0.29509803652763367)
(X_311  0.29901960492134094)
(X_312  0.31078431010246277)
(X_313  0.31078431010246277)
(X_314  0.2911764681339264)
(X_315  0.26764705777168274)
(X_316  0.28333333134651184)
(X_317  0.28333333134651184)
(X_318  0.27941176295280457)
(X_319  0.27156862616539)
(X_320  0.3598039448261261)
(X_321  0.35196080803871155)
(X_322  0.3480392396450043)
(X_323  0.344117671251297)
(X_324  0.2754901945590973)
(X_325  0.27941176295280457)
(X_326  0.38333335518836975)
(X_327  0.387254923582077)
(X_328  0.28333333134651184)
(X_329  0.2754901945590973)
(X_330  0.26764705777168274)
(X_331  0.2598039209842682)
(X_332  0.36764708161354065)
(X_333  0.3637255132198334)
(X_334  0.3558823764324188)
(X_335  0.24803923070430756)
(X_336  0.41274508833885193)
(X_337  0.5009803771972656)
(X_338  0.49313727021217346)
(X_339  0.5088235139846802)
(X_340  0.5284313559532166)
(X_341  0.5401960611343384)
(X_342  0.4362744987010956)
(X_343  0.4205882251262665)
(X_344  0.5401960611343384)
(X_345  0.4362744987010956)
(X_346  0.4362744987010956)
(X_347  0.4362744987010956)
(X_348  0.5323529243469238)
(X_349  0.5245097875595093)
(X_350  0.5127450823783875)
(X_351  0.4049019515514374)
(X_352  0.41274508833885193)
(X_353  0.4205882251262665)
(X_354  0.42450979351997375)
(X_355  0.42843136191368103)
(X_356  0.42843136191368103)
(X_357  0.4205882251262665)
(X_358  0.40882351994514465)
(X_359  0.5049019455909729)
(X_360  0.5049019455909729)
(X_361  0.49705883860588074)
(X_362  0.3813725411891937)
(X_363  0.4696078598499298)
(X_364  0.1460784375667572)
(X_365  0.14215686917304993)
(X_366  0.14215686917304993)
(X_367  0.1460784375667572)
(X_368  0.2539215683937073)
(X_369  0.25784313678741455)
(X_370  0.25784313678741455)
(X_371  0.2539215683937073)
(X_372  0.1617647111415863)
(X_373  0.1617647111415863)
(X_374  0.1617647111415863)
(X_375  0.16960784792900085)
(X_376  0.2774509787559509)
(X_377  0.2774509787559509)
(X_378  0.2696078419685364)
(X_379  0.25784313678741455)
(X_380  0.2539215683937073)
(X_381  0.15784314274787903)
(X_382  0.16960784792900085)
(X_383  0.27352941036224365)
(X_384  0.2774509787559509)
(X_385  0.17352941632270813)
(X_386  0.16568627953529358)
(X_387  0.15784314274787903)
(X_388  0.2813725471496582)
(X_389  0.27352941036224365)
(X_390  0.2656862735748291)
(X_391  0.25784313678741455)
(X_392  0.0990196168422699)
(X_393  0.10686275362968445)
(X_394  0.20686274766921997)
(X_395  0.19901961088180542)
(X_396  0.1872549057006836)
(X_397  0.17941176891326904)
(X_398  0.17941176891326904)
(X_399  0.1872549057006836)
(X_400  0.17941176891326904)
(X_401  0.1715686321258545)
(X_402  0.1715686321258545)
(X_403  0.07941177487373352)
(X_404  0.08725491166114807)
(X_405  0.09117648005485535)
(X_406  0.18333333730697632)
(X_407  0.1715686321258545)
(X_408  0.07156863063573837)
(X_409  0.07941177487373352)
(X_410  0.09117648005485535)
(X_411  0.0990196168422699)
(X_412  0.0990196168422699)
(X_413  0.19901961088180542)
(X_414  0.19117647409439087)
(X_415  0.1872549057006836)
(X_416  0.0833333432674408)
(X_417  0.17941176891326904)
(X_418  0.17941176891326904)
(X_419  0.17549020051956177)
(X_420  0.04019607976078987)
(X_421  0.05980392172932625)
(X_422  0.17549020051956177)
(X_423  0.1715686321258545)
(X_424  0.15980392694473267)
(X_425  0.15980392694473267)
(X_426  0.17549020051956177)
(X_427  0.09117648005485535)
(X_428  0.0833333432674408)
(X_429  0.17549020051956177)
(X_430  0.16372549533843994)
(X_431  0.16372549533843994)
(X_432  0.1715686321258545)
(X_433  0.16764706373214722)
(X_434  0.1558823585510254)
(X_435  0.04019607976078987)
(X_436  0.04411764815449715)
(X_437  0.0519607849419117)
(X_438  0.06372549384832382)
(X_439  0.07156863063573837)
(X_440  0.07156863063573837)
(X_441  0.07156863063573837)
(X_442  0.06372549384832382)
(X_443  0.05980392172932625)
(X_444  0.16764706373214722)
(X_445  0.16764706373214722)
(X_446  0.16372549533843994)
(X_447  0.16372549533843994)
(X_448  0.05980392172932625)
(X_449  0.15980392694473267)
(X_450  0.15980392694473267)
(X_451  0.15980392694473267)
(X_452  0.15980392694473267)
(X_453  0.15980392694473267)
(X_454  0.15980392694473267)
(X_455  0.05980392172932625)
(X_456  0.05980392172932625)
(X_457  0.05980392172932625)
(X_458  0.05588235333561897)
(X_459  0.1558823585510254)
(X_460  0.15196079015731812)
(X_461  0.15196079015731812)
(X_462  0.14803922176361084)
(X_463  0.14803922176361084)
(X_464  0.14411765336990356)
(X_465  0.14411765336990356)
(X_466  0.04803921654820442)
(X_467  0.04803921654820442)
(X_468  0.04803921654820442)
(X_469  0.04803921654820442)
(X_470  0.04411764815449715)
(X_471  0.04411764815449715)
(X_472  0.036274511367082596)
(X_473  0.036274511367082596)
(X_474  0.036274511367082596)
(X_475  0.136274516582489)
(X_476  0.04411764815449715)
(X_477  0.04411764815449715)
(X_478  0.04411764815449715)
(X_479  0.04411764815449715)
(X_480  0.04411764815449715)
(X_481  0.04411764815449715)
(X_482  0.04411764815449715)
(X_483  0.04411764815449715)
(X_484  0.04803921654820442)
(X_485  0.04803921654820442)
(X_486  0.04411764815449715)
(X_487  0.14411765336990356)
(X_488  0.1401960849761963)
(X_489  0.1401960849761963)
(X_490  0.1401960849761963)
(X_491  0.136274516582489)
(X_492  0.13235294818878174)
(X_493  0.13235294818878174)
(X_494  0.036274511367082596)
(X_495  0.036274511367082596)
(X_496  0.136274516582489)
(X_497  0.136274516582489)
(X_498  0.13235294818878174)
(X_499  0.03235294297337532)
(X_500  0.03235294297337532)
(X_501  0.03235294297337532)
(X_502  0.03235294297337532)
(X_503  0.03235294297337532)
(X_504  0.02450980618596077)
(X_505  0.12450980395078659)
(X_506  0.12450980395078659)
(X_507  0.12450980395078659)
(X_508  0.12450980395078659)
(X_509  0.02450980618596077)
(X_510  0.02450980618596077)
(X_511  0.02450980618596077)
(X_512  0.13235294818878174)
(X_513  0.03235294297337532)
(X_514  0.03235294297337532)
(X_515  0.12843137979507446)
(X_516  0.12843137979507446)
(X_517  0.12843137979507446)
(X_518  0.028431374579668045)
(X_519  0.12450980395078659)
(X_520  0.11666666716337204)
(X_521  0.12058823555707932)
(X_522  0.02450980618596077)
(X_523  0.02450980618596077)
(X_524  0.02450980618596077)
(X_525  0.02450980618596077)
(X_526  0.020588237792253494)
(X_527  0.01666666939854622)
(X_528  0.02450980618596077)
(X_529  0.02450980618596077)
(X_530  0.02450980618596077)
(X_531  0.02450980618596077)
(X_532  0.012745101936161518)
(X_533  0.11274509876966476)
(X_534  0.012745101936161518)
(X_535  0.012745101936161518)
(X_536  0.012745101936161518)
(X_537  0.012745101936161518)
(X_538  0.012745101936161518)
(X_539  0.012745101936161518)
(X_540  0.02450980618596077)
(X_541  0.020588237792253494)
(X_542  0.020588237792253494)
(X_543  0.12058823555707932)
(X_544  0.12058823555707932)
(X_545  0.020588237792253494)
(X_546  0.020588237792253494)
(X_547  0.020588237792253494)
(X_548  0.008823529817163944)
(X_549  0.11274509876966476)
(X_550  0.01666666939854622)
(X_551  0.01666666939854622)
(X_552  0.01666666939854622)
(X_553  0.01666666939854622)
(X_554  0.012745101936161518)
(X_555  0.008823529817163944)
(X_556  0.11666666716337204)
(X_557  0.11666666716337204)
(X_558  0.11666666716337204)
(X_559  0.11666666716337204)
(X_560  0.008823529817163944)
(X_561  0.008823529817163944)
(X_562  0.008823529817163944)
(X_563  0.008823529817163944)
(X_564  0.008823529817163944)
(X_565  0.008823529817163944)
(X_566  0.008823529817163944)
(X_567  0.008823529817163944)
(X_568  0.11666666716337204)
(X_569  0.01666666939854622)
(X_570  0.01666666939854622)
(X_571  0.01666666939854622)
(X_572  0.12058823555707932)
(X_573  0.020588237792253494)
(X_574  0.020588237792253494)
(X_575  0.020588237792253494)
(X_576  0.10882353037595749)
(X_577  0.10882353037595749)
(X_578  0.012745101936161518)
(X_579  0.012745101936161518)
(X_580  0.012745101936161518)
(X_581  0.012745101936161518)
(X_582  0.008823529817163944)
(X_583  0.008823529817163944)
(X_584  0.008823529817163944)
(X_585  0.10882353037595749)
(X_586  0.008823529817163944)
(X_587  0.10882353037595749)
(X_588  0.10882353037595749)
(X_589  0.10882353037595749)
(X_590  0.10882353037595749)
(X_591  0.008823529817163944)
(X_592  0.008823529817163944)
(X_593  0.008823529817163944)
(X_594  0.008823529817163944)
(X_595  0.008823529817163944)
(X_596  0.012745101936161518)
(X_597  0.012745101936161518)
(X_598  0.11274509876966476)
(X_599  0.11666666716337204)
(X_600  0.11666666716337204)
(X_601  0.11666666716337204)
(X_602  0.11666666716337204)
(X_603  0.12058823555707932)
(X_604  0.10490196198225021)
(X_605  0.004901961423456669)
(X_606  0.008823529817163944)
(X_607  0.012745101936161518)
(X_608  0.11274509876966476)
(X_609  0.008823529817163944)
(X_610  0.004901961423456669)
(X_611  0.004901961423456669)
(X_612  0.004901961423456669)
(X_613  0.10490196198225021)
(X_614  0.10490196198225021)
(X_615  0.10490196198225021)
(X_616  0.004901961423456669)
(X_617  0.10490196198225021)
(X_618  0.10490196198225021)
(X_619  0.10490196198225021)
(X_620  0.004901961423456669)
(X_621  0.004901961423456669)
(X_622  0.004901961423456669)
(X_623  0.004901961423456669)
(X_624  0.10490196198225021)
(X_625  0.10490196198225021)
(X_626  0.10882353037595749)
(X_627  0.10882353037595749)
(X_628  0.11274509876966476)
(X_629  0.11274509876966476)
(X_630  0.11274509876966476)
(X_631  0.11666666716337204)
(X_632  0.09705882519483566)
(X_633  0.10098039358854294)
(X_634  0.10490196198225021)
(X_635  0.10490196198225021)
(X_636  0.10490196198225021)
(X_637  0.10490196198225021)
(X_638  0.10098039358854294)
(X_639  0.09705882519483566)
(X_640  0.10490196198225021)
(X_641  0.10490196198225021)
(X_642  0.10490196198225021)
(X_643  0.10490196198225021)
(X_644  0.10098039358854294)
(X_645  0.10098039358854294)
(X_646  0.0009803927969187498)
(X_647  0.0009803927969187498)
(X_648  0.0009803927969187498)
(X_649  0.0009803927969187498)
(X_650  0.10098039358854294)
(X_651  0.0009803927969187498)
(X_652  -0.0029411755967885256)
(X_653  0.0009803927969187498)
(X_654  0.0009803927969187498)
(X_655  0.004901961423456669)
(X_656  0.10490196198225021)
(X_657  0.10882353037595749)
(X_658  0.10882353037595749)
(X_659  0.10882353037595749)
(X_660  0.09313725680112839)
(X_661  0.09705882519483566)
(X_662  -0.0029411755967885256)
(X_663  0.0009803927969187498)
(X_664  0.0009803927969187498)
(X_665  -0.0029411755967885256)
(X_666  -0.0029411755967885256)
(X_667  -0.006862743757665157)
(X_668  0.004901961423456669)
(X_669  0.004901961423456669)
(X_670  0.004901961423456669)
(X_671  0.10490196198225021)
(X_672  -0.006862743757665157)
(X_673  0.09313725680112839)
(X_674  0.09313725680112839)
(X_675  0.09313725680112839)
(X_676  0.09313725680112839)
(X_677  0.09313725680112839)
(X_678  0.09313725680112839)
(X_679  0.09313725680112839)
(X_680  0.09705882519483566)
(X_681  0.09705882519483566)
(X_682  0.09705882519483566)
(X_683  -0.0029411755967885256)
(X_684  -0.0029411755967885256)
(X_685  0.09705882519483566)
(X_686  0.09705882519483566)
(X_687  0.09705882519483566)
(X_688  0.10098039358854294)
(X_689  0.10098039358854294)
(X_690  0.10098039358854294)
(X_691  0.10098039358854294)
(X_692  0.10098039358854294)
(X_693  0.10098039358854294)
(X_694  0.10098039358854294)
(X_695  0.10098039358854294)
(X_696  0.10490196198225021)
(X_697  0.004901961423456669)
(X_698  0.004901961423456669)
(X_699  0.0009803927969187498)
(X_700  0.09313725680112839)
(X_701  0.09313725680112839)
(X_702  0.09313725680112839)
(X_703  0.09313725680112839)
(X_704  0.09313725680112839)
(X_705  0.09313725680112839)
(X_706  -0.006862743757665157)
(X_707  -0.006862743757665157)
(X_708  -0.0029411755967885256)
(X_709  -0.0029411755967885256)
(X_710  -0.0029411755967885256)
(X_711  -0.0029411755967885256)
(X_712  -0.0029411755967885256)
(X_713  -0.0029411755967885256)
(X_714  0.09705882519483566)
(X_715  0.09705882519483566)
(X_716  -0.0029411755967885256)
(X_717  -0.0029411755967885256)
(X_718  -0.0029411755967885256)
(X_719  -0.0029411755967885256)
(X_720  -0.0029411755967885256)
(X_721  -0.0029411755967885256)
(X_722  -0.0029411755967885256)
(X_723  -0.0029411755967885256)
(X_724  0.0009803927969187498)
(X_725  0.0009803927969187498)
(X_726  0.0009803927969187498)
(X_727  0.0009803927969187498)
(X_728  0.09313725680112839)
(X_729  0.09313725680112839)
(X_730  0.09313725680112839)
(X_731  0.09313725680112839)
(X_732  0.09313725680112839)
(X_733  0.09313725680112839)
(X_734  0.09313725680112839)
(X_735  0.09313725680112839)
(X_736  -0.0029411755967885256)
(X_737  -0.0029411755967885256)
(X_738  -0.0029411755967885256)
(X_739  -0.0029411755967885256)
(X_740  -0.0029411755967885256)
(X_741  -0.0029411755967885256)
(X_742  -0.0029411755967885256)
(X_743  -0.0029411755967885256)
(X_744  -0.006862743757665157)
(X_745  -0.006862743757665157)
(X_746  -0.006862743757665157)
(X_747  -0.006862743757665157)
(X_748  -0.006862743757665157)
(X_749  0.09313725680112839)
(X_750  0.09313725680112839)
(X_751  0.09313725680112839)
(X_752  0.09705882519483566)
(X_753  0.09705882519483566)
(X_754  0.09705882519483566)
(X_755  0.09313725680112839)
(X_756  -0.006862743757665157)
(X_757  -0.006862743757665157)
(X_758  -0.006862743757665157)
(X_759  -0.006862743757665157)
(X_760  0.09313725680112839)
(X_761  0.09313725680112839)
(X_762  0.09313725680112839)
(X_763  0.09313725680112839)
(X_764  0.09313725680112839)
(X_765  0.09313725680112839)
(X_766  0.09313725680112839)
(X_767  0.09313725680112839)
(X_768  0.09313725680112839)
(X_769  0.09313725680112839)
(X_770  0.09313725680112839)
(X_771  0.09313725680112839)
(X_772  0.08921568840742111)
(X_773  -0.010784312151372433)
(X_774  -0.010784312151372433)
(X_775  -0.010784312151372433)
(X_776  -0.010784312151372433)
(X_777  -0.010784312151372433)
(X_778  0.08921568840742111)
(X_779  0.08921568840742111)
(X_780  0.09313725680112839)
(X_781  -0.006862743757665157)
(X_782  -0.006862743757665157)
(X_783  0.08921568840742111)
(Y_0 33.197471618652344)
(Y_1 -6.676210880279541)
(Y_2 19.70270538330078)
(Y_3 -46.85163116455078))