((X_0  1.034313678741455)
(X_1  0.9343137145042419)
(X_2  0.9343137145042419)
(X_3  0.9303921461105347)
(X_4  0.9303921461105347)
(X_5  0.9303921461105347)
(X_6  0.9303921461105347)
(X_7  0.9303921461105347)
(X_8  0.9755997061729431)
(X_9  1.034313678741455)
(X_10  1.034313678741455)
(X_11  0.9834428429603577)
(X_12  0.9343137145042419)
(X_13  1.0303921699523926)
(X_14  1.0264705419540405)
(X_15  1.022549033164978)
(X_16  0.9225490093231201)
(X_17  0.949999988079071)
(X_18  0.9421568512916565)
(X_19  0.9264705777168274)
(X_20  1.0421568155288696)
(X_21  1.0264705419540405)
(X_22  1.0107842683792114)
(X_23  1.034313678741455)
(X_24  1.0382353067398071)
(X_25  0.9891061186790466)
(X_26  0.9343137145042419)
(X_27  0.9303921461105347)
(X_28  0.49313727021217346)
(X_29  0.39313724637031555)
(X_30  0.39313724637031555)
(X_31  0.39313724637031555)
(X_32  0.3892156779766083)
(X_33  0.3813725411891937)
(X_34  0.37745097279548645)
(X_35  0.4735294282436371)
(X_36  0.49313727021217346)
(X_37  0.41698282957077026)
(X_38  0.4049019515514374)
(X_39  0.4049019515514374)
(X_40  0.4009803831577301)
(X_41  0.49313727021217346)
(X_42  0.48137256503105164)
(X_43  0.4735294282436371)
(X_44  0.4852941334247589)
(X_45  0.5088235139846802)
(X_46  0.3970588147640228)
(X_47  0.3892156779766083)
(X_48  0.40882351994514465)
(X_49  0.3970588147640228)
(X_50  0.37745097279548645)
(X_51  0.3970588147640228)
(X_52  0.5049019455909729)
(X_53  0.4049019515514374)
(X_54  0.4049019515514374)
(X_55  0.5009803771972656)
(X_56  0.2343137264251709)
(X_57  0.13823530077934265)
(X_58  0.14215686917304993)
(X_59  0.14215686917304993)
(X_60  0.13431373238563538)
(X_61  0.12254902720451355)
(X_62  0.11078432202339172)
(X_63  0.10294118523597717)
(X_64  0.11862745881080627)
(X_65  0.12647059559822083)
(X_66  0.2343137264251709)
(X_67  0.23823529481887817)
(X_68  0.2343137264251709)
(X_69  0.22254902124404907)
(X_70  0.21078431606292725)
(X_71  0.0990196168422699)
(X_72  0.11078432202339172)
(X_73  0.1303921639919281)
(X_74  0.114705890417099)
(X_75  0.11078432202339172)
(X_76  0.23823529481887817)
(X_77  0.23039215803146362)
(X_78  0.11078432202339172)
(X_79  0.22647058963775635)
(X_80  0.23039215803146362)
(X_81  0.23039215803146362)
(X_82  0.23039215803146362)
(X_83  0.22647058963775635)
(X_84  0.2343137264251709)
(X_85  0.24215686321258545)
(X_86  0.25)
(X_87  0.2539215683937073)
(X_88  0.15000000596046448)
(X_89  0.13823530077934265)
(X_90  0.12254902720451355)
(X_91  0.114705890417099)
(X_92  0.12254902720451355)
(X_93  0.12647059559822083)
(X_94  0.1303921639919281)
(X_95  0.2343137264251709)
(X_96  0.2343137264251709)
(X_97  0.23039215803146362)
(X_98  0.22647058963775635)
(X_99  0.22254902124404907)
(X_100  0.21078431606292725)
(X_101  0.22647058963775635)
(X_102  0.10686275362968445)
(X_103  0.10686275362968445)
(X_104  0.14215686917304993)
(X_105  0.13431373238563538)
(X_106  0.11078432202339172)
(X_107  0.12647059559822083)
(X_108  0.12254902720451355)
(X_109  0.12254902720451355)
(X_110  0.12254902720451355)
(X_111  0.22254902124404907)
(X_112  0.10294118523597717)
(X_113  0.21078431606292725)
(X_114  0.12254902720451355)
(X_115  0.1303921639919281)
(X_116  0.1303921639919281)
(X_117  0.12254902720451355)
(X_118  0.114705890417099)
(X_119  0.10686275362968445)
(X_120  0.12254902720451355)
(X_121  0.11862745881080627)
(X_122  0.11862745881080627)
(X_123  0.11862745881080627)
(X_124  0.22254902124404907)
(X_125  0.18518458306789398)
(X_126  0.13823530077934265)
(X_127  0.1460784375667572)
(X_128  0.2029411792755127)
(X_129  0.22254902124404907)
(X_130  0.20686274766921997)
(X_131  0.20686274766921997)
(X_132  0.2343137264251709)
(X_133  0.22647058963775635)
(X_134  0.10686275362968445)
(X_135  0.22254902124404907)
(X_136  0.22254902124404907)
(X_137  0.12254902720451355)
(X_138  0.1677566021680832)
(X_139  0.22254902124404907)
(X_140  0.19117647409439087)
(X_141  0.19901961088180542)
(X_142  0.10686275362968445)
(X_143  0.2186274528503418)
(X_144  0.11862745881080627)
(X_145  0.11862745881080627)
(X_146  0.11078432202339172)
(X_147  0.20686274766921997)
(X_148  0.20686274766921997)
(X_149  0.20686274766921997)
(X_150  0.10686275362968445)
(X_151  0.10686275362968445)
(X_152  0.21078431606292725)
(X_153  0.22254902124404907)
(X_154  0.23039215803146362)
(X_155  0.2343137264251709)
(X_156  0.136384055018425)
(X_157  0.1677566021680832)
(X_158  0.21470588445663452)
(X_159  0.2029411792755127)
(X_160  0.22254902124404907)
(X_161  0.10686275362968445)
(X_162  0.09509804844856262)
(X_163  0.22254902124404907)
(X_164  0.22254902124404907)
(X_165  0.12254902720451355)
(X_166  0.12254902720451355)
(X_167  0.22254902124404907)
(X_168  0.09509804844856262)
(X_169  0.19509804248809814)
(X_170  0.0990196168422699)
(X_171  0.2029411792755127)
(X_172  0.2029411792755127)
(X_173  0.10294118523597717)
(X_174  0.0990196168422699)
(X_175  0.19901961088180542)
(X_176  0.18333333730697632)
(X_177  0.1872549057006836)
(X_178  0.19509804248809814)
(X_179  0.19901961088180542)
(X_180  0.2029411792755127)
(X_181  0.0990196168422699)
(X_182  0.09509804844856262)
(X_183  0.09117648005485535)
(X_184  0.17549020051956177)
(X_185  0.2186274528503418)
(X_186  0.2186274528503418)
(X_187  0.2029411792755127)
(X_188  0.2029411792755127)
(X_189  0.0833333432674408)
(X_190  0.07941177487373352)
(X_191  0.21470588445663452)
(X_192  0.2029411792755127)
(X_193  0.2029411792755127)
(X_194  0.10294118523597717)
(X_195  0.10686275362968445)
(X_196  0.11078432202339172)
(X_197  0.20686274766921997)
(X_198  0.10686275362968445)
(X_199  0.10294118523597717)
(X_200  0.10294118523597717)
(X_201  0.0990196168422699)
(X_202  0.0990196168422699)
(X_203  0.0990196168422699)
(X_204  0.09117648005485535)
(X_205  0.10294118523597717)
(X_206  0.2186274528503418)
(X_207  0.22647058963775635)
(X_208  0.22254902124404907)
(X_209  0.10686275362968445)
(X_210  0.08725491166114807)
(X_211  0.17549020051956177)
(X_212  0.19509804248809814)
(X_213  0.24215686321258545)
(X_214  0.25)
(X_215  0.23039215803146362)
(X_216  0.2186274528503418)
(X_217  0.19509804248809814)
(X_218  0.19509804248809814)
(X_219  0.24215686321258545)
(X_220  0.20686274766921997)
(X_221  0.20686274766921997)
(X_222  0.11078432202339172)
(X_223  0.21078431606292725)
(X_224  0.114705890417099)
(X_225  0.09509804844856262)
(X_226  0.17941176891326904)
(X_227  0.18333333730697632)
(X_228  0.08725491166114807)
(X_229  0.08725491166114807)
(X_230  0.10294118523597717)
(X_231  0.12254902720451355)
(X_232  0.17941176891326904)
(X_233  0.06372549384832382)
(X_234  0.06372549384832382)
(X_235  0.19117647409439087)
(X_236  0.15599189698696136)
(X_237  0.11078432202339172)
(X_238  0.10294118523597717)
(X_239  0.10294118523597717)
(X_240  0.13823530077934265)
(X_241  0.2186274528503418)
(X_242  0.19509804248809814)
(X_243  0.1872549057006836)
(X_244  0.19117647409439087)
(X_245  0.19509804248809814)
(X_246  0.19901961088180542)
(X_247  0.19901961088180542)
(X_248  0.0990196168422699)
(X_249  0.10686275362968445)
(X_250  0.114705890417099)
(X_251  0.20686274766921997)
(X_252  0.07941177487373352)
(X_253  0.07549020648002625)
(X_254  0.13812576234340668)
(X_255  0.19901961088180542)
(X_256  0.19509804248809814)
(X_257  0.16764706373214722)
(X_258  0.1558823585510254)
(X_259  0.1558823585510254)
(X_260  0.13431373238563538)
(X_261  0.10294118523597717)
(X_262  0.0833333432674408)
(X_263  0.12854091823101044)
(X_264  0.17941176891326904)
(X_265  0.17549020051956177)
(X_266  0.18333333730697632)
(X_267  0.19509804248809814)
(X_268  0.19117647409439087)
(X_269  0.2029411792755127)
(X_270  0.21078431606292725)
(X_271  0.15773360431194305)
(X_272  0.07941177487373352)
(X_273  0.16764706373214722)
(X_274  0.1715686321258545)
(X_275  0.07941177487373352)
(X_276  0.0833333432674408)
(X_277  0.08725491166114807)
(X_278  0.08725491166114807)
(X_279  0.0833333432674408)
(X_280  0.1872549057006836)
(X_281  0.18333333730697632)
(X_282  0.09509804844856262)
(X_283  0.114705890417099)
(X_284  0.114705890417099)
(X_285  0.19117647409439087)
(X_286  0.17549020051956177)
(X_287  0.17941176891326904)
(X_288  0.05588235333561897)
(X_289  0.0519607849419117)
(X_290  0.06372549384832382)
(X_291  0.17941176891326904)
(X_292  0.12854091823101044)
(X_293  0.07549020648002625)
(X_294  0.0833333432674408)
(X_295  0.2029411792755127)
(X_296  0.19117647409439087)
(X_297  0.1834428757429123)
(X_298  0.18137255311012268)
(X_299  0.18529412150382996)
(X_300  0.2539215683937073)
(X_301  0.23039215803146362)
(X_302  0.23823529481887817)
(X_303  0.15784314274787903)
(X_304  0.12254902720451355)
(X_305  0.10686275362968445)
(X_306  0.08725491166114807)
(X_307  0.07156863063573837)
(X_308  0.1872549057006836)
(X_309  0.16764706373214722)
(X_310  0.1558823585510254)
(X_311  0.0676470622420311)
(X_312  0.07156863063573837)
(X_313  0.07549020648002625)
(X_314  0.09509804844856262)
(X_315  0.11862745881080627)
(X_316  0.22647058963775635)
(X_317  0.2186274528503418)
(X_318  0.22254902124404907)
(X_319  0.23039215803146362)
(X_320  0.22647058963775635)
(X_321  0.12254902720451355)
(X_322  0.15000000596046448)
(X_323  0.18529412150382996)
(X_324  0.3029411733150482)
(X_325  0.3539215624332428)
(X_326  0.4049019515514374)
(X_327  0.42450979351997375)
(X_328  0.46361595392227173)
(X_329  0.4518512487411499)
(X_330  0.5088235139846802)
(X_331  0.5284313559532166)
(X_332  0.41873699426651)
(X_333  0.44607844948768616)
(X_334  0.31470587849617004)
(X_335  0.29509803652763367)
(X_336  0.3696078360080719)
(X_337  0.4421568810939789)
(X_338  0.4225490391254425)
(X_339  0.41862747073173523)
(X_340  0.4225490391254425)
(X_341  0.4264706075191498)
(X_342  0.4047924280166626)
(X_343  0.37745097279548645)
(X_344  0.4852941334247589)
(X_345  0.34607842564582825)
(X_346  0.3577336072921753)
(X_347  0.26372548937797546)
(X_348  0.240196093916893)
(X_349  0.24803923070430756)
(X_350  0.29509803652763367)
(X_351  0.34607842564582825)
(X_352  0.45000001788139343)
(X_353  0.4696078598499298)
(X_354  0.39313724637031555)
(X_355  0.4049019515514374)
(X_356  0.5088235139846802)
(X_357  0.5049019455909729)
(X_358  0.5049019455909729)
(X_359  0.5088235139846802)
(X_360  0.5480391979217529)
(X_361  0.5323529243469238)
(X_362  0.41274508833885193)
(X_363  0.41274508833885193)
(X_364  0.4362744987010956)
(X_365  0.5166666507720947)
(X_366  0.5088235139846802)
(X_367  0.5127450823783875)
(X_368  0.5049019455909729)
(X_369  0.4892157018184662)
(X_370  0.385294109582901)
(X_371  0.3970588147640228)
(X_372  0.34215685725212097)
(X_373  0.3343137204647064)
(X_374  0.43039217591285706)
(X_375  0.4421568810939789)
(X_376  0.38344287872314453)
(X_377  0.3343137204647064)
(X_378  0.34607842564582825)
(X_379  0.3696078360080719)
(X_380  0.4892157018184662)
(X_381  0.47745099663734436)
(X_382  0.46568629145622253)
(X_383  0.46568629145622253)
(X_384  0.3696078360080719)
(X_385  0.3656862676143646)
(X_386  0.3499999940395355)
(X_387  0.3343137204647064)
(X_388  0.4421568810939789)
(X_389  0.4382353127002716)
(X_390  0.34215685725212097)
(X_391  0.3499999940395355)
(X_392  0.41470590233802795)
(X_393  0.4107843339443207)
(X_394  0.3225490152835846)
(X_395  0.4421568810939789)
(X_396  0.44607844948768616)
(X_397  0.43039217591285706)
(X_398  0.4264706075191498)
(X_399  0.3343137204647064)
(X_400  0.3656862676143646)
(X_401  0.3696078360080719)
(X_402  0.49705883860588074)
(X_403  0.5362744927406311)
(X_404  0.44411763548851013)
(X_405  0.4205882251262665)
(X_406  0.39313724637031555)
(X_407  0.48137256503105164)
(X_408  0.5480391979217529)
(X_409  0.5323529243469238)
(X_410  0.520588219165802)
(X_411  0.520588219165802)
(X_412  0.5245097875595093)
(X_413  0.42450979351997375)
(X_414  0.41274508833885193)
(X_415  0.5009803771972656)
(X_416  0.3068627417087555)
(X_417  0.3225490152835846)
(X_418  0.34607842564582825)
(X_419  0.36176469922065735)
(X_420  0.22058825194835663)
(X_421  0.21666668355464935)
(X_422  0.23627452552318573)
(X_423  0.27156862616539)
(X_424  0.29901960492134094)
(X_425  0.31078431010246277)
(X_426  0.33039215207099915)
(X_427  0.3539215624332428)
(X_428  0.31078431010246277)
(X_429  0.2598039209842682)
(X_430  0.20098040997982025)
(X_431  0.16568627953529358)
(X_432  0.23823529481887817)
(X_433  0.20686274766921997)
(X_434  0.08725491166114807)
(X_435  0.0833333432674408)
(X_436  0.21078431606292725)
(X_437  0.21078431606292725)
(X_438  0.2186274528503418)
(X_439  0.1303921639919281)
(X_440  0.1460784375667572)
(X_441  0.15392157435417175)
(X_442  0.15784314274787903)
(X_443  0.15784314274787903)
(X_444  0.1774509847164154)
(X_445  0.21274511516094208)
(X_446  0.26372548937797546)
(X_447  0.3442271947860718)
(X_448  0.6617647409439087)
(X_449  0.6068627834320068)
(X_450  0.5401960611343384)
(X_451  0.5284313559532166)
(X_452  0.5676470994949341)
(X_453  0.5480391979217529)
(X_454  0.3794117867946625)
(X_455  0.19901961088180542)
(X_456  0.07156863063573837)
(X_457  0.17941176891326904)
(X_458  0.19509804248809814)
(X_459  0.15991346538066864)
(X_460  0.1834428757429123)
(X_461  0.25784313678741455)
(X_462  0.1774509847164154)
(X_463  0.18529412150382996)
(X_464  0.24803923070430756)
(X_465  0.24803923070430756)
(X_466  0.21666668355464935)
(X_467  0.25)
(X_468  0.2029411792755127)
(X_469  0.19509804248809814)
(X_470  0.20686274766921997)
(X_471  0.21078431606292725)
(X_472  0.23823529481887817)
(X_473  0.21078431606292725)
(X_474  0.2029411792755127)
(X_475  0.22647058963775635)
(X_476  0.4754902124404907)
(X_477  0.5068627595901489)
(X_478  0.4833333492279053)
(X_479  0.48137256503105164)
(X_480  0.29509803652763367)
(X_481  0.2872548997402191)
(X_482  0.3186274468898773)
(X_483  0.3343137204647064)
(X_484  0.344117671251297)
(X_485  0.33627453446388245)
(X_486  0.3284313976764679)
(X_487  0.22058825194835663)
(X_488  0.21666668355464935)
(X_489  0.3245098292827606)
(X_490  0.33235296607017517)
(X_491  0.33627453446388245)
(X_492  0.18921568989753723)
(X_493  0.3245098292827606)
(X_494  0.3558823764324188)
(X_495  0.3558823764324188)
(X_496  0.3558823764324188)
(X_497  0.3715686500072479)
(X_498  0.38333335518836975)
(X_499  0.2872548997402191)
(X_500  0.457843154668808)
(X_501  0.33039215207099915)
(X_502  0.3225490152835846)
(X_503  0.3912860155105591)
(X_504  0.33235296607017517)
(X_505  0.3246193528175354)
(X_506  0.387254923582077)
(X_507  0.3245098292827606)
(X_508  0.2696078419685364)
(X_509  0.18529412150382996)
(X_510  0.24411766231060028)
(X_511  0.2872548997402191)
(X_512  0.3186274468898773)
(X_513  0.29901960492134094)
(X_514  0.27156862616539)
(X_515  0.24411766231060028)
(X_516  0.2245098203420639)
(X_517  0.21666668355464935)
(X_518  0.21274511516094208)
(X_519  0.21666668355464935)
(X_520  0.1617647111415863)
(X_521  0.20490197837352753)
(X_522  0.24803923070430756)
(X_523  0.26372548937797546)
(X_524  0.2754901945590973)
(X_525  0.3950980603694916)
(X_526  0.4068627655506134)
(X_527  0.40294119715690613)
(X_528  0.3343137204647064)
(X_529  0.31078431010246277)
(X_530  0.3029411733150482)
(X_531  0.3225490152835846)
(X_532  0.21470588445663452)
(X_533  0.22647058963775635)
(X_534  0.23039215803146362)
(X_535  0.2343137264251709)
(X_536  0.2539215683937073)
(X_537  0.1774509847164154)
(X_538  0.16960784792900085)
(X_539  0.1460784375667572)
(X_540  0.22058825194835663)
(X_541  0.22874757647514343)
(X_542  0.28921568393707275)
(X_543  0.2656862735748291)
(X_544  0.15000000596046448)
(X_545  0.13823530077934265)
(X_546  0.13431373238563538)
(X_547  0.1303921639919281)
(X_548  0.2539215683937073)
(X_549  0.16960784792900085)
(X_550  0.16960784792900085)
(X_551  0.15000000596046448)
(X_552  0.24215686321258545)
(X_553  0.25784313678741455)
(X_554  0.27352941036224365)
(X_555  0.17352941632270813)
(X_556  0.2852941155433655)
(X_557  0.16568627953529358)
(X_558  0.2126355618238449)
(X_559  0.17352941632270813)
(X_560  0.20686274766921997)
(X_561  0.11862745881080627)
(X_562  0.114705890417099)
(X_563  0.08725491166114807)
(X_564  0.0676470622420311)
(X_565  0.07549020648002625)
(X_566  0.0990196168422699)
(X_567  0.11078432202339172)
(X_568  0.11862745881080627)
(X_569  0.114705890417099)
(X_570  0.114705890417099)
(X_571  0.11078432202339172)
(X_572  0.10294118523597717)
(X_573  0.09117648005485535)
(X_574  0.0833333432674408)
(X_575  0.07941177487373352)
(X_576  0.0990196168422699)
(X_577  0.10686275362968445)
(X_578  0.09509804844856262)
(X_579  0.0676470622420311)
(X_580  0.16372549533843994)
(X_581  0.18333333730697632)
(X_582  0.0990196168422699)
(X_583  0.0990196168422699)
(X_584  0.19117647409439087)
(X_585  0.07549020648002625)
(X_586  0.1715686321258545)
(X_587  0.0833333432674408)
(X_588  0.15980392694473267)
(X_589  0.0676470622420311)
(X_590  0.11285463720560074)
(X_591  0.10108992457389832)
(X_592  0.08932521939277649)
(X_593  0.04803921654820442)
(X_594  0.16764706373214722)
(X_595  0.18333333730697632)
(X_596  0.09541422873735428)
(X_597  0.0833333432674408)
(X_598  0.08725491166114807)
(X_599  0.09117648005485535)
(X_600  0.09117648005485535)
(X_601  0.07941177487373352)
(X_602  0.1715686321258545)
(X_603  0.16372549533843994)
(X_604  0.15196079015731812)
(X_605  0.16764706373214722)
(X_606  0.17549020051956177)
(X_607  0.16764706373214722)
(X_608  0.1715686321258545)
(X_609  0.18333333730697632)
(X_610  0.12461934983730316)
(X_611  0.06372549384832382)
(X_612  0.05588235333561897)
(X_613  0.04411764815449715)
(X_614  0.14411765336990356)
(X_615  0.15196079015731812)
(X_616  0.15196079015731812)
(X_617  0.14411765336990356)
(X_618  0.04803921654820442)
(X_619  0.07549020648002625)
(X_620  0.10686275362968445)
(X_621  0.21078431606292725)
(X_622  0.09509804844856262)
(X_623  0.07549020648002625)
(X_624  0.16372549533843994)
(X_625  0.1185179203748703)
(X_626  0.16764706373214722)
(X_627  0.0676470622420311)
(X_628  0.0676470622420311)
(X_629  0.06372549384832382)
(X_630  0.15980392694473267)
(X_631  0.15980392694473267)
(X_632  0.09498851001262665)
(X_633  0.05980392172932625)
(X_634  0.07156863063573837)
(X_635  0.0676470622420311)
(X_636  0.1715686321258545)
(X_637  0.17549020051956177)
(X_638  0.15980392694473267)
(X_639  0.036274511367082596)
(X_640  0.1715686321258545)
(X_641  0.16372549533843994)
(X_642  0.16764706373214722)
(X_643  0.17549020051956177)
(X_644  0.15980392694473267)
(X_645  0.1558823585510254)
(X_646  0.14803922176361084)
(X_647  0.04019607976078987)
(X_648  0.028431374579668045)
(X_649  0.02450980618596077)
(X_650  0.1401960849761963)
(X_651  0.16764706373214722)
(X_652  0.1558823585510254)
(X_653  0.0519607849419117)
(X_654  0.04803921654820442)
(X_655  0.04803921654820442)
(X_656  0.04803921654820442)
(X_657  0.0519607849419117)
(X_658  0.05980392172932625)
(X_659  0.06372549384832382)
(X_660  0.14411765336990356)
(X_661  0.15196079015731812)
(X_662  0.15196079015731812)
(X_663  0.04803921654820442)
(X_664  0.05588235333561897)
(X_665  0.16764706373214722)
(X_666  0.16764706373214722)
(X_667  0.04803921654820442)
(X_668  0.0519607849419117)
(X_669  0.04411764815449715)
(X_670  0.04803921654820442)
(X_671  0.05980392172932625)
(X_672  0.136274516582489)
(X_673  0.036274511367082596)
(X_674  0.04019607976078987)
(X_675  0.1401960849761963)
(X_676  0.08540365099906921)
(X_677  0.14411765336990356)
(X_678  0.14411765336990356)
(X_679  0.04411764815449715)
(X_680  0.04019607976078987)
(X_681  0.136274516582489)
(X_682  0.136274516582489)
(X_683  0.1401960849761963)
(X_684  0.04803921654820442)
(X_685  0.0519607849419117)
(X_686  0.04411764815449715)
(X_687  0.036274511367082596)
(X_688  0.14411765336990356)
(X_689  0.14411765336990356)
(X_690  0.04411764815449715)
(X_691  0.04411764815449715)
(X_692  0.14411765336990356)
(X_693  0.14411765336990356)
(X_694  0.04803921654820442)
(X_695  0.04803921654820442)
(X_696  0.1401960849761963)
(X_697  0.1401960849761963)
(X_698  0.1401960849761963)
(X_699  0.1401960849761963)
(X_700  0.13235294818878174)
(X_701  0.13235294818878174)
(X_702  0.136274516582489)
(X_703  0.136274516582489)
(X_704  0.036274511367082596)
(X_705  0.04019607976078987)
(X_706  0.04019607976078987)
(X_707  0.04019607976078987)
(X_708  0.036274511367082596)
(X_709  0.03235294297337532)
(X_710  0.12843137979507446)
(X_711  0.136274516582489)
(X_712  0.14411765336990356)
(X_713  0.04411764815449715)
(X_714  0.04019607976078987)
(X_715  0.036274511367082596)
(X_716  0.04019607976078987)
(X_717  0.04019607976078987)
(X_718  0.04019607976078987)
(X_719  0.04019607976078987)
(X_720  0.1401960849761963)
(X_721  0.1401960849761963)
(X_722  0.04019607976078987)
(X_723  0.04019607976078987)
(X_724  0.1558823585510254)
(X_725  0.05588235333561897)
(X_726  0.1558823585510254)
(X_727  0.1558823585510254)
(X_728  0.12843137979507446)
(X_729  0.07363894581794739)
(X_730  0.12843137979507446)
(X_731  0.13235294818878174)
(X_732  0.13235294818878174)
(X_733  0.13235294818878174)
(X_734  0.136274516582489)
(X_735  0.136274516582489)
(X_736  0.13235294818878174)
(X_737  0.028431374579668045)
(X_738  0.02450980618596077)
(X_739  0.028431374579668045)
(X_740  0.036274511367082596)
(X_741  0.04019607976078987)
(X_742  0.136274516582489)
(X_743  0.13235294818878174)
(X_744  0.036274511367082596)
(X_745  0.036274511367082596)
(X_746  0.036274511367082596)
(X_747  0.036274511367082596)
(X_748  0.036274511367082596)
(X_749  0.036274511367082596)
(X_750  0.036274511367082596)
(X_751  0.036274511367082596)
(X_752  0.1401960849761963)
(X_753  0.1401960849761963)
(X_754  0.1401960849761963)
(X_755  0.1401960849761963)
(X_756  0.12058823555707932)
(X_757  0.020588237792253494)
(X_758  0.02450980618596077)
(X_759  0.12450980395078659)
(X_760  0.02450980618596077)
(X_761  0.12843137979507446)
(X_762  0.12843137979507446)
(X_763  0.12843137979507446)
(X_764  0.12843137979507446)
(X_765  0.12058823555707932)
(X_766  0.11666666716337204)
(X_767  0.12058823555707932)
(X_768  0.12843137979507446)
(X_769  0.03235294297337532)
(X_770  0.03235294297337532)
(X_771  0.028431374579668045)
(X_772  0.03235294297337532)
(X_773  0.03235294297337532)
(X_774  0.03235294297337532)
(X_775  0.028431374579668045)
(X_776  0.12843137979507446)
(X_777  0.12843137979507446)
(X_778  0.12843137979507446)
(X_779  0.12843137979507446)
(X_780  0.020588237792253494)
(X_781  0.020588237792253494)
(X_782  0.020588237792253494)
(X_783  0.12058823555707932)
(Y_0 -29.637508392333984)
(Y_1 32.99420928955078)
(Y_2 -27.967348098754883)
(Y_3 22.803823471069336))