((X_0  0.07941177487373352)
(X_1  0.0676470622420311)
(X_2  0.14803922176361084)
(X_3  0.04019607976078987)
(X_4  0.04411764815449715)
(X_5  0.04803921654820442)
(X_6  0.0519607849419117)
(X_7  0.15196079015731812)
(X_8  0.15196079015731812)
(X_9  0.14803922176361084)
(X_10  0.14411765336990356)
(X_11  0.14411765336990356)
(X_12  0.15196079015731812)
(X_13  0.06372549384832382)
(X_14  0.07156863063573837)
(X_15  0.17549020051956177)
(X_16  0.1558823585510254)
(X_17  0.14411765336990356)
(X_18  0.13235294818878174)
(X_19  0.13235294818878174)
(X_20  0.13235294818878174)
(X_21  0.136274516582489)
(X_22  0.15196079015731812)
(X_23  0.16764706373214722)
(X_24  0.05588235333561897)
(X_25  0.15980392694473267)
(X_26  0.06372549384832382)
(X_27  0.0676470622420311)
(X_28  0.05588235333561897)
(X_29  0.1558823585510254)
(X_30  0.15980392694473267)
(X_31  0.0676470622420311)
(X_32  0.1715686321258545)
(X_33  0.16372549533843994)
(X_34  0.14411765336990356)
(X_35  0.13235294818878174)
(X_36  0.1715686321258545)
(X_37  0.16764706373214722)
(X_38  0.15980392694473267)
(X_39  0.15196079015731812)
(X_40  0.1401960849761963)
(X_41  0.13235294818878174)
(X_42  0.12843137979507446)
(X_43  0.12450980395078659)
(X_44  0.11666666716337204)
(X_45  0.13235294818878174)
(X_46  0.15196079015731812)
(X_47  0.1715686321258545)
(X_48  0.16764706373214722)
(X_49  0.15196079015731812)
(X_50  0.136274516582489)
(X_51  0.12843137979507446)
(X_52  0.04803921654820442)
(X_53  0.14803922176361084)
(X_54  0.14411765336990356)
(X_55  0.04411764815449715)
(X_56  0.036274511367082596)
(X_57  0.1401960849761963)
(X_58  0.14803922176361084)
(X_59  0.16372549533843994)
(X_60  0.17549020051956177)
(X_61  0.17549020051956177)
(X_62  0.16764706373214722)
(X_63  0.1558823585510254)
(X_64  0.1401960849761963)
(X_65  0.1401960849761963)
(X_66  0.14411765336990356)
(X_67  0.1558823585510254)
(X_68  0.16764706373214722)
(X_69  0.17549020051956177)
(X_70  0.17549020051956177)
(X_71  0.1715686321258545)
(X_72  0.18333333730697632)
(X_73  0.17941176891326904)
(X_74  0.16764706373214722)
(X_75  0.0519607849419117)
(X_76  0.04019607976078987)
(X_77  0.04019607976078987)
(X_78  0.0519607849419117)
(X_79  0.06372549384832382)
(X_80  0.0676470622420311)
(X_81  0.06372549384832382)
(X_82  0.05980392172932625)
(X_83  0.05980392172932625)
(X_84  0.09117648005485535)
(X_85  0.17549020051956177)
(X_86  0.1558823585510254)
(X_87  0.04803921654820442)
(X_88  0.04803921654820442)
(X_89  0.15196079015731812)
(X_90  0.15196079015731812)
(X_91  0.15196079015731812)
(X_92  0.06372549384832382)
(X_93  0.14803922176361084)
(X_94  0.14411765336990356)
(X_95  0.17941176891326904)
(X_96  0.13431373238563538)
(X_97  0.17352941632270813)
(X_98  0.1774509847164154)
(X_99  0.1617647111415863)
(X_100  0.16568627953529358)
(X_101  0.15392157435417175)
(X_102  0.114705890417099)
(X_103  0.0676470622420311)
(X_104  0.04411764815449715)
(X_105  0.06372549384832382)
(X_106  0.19901961088180542)
(X_107  0.2186274528503418)
(X_108  0.09117648005485535)
(X_109  0.07941177487373352)
(X_110  0.16764706373214722)
(X_111  0.0519607849419117)
(X_112  0.6343137621879578)
(X_113  0.6107843518257141)
(X_114  0.5754902362823486)
(X_115  0.44019606709480286)
(X_116  0.4166666567325592)
(X_117  0.3970588147640228)
(X_118  0.3813725411891937)
(X_119  0.3696078360080719)
(X_120  0.4696078598499298)
(X_121  0.4225490391254425)
(X_122  0.3911764919757843)
(X_123  0.4068627655506134)
(X_124  0.36176469922065735)
(X_125  0.49705883860588074)
(X_126  0.47745099663734436)
(X_127  0.44607844948768616)
(X_128  0.33039215207099915)
(X_129  0.3499999940395355)
(X_130  0.34607842564582825)
(X_131  0.31470587849617004)
(X_132  0.29509803652763367)
(X_133  0.4068627655506134)
(X_134  0.4225490391254425)
(X_135  0.3225490152835846)
(X_136  0.46176472306251526)
(X_137  0.44607844948768616)
(X_138  0.3225490152835846)
(X_139  0.29901960492134094)
(X_140  0.44411763548851013)
(X_141  0.44019606709480286)
(X_142  0.42843136191368103)
(X_143  0.4166666567325592)
(X_144  0.4009803831577301)
(X_145  0.47745099663734436)
(X_146  0.44607844948768616)
(X_147  0.3225490152835846)
(X_148  0.385294109582901)
(X_149  0.3382352888584137)
(X_150  0.2911764681339264)
(X_151  0.2872548997402191)
(X_152  0.31078431010246277)
(X_153  0.31470587849617004)
(X_154  0.387254923582077)
(X_155  0.3480392396450043)
(X_156  0.344117671251297)
(X_157  0.3794117867946625)
(X_158  0.38333335518836975)
(X_159  0.25196078419685364)
(X_160  0.24411766231060028)
(X_161  0.2754901945590973)
(X_162  0.3068627417087555)
(X_163  0.31470587849617004)
(X_164  0.43431374430656433)
(X_165  0.43431374430656433)
(X_166  0.43039217591285706)
(X_167  0.32647058367729187)
(X_168  0.4068627655506134)
(X_169  0.4068627655506134)
(X_170  0.31078431010246277)
(X_171  0.3186274468898773)
(X_172  0.32647058367729187)
(X_173  0.3186274468898773)
(X_174  0.3029411733150482)
(X_175  0.2911764681339264)
(X_176  0.27941176295280457)
(X_177  0.26764705777168274)
(X_178  0.25196078419685364)
(X_179  0.23235295712947845)
(X_180  0.21274511516094208)
(X_181  0.18529412150382996)
(X_182  0.15784314274787903)
(X_183  0.13823530077934265)
(X_184  0.14215686917304993)
(X_185  0.18137255311012268)
(X_186  0.28921568393707275)
(X_187  0.25784313678741455)
(X_188  0.25)
(X_189  0.29313725233078003)
(X_190  0.33627453446388245)
(X_191  0.24411766231060028)
(X_192  0.20098040997982025)
(X_193  0.20490197837352753)
(X_194  0.21666668355464935)
(X_195  0.33235296607017517)
(X_196  0.3558823764324188)
(X_197  0.344117671251297)
(X_198  0.2245098203420639)
(X_199  0.21666668355464935)
(X_200  0.22058825194835663)
(X_201  0.22843138873577118)
(X_202  0.23235295712947845)
(X_203  0.23235295712947845)
(X_204  0.20490197837352753)
(X_205  0.22843138873577118)
(X_206  0.23627452552318573)
(X_207  0.30490198731422424)
(X_208  0.23823529481887817)
(X_209  0.18333333730697632)
(X_210  0.1558823585510254)
(X_211  0.15196079015731812)
(X_212  0.03235294297337532)
(X_213  0.11078432202339172)
(X_214  0.2696078419685364)
(X_215  0.2656862735748291)
(X_216  0.25)
(X_217  0.15784314274787903)
(X_218  0.1460784375667572)
(X_219  0.114705890417099)
(X_220  0.1931372582912445)
(X_221  0.29313725233078003)
(X_222  0.2970588207244873)
(X_223  0.2970588207244873)
(X_224  0.2696078419685364)
(X_225  0.2774509787559509)
(X_226  0.27352941036224365)
(X_227  0.2617647051811218)
(X_228  0.2656862735748291)
(X_229  0.2813725471496582)
(X_230  0.28921568393707275)
(X_231  0.2813725471496582)
(X_232  0.2617647051811218)
(X_233  0.2696078419685364)
(X_234  0.2696078419685364)
(X_235  0.24607843160629272)
(X_236  0.20686274766921997)
(X_237  0.17941176891326904)
(X_238  0.1715686321258545)
(X_239  0.17549020051956177)
(X_240  0.1558823585510254)
(X_241  0.22254902124404907)
(X_242  0.16960784792900085)
(X_243  0.16568627953529358)
(X_244  0.15392157435417175)
(X_245  0.15784314274787903)
(X_246  0.24215686321258545)
(X_247  0.21078431606292725)
(X_248  0.2186274528503418)
(X_249  0.24215686321258545)
(X_250  0.2656862735748291)
(X_251  0.27352941036224365)
(X_252  0.29901960492134094)
(X_253  0.29901960492134094)
(X_254  0.3754902184009552)
(X_255  0.3401961028575897)
(X_256  0.21666668355464935)
(X_257  0.21274511516094208)
(X_258  0.20098040997982025)
(X_259  0.18137255311012268)
(X_260  0.2813725471496582)
(X_261  0.2852941155433655)
(X_262  0.2774509787559509)
(X_263  0.24607843160629272)
(X_264  0.10686275362968445)
(X_265  0.0833333432674408)
(X_266  0.0833333432674408)
(X_267  0.09117648005485535)
(X_268  0.2343137264251709)
(X_269  0.23039215803146362)
(X_270  0.19901961088180542)
(X_271  0.15196079015731812)
(X_272  0.13235294818878174)
(X_273  0.16372549533843994)
(X_274  0.21470588445663452)
(X_275  0.24607843160629272)
(X_276  0.10294118523597717)
(X_277  0.12254902720451355)
(X_278  0.24215686321258545)
(X_279  0.24215686321258545)
(X_280  0.551960825920105)
(X_281  0.551960825920105)
(X_282  0.5362744927406311)
(X_283  0.5088235139846802)
(X_284  0.49313727021217346)
(X_285  0.39313724637031555)
(X_286  0.3892156779766083)
(X_287  0.3735294044017792)
(X_288  0.4539215862751007)
(X_289  0.45000001788139343)
(X_290  0.43431374430656433)
(X_291  0.40294119715690613)
(X_292  0.27156862616539)
(X_293  0.2558823525905609)
(X_294  0.3598039448261261)
(X_295  0.3715686500072479)
(X_296  0.2696078419685364)
(X_297  0.24215686321258545)
(X_298  0.11078432202339172)
(X_299  0.08725491166114807)
(X_300  0.06372549384832382)
(X_301  0.06372549384832382)
(X_302  0.0990196168422699)
(X_303  0.14215686917304993)
(X_304  0.23235295712947845)
(X_305  0.24411766231060028)
(X_306  0.2598039209842682)
(X_307  0.3598039448261261)
(X_308  0.19705882668495178)
(X_309  0.3088235557079315)
(X_310  0.3088235557079315)
(X_311  0.20490197837352753)
(X_312  0.21274511516094208)
(X_313  0.23627452552318573)
(X_314  0.24803923070430756)
(X_315  0.240196093916893)
(X_316  0.3598039448261261)
(X_317  0.2558823525905609)
(X_318  0.24411766231060028)
(X_319  0.2245098203420639)
(X_320  0.20490197837352753)
(X_321  0.29313725233078003)
(X_322  0.2970588207244873)
(X_323  0.30490198731422424)
(X_324  0.2245098203420639)
(X_325  0.2088235467672348)
(X_326  0.21666668355464935)
(X_327  0.23627452552318573)
(X_328  0.32058826088905334)
(X_329  0.2813725471496582)
(X_330  0.2774509787559509)
(X_331  0.30098041892051697)
(X_332  0.22843138873577118)
(X_333  0.240196093916893)
(X_334  0.35196080803871155)
(X_335  0.35196080803871155)
(X_336  0.2029411792755127)
(X_337  0.114705890417099)
(X_338  0.114705890417099)
(X_339  0.10294118523597717)
(X_340  0.11078432202339172)
(X_341  0.1303921639919281)
(X_342  0.24215686321258545)
(X_343  0.23823529481887817)
(X_344  0.1460784375667572)
(X_345  0.15000000596046448)
(X_346  0.25)
(X_347  0.24607843160629272)
(X_348  0.23823529481887817)
(X_349  0.23039215803146362)
(X_350  0.22647058963775635)
(X_351  0.12647059559822083)
(X_352  0.11078432202339172)
(X_353  0.0833333432674408)
(X_354  0.07941177487373352)
(X_355  0.19901961088180542)
(X_356  0.19901961088180542)
(X_357  0.07941177487373352)
(X_358  0.09117648005485535)
(X_359  0.12647059559822083)
(X_360  0.0990196168422699)
(X_361  0.11078432202339172)
(X_362  0.2186274528503418)
(X_363  0.22647058963775635)
(X_364  0.17941176891326904)
(X_365  0.1872549057006836)
(X_366  0.0833333432674408)
(X_367  0.0676470622420311)
(X_368  0.0676470622420311)
(X_369  0.08725491166114807)
(X_370  0.09117648005485535)
(X_371  0.0833333432674408)
(X_372  0.1558823585510254)
(X_373  0.15980392694473267)
(X_374  0.16372549533843994)
(X_375  0.16764706373214722)
(X_376  0.16764706373214722)
(X_377  0.16372549533843994)
(X_378  0.1558823585510254)
(X_379  0.15196079015731812)
(X_380  0.17549020051956177)
(X_381  0.0676470622420311)
(X_382  0.07156863063573837)
(X_383  0.0833333432674408)
(X_384  0.19117647409439087)
(X_385  0.19117647409439087)
(X_386  0.0990196168422699)
(X_387  0.11078432202339172)
(X_388  0.06372549384832382)
(X_389  0.07156863063573837)
(X_390  0.0833333432674408)
(X_391  0.09117648005485535)
(X_392  0.06372549384832382)
(X_393  0.1715686321258545)
(X_394  0.16764706373214722)
(X_395  0.0519607849419117)
(X_396  0.0519607849419117)
(X_397  0.07156863063573837)
(X_398  0.17549020051956177)
(X_399  0.16764706373214722)
(X_400  0.18333333730697632)
(X_401  0.17941176891326904)
(X_402  0.07549020648002625)
(X_403  0.07549020648002625)
(X_404  0.07549020648002625)
(X_405  0.07549020648002625)
(X_406  0.07156863063573837)
(X_407  0.07156863063573837)
(X_408  0.11666666716337204)
(X_409  0.136274516582489)
(X_410  0.15196079015731812)
(X_411  0.1558823585510254)
(X_412  0.06372549384832382)
(X_413  0.0676470622420311)
(X_414  0.05588235333561897)
(X_415  0.03235294297337532)
(X_416  0.14411765336990356)
(X_417  0.14803922176361084)
(X_418  0.1558823585510254)
(X_419  0.16764706373214722)
(X_420  0.19117647409439087)
(X_421  0.19901961088180542)
(X_422  0.1872549057006836)
(X_423  0.16372549533843994)
(X_424  0.1558823585510254)
(X_425  0.16764706373214722)
(X_426  0.0676470622420311)
(X_427  0.05588235333561897)
(X_428  0.07941177487373352)
(X_429  0.16764706373214722)
(X_430  0.15196079015731812)
(X_431  0.1401960849761963)
(X_432  0.1401960849761963)
(X_433  0.04411764815449715)
(X_434  0.04411764815449715)
(X_435  0.14411765336990356)
(X_436  0.14803922176361084)
(X_437  0.16372549533843994)
(X_438  0.04803921654820442)
(X_439  0.01666666939854622)
(X_440  0.020588237792253494)
(X_441  0.0519607849419117)
(X_442  0.15980392694473267)
(X_443  0.136274516582489)
(X_444  0.13235294818878174)
(X_445  0.13235294818878174)
(X_446  0.136274516582489)
(X_447  0.04803921654820442)
(X_448  0.03235294297337532)
(X_449  0.04019607976078987)
(X_450  0.04803921654820442)
(X_451  0.04803921654820442)
(X_452  0.04411764815449715)
(X_453  0.04803921654820442)
(X_454  0.0519607849419117)
(X_455  0.05980392172932625)
(X_456  0.0519607849419117)
(X_457  0.04803921654820442)
(X_458  0.04019607976078987)
(X_459  0.13235294818878174)
(X_460  0.03235294297337532)
(X_461  0.04019607976078987)
(X_462  0.04803921654820442)
(X_463  0.0519607849419117)
(X_464  0.1558823585510254)
(X_465  0.15196079015731812)
(X_466  0.04803921654820442)
(X_467  0.04803921654820442)
(X_468  0.04803921654820442)
(X_469  0.04803921654820442)
(X_470  0.0519607849419117)
(X_471  0.05588235333561897)
(X_472  0.0519607849419117)
(X_473  0.0519607849419117)
(X_474  0.15196079015731812)
(X_475  0.0519607849419117)
(X_476  0.11274509876966476)
(X_477  0.01666666939854622)
(X_478  0.02450980618596077)
(X_479  0.02450980618596077)
(X_480  0.12450980395078659)
(X_481  0.12450980395078659)
(X_482  0.13235294818878174)
(X_483  0.136274516582489)
(X_484  0.04019607976078987)
(X_485  0.036274511367082596)
(X_486  0.12843137979507446)
(X_487  0.12450980395078659)
(X_488  0.12450980395078659)
(X_489  0.12843137979507446)
(X_490  0.136274516582489)
(X_491  0.1401960849761963)
(X_492  0.13235294818878174)
(X_493  0.12843137979507446)
(X_494  0.12843137979507446)
(X_495  0.02450980618596077)
(X_496  0.02450980618596077)
(X_497  0.028431374579668045)
(X_498  0.028431374579668045)
(X_499  0.03235294297337532)
(X_500  0.028431374579668045)
(X_501  0.12843137979507446)
(X_502  0.12843137979507446)
(X_503  0.028431374579668045)
(X_504  0.09705882519483566)
(X_505  0.0009803927969187498)
(X_506  0.10882353037595749)
(X_507  0.008823529817163944)
(X_508  0.10490196198225021)
(X_509  0.10490196198225021)
(X_510  0.11274509876966476)
(X_511  0.020588237792253494)
(X_512  0.12450980395078659)
(X_513  0.020588237792253494)
(X_514  0.01666666939854622)
(X_515  0.012745101936161518)
(X_516  0.11274509876966476)
(X_517  0.11666666716337204)
(X_518  0.12058823555707932)
(X_519  0.12450980395078659)
(X_520  0.11274509876966476)
(X_521  0.11274509876966476)
(X_522  0.10882353037595749)
(X_523  0.10490196198225021)
(X_524  0.10490196198225021)
(X_525  0.10882353037595749)
(X_526  0.11274509876966476)
(X_527  0.012745101936161518)
(X_528  0.10882353037595749)
(X_529  0.10882353037595749)
(X_530  0.10882353037595749)
(X_531  0.008823529817163944)
(X_532  0.09705882519483566)
(X_533  0.0009803927969187498)
(X_534  0.008823529817163944)
(X_535  0.008823529817163944)
(X_536  0.10490196198225021)
(X_537  0.10490196198225021)
(X_538  0.10882353037595749)
(X_539  0.11666666716337204)
(X_540  0.10882353037595749)
(X_541  0.004901961423456669)
(X_542  0.0009803927969187498)
(X_543  0.0009803927969187498)
(X_544  0.0009803927969187498)
(X_545  0.10098039358854294)
(X_546  0.10490196198225021)
(X_547  0.10882353037595749)
(X_548  0.008823529817163944)
(X_549  0.008823529817163944)
(X_550  0.004901961423456669)
(X_551  0.004901961423456669)
(X_552  0.004901961423456669)
(X_553  0.004901961423456669)
(X_554  0.008823529817163944)
(X_555  0.10882353037595749)
(X_556  0.10490196198225021)
(X_557  0.10490196198225021)
(X_558  0.10490196198225021)
(X_559  0.004901961423456669)
(X_560  -0.0029411755967885256)
(X_561  0.10098039358854294)
(X_562  0.10490196198225021)
(X_563  0.004901961423456669)
(X_564  0.0009803927969187498)
(X_565  0.0009803927969187498)
(X_566  0.004901961423456669)
(X_567  0.008823529817163944)
(X_568  -0.0029411755967885256)
(X_569  -0.0029411755967885256)
(X_570  0.09313725680112839)
(X_571  0.09313725680112839)
(X_572  0.09313725680112839)
(X_573  0.09313725680112839)
(X_574  0.09705882519483566)
(X_575  0.09705882519483566)
(X_576  0.10490196198225021)
(X_577  0.10490196198225021)
(X_578  0.0009803927969187498)
(X_579  -0.0029411755967885256)
(X_580  0.09705882519483566)
(X_581  0.0009803927969187498)
(X_582  0.004901961423456669)
(X_583  0.004901961423456669)
(X_584  0.0009803927969187498)
(X_585  0.10098039358854294)
(X_586  0.10098039358854294)
(X_587  0.0009803927969187498)
(X_588  0.08921568840742111)
(X_589  0.09313725680112839)
(X_590  0.09705882519483566)
(X_591  -0.0029411755967885256)
(X_592  -0.010784312151372433)
(X_593  -0.010784312151372433)
(X_594  -0.006862743757665157)
(X_595  0.0009803927969187498)
(X_596  -0.010784312151372433)
(X_597  -0.010784312151372433)
(X_598  -0.006862743757665157)
(X_599  -0.006862743757665157)
(X_600  0.09313725680112839)
(X_601  0.09313725680112839)
(X_602  0.08921568840742111)
(X_603  0.08921568840742111)
(X_604  0.09313725680112839)
(X_605  -0.006862743757665157)
(X_606  -0.010784312151372433)
(X_607  -0.010784312151372433)
(X_608  -0.010784312151372433)
(X_609  -0.010784312151372433)
(X_610  -0.006862743757665157)
(X_611  0.09313725680112839)
(X_612  0.09313725680112839)
(X_613  0.09313725680112839)
(X_614  0.09313725680112839)
(X_615  -0.006862743757665157)
(X_616  -0.010784312151372433)
(X_617  -0.006862743757665157)
(X_618  0.09705882519483566)
(X_619  -0.006862743757665157)
(X_620  0.08921568840742111)
(X_621  -0.014705880545079708)
(X_622  -0.010784312151372433)
(X_623  -0.0029411755967885256)
(X_624  -0.010784312151372433)
(X_625  -0.010784312151372433)
(X_626  -0.006862743757665157)
(X_627  -0.006862743757665157)
(X_628  0.09313725680112839)
(X_629  0.09313725680112839)
(X_630  0.08921568840742111)
(X_631  -0.010784312151372433)
(X_632  -0.006862743757665157)
(X_633  -0.010784312151372433)
(X_634  -0.014705880545079708)
(X_635  -0.014705880545079708)
(X_636  -0.014705880545079708)
(X_637  -0.014705880545079708)
(X_638  -0.010784312151372433)
(X_639  0.09313725680112839)
(X_640  0.08921568840742111)
(X_641  0.08921568840742111)
(X_642  -0.010784312151372433)
(X_643  -0.010784312151372433)
(X_644  0.09313725680112839)
(X_645  0.10098039358854294)
(X_646  0.10490196198225021)
(X_647  0.0009803927969187498)
(X_648  0.09313725680112839)
(X_649  0.09313725680112839)
(X_650  0.09705882519483566)
(X_651  0.10098039358854294)
(X_652  -0.010784312151372433)
(X_653  -0.006862743757665157)
(X_654  0.09313725680112839)
(X_655  0.09705882519483566)
(X_656  -0.0029411755967885256)
(X_657  -0.006862743757665157)
(X_658  -0.006862743757665157)
(X_659  0.08921568840742111)
(X_660  -0.0029411755967885256)
(X_661  -0.006862743757665157)
(X_662  -0.006862743757665157)
(X_663  0.08921568840742111)
(X_664  0.08921568840742111)
(X_665  -0.006862743757665157)
(X_666  -0.006862743757665157)
(X_667  0.09705882519483566)
(X_668  0.09313725680112839)
(X_669  0.09313725680112839)
(X_670  0.09313725680112839)
(X_671  0.09313725680112839)
(X_672  -0.006862743757665157)
(X_673  0.09313725680112839)
(X_674  0.09313725680112839)
(X_675  0.09313725680112839)
(X_676  0.09313725680112839)
(X_677  -0.006862743757665157)
(X_678  -0.006862743757665157)
(X_679  -0.006862743757665157)
(X_680  -0.010784312151372433)
(X_681  -0.010784312151372433)
(X_682  -0.010784312151372433)
(X_683  -0.010784312151372433)
(X_684  -0.010784312151372433)
(X_685  -0.010784312151372433)
(X_686  -0.010784312151372433)
(X_687  -0.010784312151372433)
(X_688  -0.006862743757665157)
(X_689  -0.006862743757665157)
(X_690  -0.006862743757665157)
(X_691  -0.006862743757665157)
(X_692  -0.006862743757665157)
(X_693  -0.006862743757665157)
(X_694  0.09313725680112839)
(X_695  0.09313725680112839)
(X_696  0.08921568840742111)
(X_697  0.08921568840742111)
(X_698  0.08921568840742111)
(X_699  -0.010784312151372433)
(X_700  0.08529412001371384)
(X_701  0.08529412001371384)
(X_702  0.08529412001371384)
(X_703  0.08529412001371384)
(X_704  0.08529412001371384)
(X_705  0.08529412001371384)
(X_706  0.08529412001371384)
(X_707  0.08529412001371384)
(X_708  0.08529412001371384)
(X_709  0.08529412001371384)
(X_710  0.08529412001371384)
(X_711  -0.014705880545079708)
(X_712  -0.014705880545079708)
(X_713  -0.014705880545079708)
(X_714  0.08529412001371384)
(X_715  0.08529412001371384)
(X_716  -0.014705880545079708)
(X_717  0.08529412001371384)
(X_718  0.08529412001371384)
(X_719  0.08529412001371384)
(X_720  0.08529412001371384)
(X_721  0.08529412001371384)
(X_722  0.08529412001371384)
(X_723  0.08529412001371384)
(X_724  0.08529412001371384)
(X_725  0.08529412001371384)
(X_726  0.08529412001371384)
(X_727  -0.014705880545079708)
(X_728  -0.022549020126461983)
(X_729  0.07745098322629929)
(X_730  0.07745098322629929)
(X_731  0.07745098322629929)
(X_732  -0.022549020126461983)
(X_733  -0.022549020126461983)
(X_734  -0.022549020126461983)
(X_735  -0.022549020126461983)
(X_736  -0.018627449870109558)
(X_737  -0.018627449870109558)
(X_738  -0.018627449870109558)
(X_739  -0.018627449870109558)
(X_740  -0.018627449870109558)
(X_741  -0.018627449870109558)
(X_742  -0.018627449870109558)
(X_743  -0.018627449870109558)
(X_744  0.07745098322629929)
(X_745  0.07745098322629929)
(X_746  0.07745098322629929)
(X_747  0.07745098322629929)
(X_748  -0.022549020126461983)
(X_749  -0.022549020126461983)
(X_750  -0.022549020126461983)
(X_751  -0.022549020126461983)
(X_752  0.08137255162000656)
(X_753  0.08137255162000656)
(X_754  0.08137255162000656)
(X_755  -0.018627449870109558)
(X_756  -0.026470588520169258)
(X_757  0.07352941483259201)
(X_758  0.07352941483259201)
(X_759  -0.026470588520169258)
(X_760  -0.026470588520169258)
(X_761  -0.026470588520169258)
(X_762  -0.026470588520169258)
(X_763  -0.026470588520169258)
(X_764  -0.022549020126461983)
(X_765  0.07745098322629929)
(X_766  0.07745098322629929)
(X_767  0.07745098322629929)
(X_768  0.07745098322629929)
(X_769  0.07745098322629929)
(X_770  0.07745098322629929)
(X_771  0.07745098322629929)
(X_772  0.07352941483259201)
(X_773  0.07352941483259201)
(X_774  0.07352941483259201)
(X_775  0.07352941483259201)
(X_776  0.07352941483259201)
(X_777  0.07352941483259201)
(X_778  0.07352941483259201)
(X_779  0.07352941483259201)
(X_780  0.07745098322629929)
(X_781  0.07745098322629929)
(X_782  0.07745098322629929)
(X_783  0.07745098322629929)
(Y_0 45.25587844848633)
(Y_1 -48.898189544677734)
(Y_2 15.731804847717285)
(Y_3 -9.799140930175781))