((X_0  0.114705890417099)
(X_1  0.11078432202339172)
(X_2  0.10294118523597717)
(X_3  0.0990196168422699)
(X_4  0.09509804844856262)
(X_5  0.09117648005485535)
(X_6  0.19117647409439087)
(X_7  0.19117647409439087)
(X_8  0.19901961088180542)
(X_9  0.19901961088180542)
(X_10  0.2029411792755127)
(X_11  0.20686274766921997)
(X_12  0.21078431606292725)
(X_13  0.21470588445663452)
(X_14  0.11862745881080627)
(X_15  0.11862745881080627)
(X_16  0.09117648005485535)
(X_17  0.08725491166114807)
(X_18  0.08725491166114807)
(X_19  0.09117648005485535)
(X_20  0.0990196168422699)
(X_21  0.114705890417099)
(X_22  0.23039215803146362)
(X_23  0.23823529481887817)
(X_24  0.12254902720451355)
(X_25  0.12647059559822083)
(X_26  0.13431373238563538)
(X_27  0.13823530077934265)
(X_28  0.14411765336990356)
(X_29  0.04411764815449715)
(X_30  0.04411764815449715)
(X_31  0.14411765336990356)
(X_32  0.14411765336990356)
(X_33  0.04019607976078987)
(X_34  0.04019607976078987)
(X_35  0.04019607976078987)
(X_36  0.136274516582489)
(X_37  0.036274511367082596)
(X_38  0.036274511367082596)
(X_39  0.136274516582489)
(X_40  0.136274516582489)
(X_41  0.1401960849761963)
(X_42  0.1401960849761963)
(X_43  0.1401960849761963)
(X_44  0.028431374579668045)
(X_45  0.028431374579668045)
(X_46  0.02450980618596077)
(X_47  0.028431374579668045)
(X_48  0.036274511367082596)
(X_49  0.04411764815449715)
(X_50  0.15196079015731812)
(X_51  0.15980392694473267)
(X_52  0.136274516582489)
(X_53  0.136274516582489)
(X_54  0.14411765336990356)
(X_55  0.04803921654820442)
(X_56  0.11274509876966476)
(X_57  0.01666666939854622)
(X_58  0.02450980618596077)
(X_59  0.028431374579668045)
(X_60  0.13235294818878174)
(X_61  0.12843137979507446)
(X_62  0.02450980618596077)
(X_63  0.02450980618596077)
(X_64  0.028431374579668045)
(X_65  0.028431374579668045)
(X_66  0.12843137979507446)
(X_67  0.12450980395078659)
(X_68  0.12450980395078659)
(X_69  0.12058823555707932)
(X_70  0.12058823555707932)
(X_71  0.12058823555707932)
(X_72  0.14803922176361084)
(X_73  0.14803922176361084)
(X_74  0.04411764815449715)
(X_75  0.04411764815449715)
(X_76  0.04019607976078987)
(X_77  0.136274516582489)
(X_78  0.136274516582489)
(X_79  0.136274516582489)
(X_80  0.13235294818878174)
(X_81  0.136274516582489)
(X_82  0.136274516582489)
(X_83  0.04019607976078987)
(X_84  0.028431374579668045)
(X_85  0.03235294297337532)
(X_86  0.04411764815449715)
(X_87  0.04803921654820442)
(X_88  0.14803922176361084)
(X_89  0.14411765336990356)
(X_90  0.136274516582489)
(X_91  0.12843137979507446)
(X_92  0.1401960849761963)
(X_93  0.1401960849761963)
(X_94  0.1401960849761963)
(X_95  0.04019607976078987)
(X_96  0.04019607976078987)
(X_97  0.04019607976078987)
(X_98  0.04019607976078987)
(X_99  0.04019607976078987)
(X_100  0.12843137979507446)
(X_101  0.03235294297337532)
(X_102  0.036274511367082596)
(X_103  0.04019607976078987)
(X_104  0.1401960849761963)
(X_105  0.04019607976078987)
(X_106  0.04019607976078987)
(X_107  0.036274511367082596)
(X_108  0.03235294297337532)
(X_109  0.036274511367082596)
(X_110  0.136274516582489)
(X_111  0.04019607976078987)
(X_112  0.13235294818878174)
(X_113  0.136274516582489)
(X_114  0.1401960849761963)
(X_115  0.14411765336990356)
(X_116  0.04019607976078987)
(X_117  0.03235294297337532)
(X_118  0.020588237792253494)
(X_119  0.012745101936161518)
(X_120  0.012745101936161518)
(X_121  0.012745101936161518)
(X_122  0.01666666939854622)
(X_123  0.020588237792253494)
(X_124  0.02450980618596077)
(X_125  0.02450980618596077)
(X_126  0.028431374579668045)
(X_127  0.028431374579668045)
(X_128  0.012745101936161518)
(X_129  0.020588237792253494)
(X_130  0.02450980618596077)
(X_131  0.03235294297337532)
(X_132  0.04019607976078987)
(X_133  0.04411764815449715)
(X_134  0.04411764815449715)
(X_135  0.04411764815449715)
(X_136  0.12450980395078659)
(X_137  0.12450980395078659)
(X_138  0.12843137979507446)
(X_139  0.12843137979507446)
(X_140  0.13235294818878174)
(X_141  0.136274516582489)
(X_142  0.136274516582489)
(X_143  0.136274516582489)
(X_144  0.028431374579668045)
(X_145  0.020588237792253494)
(X_146  0.012745101936161518)
(X_147  0.008823529817163944)
(X_148  0.11274509876966476)
(X_149  0.012745101936161518)
(X_150  0.11666666716337204)
(X_151  0.12058823555707932)
(X_152  0.12450980395078659)
(X_153  0.13235294818878174)
(X_154  0.13235294818878174)
(X_155  0.136274516582489)
(X_156  0.04019607976078987)
(X_157  0.036274511367082596)
(X_158  0.03235294297337532)
(X_159  0.02450980618596077)
(X_160  0.11666666716337204)
(X_161  0.10882353037595749)
(X_162  0.10490196198225021)
(X_163  0.10098039358854294)
(X_164  0.12058823555707932)
(X_165  0.12058823555707932)
(X_166  0.12450980395078659)
(X_167  0.12843137979507446)
(X_168  0.036274511367082596)
(X_169  0.036274511367082596)
(X_170  0.03235294297337532)
(X_171  0.03235294297337532)
(X_172  0.028431374579668045)
(X_173  0.028431374579668045)
(X_174  0.12450980395078659)
(X_175  0.02450980618596077)
(X_176  0.136274516582489)
(X_177  0.036274511367082596)
(X_178  0.036274511367082596)
(X_179  0.1401960849761963)
(X_180  0.1401960849761963)
(X_181  0.14411765336990356)
(X_182  0.14411765336990356)
(X_183  0.14803922176361084)
(X_184  0.020588237792253494)
(X_185  0.020588237792253494)
(X_186  0.020588237792253494)
(X_187  0.02450980618596077)
(X_188  0.03235294297337532)
(X_189  0.14411765336990356)
(X_190  0.15196079015731812)
(X_191  0.15980392694473267)
(X_192  0.20686274766921997)
(X_193  0.20686274766921997)
(X_194  0.21470588445663452)
(X_195  0.2186274528503418)
(X_196  0.12450980395078659)
(X_197  0.12450980395078659)
(X_198  0.12058823555707932)
(X_199  0.12058823555707932)
(X_200  0.020588237792253494)
(X_201  0.02450980618596077)
(X_202  0.028431374579668045)
(X_203  0.03235294297337532)
(X_204  0.028431374579668045)
(X_205  0.028431374579668045)
(X_206  0.028431374579668045)
(X_207  0.02450980618596077)
(X_208  0.02450980618596077)
(X_209  0.02450980618596077)
(X_210  0.02450980618596077)
(X_211  0.020588237792253494)
(X_212  0.136274516582489)
(X_213  0.15196079015731812)
(X_214  0.18333333730697632)
(X_215  0.23039215803146362)
(X_216  0.28921568393707275)
(X_217  0.3480392396450043)
(X_218  0.29509803652763367)
(X_219  0.3225490152835846)
(X_220  0.33039215207099915)
(X_221  0.33039215207099915)
(X_222  0.3382352888584137)
(X_223  0.34215685725212097)
(X_224  0.02450980618596077)
(X_225  0.12450980395078659)
(X_226  0.020588237792253494)
(X_227  0.12058823555707932)
(X_228  0.02450980618596077)
(X_229  0.020588237792253494)
(X_230  0.012745101936161518)
(X_231  0.004901961423456669)
(X_232  0.12843137979507446)
(X_233  0.136274516582489)
(X_234  0.13235294818878174)
(X_235  0.12058823555707932)
(X_236  0.10490196198225021)
(X_237  0.11274509876966476)
(X_238  0.14411765336990356)
(X_239  0.17549020051956177)
(X_240  0.2970588207244873)
(X_241  0.2598039209842682)
(X_242  0.41862747073173523)
(X_243  0.44607844948768616)
(X_244  0.457843154668808)
(X_245  0.46568629145622253)
(X_246  0.45000001788139343)
(X_247  0.3225490152835846)
(X_248  0.32647058367729187)
(X_249  0.3225490152835846)
(X_250  0.3186274468898773)
(X_251  0.4107843339443207)
(X_252  0.2539215683937073)
(X_253  0.2617647051811218)
(X_254  0.18137255311012268)
(X_255  0.3127451241016388)
(X_256  0.3401961028575897)
(X_257  0.3401961028575897)
(X_258  0.31666669249534607)
(X_259  0.29313725233078003)
(X_260  0.2343137264251709)
(X_261  0.114705890417099)
(X_262  0.08725491166114807)
(X_263  0.16764706373214722)
(X_264  0.1872549057006836)
(X_265  0.2539215683937073)
(X_266  0.3401961028575897)
(X_267  0.3029411733150482)
(X_268  0.2872548997402191)
(X_269  0.31078431010246277)
(X_270  0.3186274468898773)
(X_271  0.29509803652763367)
(X_272  0.27941176295280457)
(X_273  0.28333333134651184)
(X_274  0.27941176295280457)
(X_275  0.26764705777168274)
(X_276  0.22058825194835663)
(X_277  0.23235295712947845)
(X_278  0.344117671251297)
(X_279  0.3558823764324188)
(X_280  0.33039215207099915)
(X_281  0.32647058367729187)
(X_282  0.3343137204647064)
(X_283  0.3539215624332428)
(X_284  0.3696078360080719)
(X_285  0.46176472306251526)
(X_286  0.4264706075191498)
(X_287  0.29509803652763367)
(X_288  0.4068627655506134)
(X_289  0.39901962876319885)
(X_290  0.28333333134651184)
(X_291  0.26372548937797546)
(X_292  0.344117671251297)
(X_293  0.3245098292827606)
(X_294  0.21274511516094208)
(X_295  0.2088235467672348)
(X_296  0.23235295712947845)
(X_297  0.3401961028575897)
(X_298  0.33235296607017517)
(X_299  0.3088235557079315)
(X_300  0.2970588207244873)
(X_301  0.3088235557079315)
(X_302  0.22058825194835663)
(X_303  0.22058825194835663)
(X_304  0.29509803652763367)
(X_305  0.31470587849617004)
(X_306  0.34215685725212097)
(X_307  0.4696078598499298)
(X_308  0.27941176295280457)
(X_309  0.27941176295280457)
(X_310  0.2754901945590973)
(X_311  0.27941176295280457)
(X_312  0.28333333134651184)
(X_313  0.2872548997402191)
(X_314  0.2872548997402191)
(X_315  0.38333335518836975)
(X_316  0.2558823525905609)
(X_317  0.23235295712947845)
(X_318  0.20098040997982025)
(X_319  0.18529412150382996)
(X_320  0.29313725233078003)
(X_321  0.3127451241016388)
(X_322  0.33627453446388245)
(X_323  0.35196080803871155)
(X_324  0.24411766231060028)
(X_325  0.3754902184009552)
(X_326  0.41862747073173523)
(X_327  0.46568629145622253)
(X_328  0.41274508833885193)
(X_329  0.45196080207824707)
(X_330  0.4833333492279053)
(X_331  0.4950980544090271)
(X_332  0.551960825920105)
(X_333  0.5637255311012268)
(X_334  0.4833333492279053)
(X_335  0.6068627834320068)
(X_336  0.4264706075191498)
(X_337  0.43039217591285706)
(X_338  0.32647058367729187)
(X_339  0.3029411733150482)
(X_340  0.3715686500072479)
(X_341  0.3558823764324188)
(X_342  0.2558823525905609)
(X_343  0.26764705777168274)
(X_344  0.36764708161354065)
(X_345  0.36764708161354065)
(X_346  0.27941176295280457)
(X_347  0.3029411733150482)
(X_348  0.44607844948768616)
(X_349  0.4892157018184662)
(X_350  0.520588219165802)
(X_351  0.4362744987010956)
(X_352  0.5029411911964417)
(X_353  0.4911764860153198)
(X_354  0.479411780834198)
(X_355  0.45588237047195435)
(X_356  0.42450979351997375)
(X_357  0.37745097279548645)
(X_358  0.3382352888584137)
(X_359  0.41862747073173523)
(X_360  0.3558823764324188)
(X_361  0.3558823764324188)
(X_362  0.25196078419685364)
(X_363  0.3480392396450043)
(X_364  0.18137255311012268)
(X_365  0.22058825194835663)
(X_366  0.27156862616539)
(X_367  0.4107843339443207)
(X_368  0.43039217591285706)
(X_369  0.45000001788139343)
(X_370  0.4696078598499298)
(X_371  0.4852941334247589)
(X_372  0.4009803831577301)
(X_373  0.4205882251262665)
(X_374  0.44411763548851013)
(X_375  0.45196080207824707)
(X_376  0.5362744927406311)
(X_377  0.49705883860588074)
(X_378  0.4539215862751007)
(X_379  0.4264706075191498)
(X_380  0.3754902184009552)
(X_381  0.3480392396450043)
(X_382  0.22843138873577118)
(X_383  0.2245098203420639)
(X_384  0.3127451241016388)
(X_385  0.1931372582912445)
(X_386  0.18529412150382996)
(X_387  0.18529412150382996)
(X_388  0.29313725233078003)
(X_389  0.2774509787559509)
(X_390  0.25784313678741455)
(X_391  0.23823529481887817)
(X_392  0.42843136191368103)
(X_393  0.4205882251262665)
(X_394  0.5049019455909729)
(X_395  0.49313727021217346)
(X_396  0.4696078598499298)
(X_397  0.43431374430656433)
(X_398  0.3950980603694916)
(X_399  0.36764708161354065)
(X_400  0.2872548997402191)
(X_401  0.26764705777168274)
(X_402  0.22843138873577118)
(X_403  0.18529412150382996)
(X_404  0.15000000596046448)
(X_405  0.14215686917304993)
(X_406  0.25784313678741455)
(X_407  0.2813725471496582)
(X_408  0.2852941155433655)
(X_409  0.15000000596046448)
(X_410  0.12647059559822083)
(X_411  0.1303921639919281)
(X_412  0.1303921639919281)
(X_413  0.2186274528503418)
(X_414  0.21470588445663452)
(X_415  0.22647058963775635)
(X_416  0.15784314274787903)
(X_417  0.24215686321258545)
(X_418  0.22254902124404907)
(X_419  0.2029411792755127)
(X_420  0.25196078419685364)
(X_421  0.21274511516094208)
(X_422  0.27352941036224365)
(X_423  0.2696078419685364)
(X_424  0.28921568393707275)
(X_425  0.29313725233078003)
(X_426  0.2696078419685364)
(X_427  0.13823530077934265)
(X_428  0.11078432202339172)
(X_429  0.23039215803146362)
(X_430  0.1460784375667572)
(X_431  0.14215686917304993)
(X_432  0.22647058963775635)
(X_433  0.22254902124404907)
(X_434  0.23823529481887817)
(X_435  0.2539215683937073)
(X_436  0.10686275362968445)
(X_437  0.0833333432674408)
(X_438  0.07941177487373352)
(X_439  0.10294118523597717)
(X_440  0.114705890417099)
(X_441  0.0990196168422699)
(X_442  0.09117648005485535)
(X_443  0.09509804844856262)
(X_444  0.2186274528503418)
(X_445  0.20686274766921997)
(X_446  0.19509804248809814)
(X_447  0.18333333730697632)
(X_448  0.15392157435417175)
(X_449  0.25)
(X_450  0.24215686321258545)
(X_451  0.23039215803146362)
(X_452  0.21470588445663452)
(X_453  0.19901961088180542)
(X_454  0.18333333730697632)
(X_455  0.07549020648002625)
(X_456  0.08725491166114807)
(X_457  0.08725491166114807)
(X_458  0.08725491166114807)
(X_459  0.1872549057006836)
(X_460  0.1872549057006836)
(X_461  0.1872549057006836)
(X_462  0.1872549057006836)
(X_463  0.1872549057006836)
(X_464  0.2029411792755127)
(X_465  0.2029411792755127)
(X_466  0.0990196168422699)
(X_467  0.09117648005485535)
(X_468  0.07941177487373352)
(X_469  0.07941177487373352)
(X_470  0.0833333432674408)
(X_471  0.09117648005485535)
(X_472  0.0676470622420311)
(X_473  0.0676470622420311)
(X_474  0.06372549384832382)
(X_475  0.16372549533843994)
(X_476  0.10294118523597717)
(X_477  0.10294118523597717)
(X_478  0.0990196168422699)
(X_479  0.09117648005485535)
(X_480  0.0833333432674408)
(X_481  0.07549020648002625)
(X_482  0.06372549384832382)
(X_483  0.05980392172932625)
(X_484  0.04803921654820442)
(X_485  0.04803921654820442)
(X_486  0.04803921654820442)
(X_487  0.14803922176361084)
(X_488  0.14803922176361084)
(X_489  0.14803922176361084)
(X_490  0.14803922176361084)
(X_491  0.14803922176361084)
(X_492  0.1715686321258545)
(X_493  0.17549020051956177)
(X_494  0.07549020648002625)
(X_495  0.0676470622420311)
(X_496  0.1558823585510254)
(X_497  0.15196079015731812)
(X_498  0.1558823585510254)
(X_499  0.06372549384832382)
(X_500  0.04803921654820442)
(X_501  0.14803922176361084)
(X_502  0.04411764815449715)
(X_503  0.04411764815449715)
(X_504  0.04803921654820442)
(X_505  0.15196079015731812)
(X_506  0.15196079015731812)
(X_507  0.1558823585510254)
(X_508  0.15196079015731812)
(X_509  0.0519607849419117)
(X_510  0.04803921654820442)
(X_511  0.04803921654820442)
(X_512  0.136274516582489)
(X_513  0.036274511367082596)
(X_514  0.036274511367082596)
(X_515  0.136274516582489)
(X_516  0.136274516582489)
(X_517  0.136274516582489)
(X_518  0.136274516582489)
(X_519  0.136274516582489)
(X_520  0.13235294818878174)
(X_521  0.136274516582489)
(X_522  0.1401960849761963)
(X_523  0.036274511367082596)
(X_524  0.028431374579668045)
(X_525  0.020588237792253494)
(X_526  0.020588237792253494)
(X_527  0.02450980618596077)
(X_528  0.02450980618596077)
(X_529  0.02450980618596077)
(X_530  0.020588237792253494)
(X_531  0.12058823555707932)
(X_532  0.02450980618596077)
(X_533  0.028431374579668045)
(X_534  0.03235294297337532)
(X_535  0.036274511367082596)
(X_536  0.04019607976078987)
(X_537  0.04019607976078987)
(X_538  0.04019607976078987)
(X_539  0.04019607976078987)
(X_540  0.036274511367082596)
(X_541  0.036274511367082596)
(X_542  0.036274511367082596)
(X_543  0.136274516582489)
(X_544  0.136274516582489)
(X_545  0.036274511367082596)
(X_546  0.036274511367082596)
(X_547  0.136274516582489)
(X_548  0.004901961423456669)
(X_549  0.11274509876966476)
(X_550  0.12058823555707932)
(X_551  0.020588237792253494)
(X_552  0.012745101936161518)
(X_553  0.004901961423456669)
(X_554  0.0009803927969187498)
(X_555  0.0009803927969187498)
(X_556  0.11274509876966476)
(X_557  0.11274509876966476)
(X_558  0.008823529817163944)
(X_559  0.008823529817163944)
(X_560  0.020588237792253494)
(X_561  0.02450980618596077)
(X_562  0.02450980618596077)
(X_563  0.028431374579668045)
(X_564  0.028431374579668045)
(X_565  0.028431374579668045)
(X_566  0.02450980618596077)
(X_567  0.02450980618596077)
(X_568  0.11274509876966476)
(X_569  0.012745101936161518)
(X_570  0.012745101936161518)
(X_571  0.012745101936161518)
(X_572  0.11274509876966476)
(X_573  0.012745101936161518)
(X_574  0.012745101936161518)
(X_575  0.012745101936161518)
(X_576  -0.0029411755967885256)
(X_577  0.10490196198225021)
(X_578  0.012745101936161518)
(X_579  0.012745101936161518)
(X_580  0.008823529817163944)
(X_581  0.0009803927969187498)
(X_582  -0.0029411755967885256)
(X_583  -0.0029411755967885256)
(X_584  0.012745101936161518)
(X_585  0.11274509876966476)
(X_586  0.008823529817163944)
(X_587  0.008823529817163944)
(X_588  0.11274509876966476)
(X_589  0.11274509876966476)
(X_590  0.11274509876966476)
(X_591  0.012745101936161518)
(X_592  0.012745101936161518)
(X_593  0.008823529817163944)
(X_594  0.004901961423456669)
(X_595  0.0009803927969187498)
(X_596  0.0009803927969187498)
(X_597  0.0009803927969187498)
(X_598  0.10098039358854294)
(X_599  0.10098039358854294)
(X_600  0.10098039358854294)
(X_601  0.10098039358854294)
(X_602  0.10098039358854294)
(X_603  0.10098039358854294)
(X_604  -0.0029411755967885256)
(X_605  0.004901961423456669)
(X_606  0.008823529817163944)
(X_607  0.10882353037595749)
(X_608  0.10098039358854294)
(X_609  0.09705882519483566)
(X_610  0.0009803927969187498)
(X_611  0.004901961423456669)
(X_612  0.008823529817163944)
(X_613  0.10882353037595749)
(X_614  0.10882353037595749)
(X_615  0.008823529817163944)
(X_616  0.0009803927969187498)
(X_617  0.10098039358854294)
(X_618  0.10098039358854294)
(X_619  0.10098039358854294)
(X_620  0.10098039358854294)
(X_621  -0.0029411755967885256)
(X_622  -0.006862743757665157)
(X_623  -0.010784312151372433)
(X_624  0.10490196198225021)
(X_625  0.10490196198225021)
(X_626  0.10490196198225021)
(X_627  0.10490196198225021)
(X_628  0.10490196198225021)
(X_629  0.10490196198225021)
(X_630  0.10490196198225021)
(X_631  0.10490196198225021)
(X_632  0.09705882519483566)
(X_633  0.10098039358854294)
(X_634  0.10490196198225021)
(X_635  0.10098039358854294)
(X_636  0.09313725680112839)
(X_637  -0.006862743757665157)
(X_638  0.10098039358854294)
(X_639  0.10882353037595749)
(X_640  0.10098039358854294)
(X_641  0.10098039358854294)
(X_642  0.10098039358854294)
(X_643  -0.0029411755967885256)
(X_644  0.09705882519483566)
(X_645  0.09705882519483566)
(X_646  0.0009803927969187498)
(X_647  0.0009803927969187498)
(X_648  0.0009803927969187498)
(X_649  0.09705882519483566)
(X_650  0.09313725680112839)
(X_651  -0.006862743757665157)
(X_652  -0.0029411755967885256)
(X_653  -0.0029411755967885256)
(X_654  -0.0029411755967885256)
(X_655  -0.0029411755967885256)
(X_656  0.09705882519483566)
(X_657  0.09705882519483566)
(X_658  0.09705882519483566)
(X_659  0.09705882519483566)
(X_660  0.09313725680112839)
(X_661  0.09705882519483566)
(X_662  -0.0029411755967885256)
(X_663  -0.010784312151372433)
(X_664  -0.014705880545079708)
(X_665  -0.014705880545079708)
(X_666  -0.0029411755967885256)
(X_667  0.004901961423456669)
(X_668  -0.006862743757665157)
(X_669  -0.006862743757665157)
(X_670  -0.006862743757665157)
(X_671  0.08921568840742111)
(X_672  -0.010784312151372433)
(X_673  0.09313725680112839)
(X_674  0.09705882519483566)
(X_675  0.09705882519483566)
(X_676  0.09705882519483566)
(X_677  0.09705882519483566)
(X_678  0.09313725680112839)
(X_679  0.08921568840742111)
(X_680  0.09313725680112839)
(X_681  0.09313725680112839)
(X_682  0.08921568840742111)
(X_683  0.08921568840742111)
(X_684  -0.006862743757665157)
(X_685  0.09313725680112839)
(X_686  0.09705882519483566)
(X_687  0.10098039358854294)
(X_688  0.09705882519483566)
(X_689  0.09705882519483566)
(X_690  0.09705882519483566)
(X_691  0.09705882519483566)
(X_692  0.09705882519483566)
(X_693  0.09705882519483566)
(X_694  0.09705882519483566)
(X_695  0.09705882519483566)
(X_696  0.08921568840742111)
(X_697  -0.010784312151372433)
(X_698  -0.010784312151372433)
(X_699  0.08921568840742111)
(X_700  0.08921568840742111)
(X_701  0.08921568840742111)
(X_702  0.09313725680112839)
(X_703  0.09313725680112839)
(X_704  0.09313725680112839)
(X_705  0.09313725680112839)
(X_706  -0.010784312151372433)
(X_707  -0.010784312151372433)
(X_708  -0.010784312151372433)
(X_709  -0.010784312151372433)
(X_710  -0.014705880545079708)
(X_711  -0.014705880545079708)
(X_712  -0.010784312151372433)
(X_713  -0.006862743757665157)
(X_714  0.09705882519483566)
(X_715  0.09705882519483566)
(X_716  -0.006862743757665157)
(X_717  -0.006862743757665157)
(X_718  -0.006862743757665157)
(X_719  -0.006862743757665157)
(X_720  -0.006862743757665157)
(X_721  -0.006862743757665157)
(X_722  -0.006862743757665157)
(X_723  -0.006862743757665157)
(X_724  -0.010784312151372433)
(X_725  -0.010784312151372433)
(X_726  -0.010784312151372433)
(X_727  -0.010784312151372433)
(X_728  0.08137255162000656)
(X_729  0.08529412001371384)
(X_730  -0.014705880545079708)
(X_731  0.08921568840742111)
(X_732  0.08921568840742111)
(X_733  0.08529412001371384)
(X_734  0.08529412001371384)
(X_735  0.08137255162000656)
(X_736  -0.014705880545079708)
(X_737  -0.014705880545079708)
(X_738  -0.018627449870109558)
(X_739  -0.018627449870109558)
(X_740  -0.014705880545079708)
(X_741  0.08529412001371384)
(X_742  -0.010784312151372433)
(X_743  -0.006862743757665157)
(X_744  -0.010784312151372433)
(X_745  -0.010784312151372433)
(X_746  -0.010784312151372433)
(X_747  -0.010784312151372433)
(X_748  -0.010784312151372433)
(X_749  0.08921568840742111)
(X_750  0.08921568840742111)
(X_751  -0.010784312151372433)
(X_752  0.08921568840742111)
(X_753  -0.010784312151372433)
(X_754  0.08921568840742111)
(X_755  0.08921568840742111)
(X_756  -0.022549020126461983)
(X_757  -0.018627449870109558)
(X_758  -0.018627449870109558)
(X_759  0.08529412001371384)
(X_760  0.08529412001371384)
(X_761  0.08137255162000656)
(X_762  0.08137255162000656)
(X_763  0.07745098322629929)
(X_764  0.08137255162000656)
(X_765  0.08137255162000656)
(X_766  0.07745098322629929)
(X_767  0.07745098322629929)
(X_768  0.07745098322629929)
(X_769  0.08137255162000656)
(X_770  0.08529412001371384)
(X_771  0.08921568840742111)
(X_772  0.08529412001371384)
(X_773  0.08529412001371384)
(X_774  -0.014705880545079708)
(X_775  -0.014705880545079708)
(X_776  -0.014705880545079708)
(X_777  -0.014705880545079708)
(X_778  0.08529412001371384)
(X_779  0.08529412001371384)
(X_780  0.08529412001371384)
(X_781  -0.014705880545079708)
(X_782  -0.014705880545079708)
(X_783  0.08529412001371384)
(Y_0 32.217201232910156)
(Y_1 1.0445075035095215)
(Y_2 18.402223587036133)
(Y_3 -52.13483810424805))