((X_0  0.4852941334247589)
(X_1  0.3735294044017792)
(X_2  0.3696078360080719)
(X_3  0.385294109582901)
(X_4  0.5049019455909729)
(X_5  0.5245097875595093)
(X_6  0.5245097875595093)
(X_7  0.4205882251262665)
(X_8  0.5088235139846802)
(X_9  0.5323529243469238)
(X_10  0.5637255311012268)
(X_11  0.48725491762161255)
(X_12  0.4950980544090271)
(X_13  0.595098078250885)
(X_14  0.5911765098571777)
(X_15  0.5911765098571777)
(X_16  0.550000011920929)
(X_17  0.5421568751335144)
(X_18  0.5382353067398071)
(X_19  0.5382353067398071)
(X_20  0.6500000357627869)
(X_21  0.6696078777313232)
(X_22  0.5892156958580017)
(X_23  0.6009804010391235)
(X_24  0.6931372880935669)
(X_25  0.7009804248809814)
(X_26  0.7166666984558105)
(X_27  0.7323529720306396)
(X_28  0.1401960849761963)
(X_29  0.13235294818878174)
(X_30  0.02450980618596077)
(X_31  0.020588237792253494)
(X_32  0.020588237792253494)
(X_33  0.020588237792253494)
(X_34  0.01666666939854622)
(X_35  0.11274509876966476)
(X_36  0.03235294297337532)
(X_37  0.036274511367082596)
(X_38  0.036274511367082596)
(X_39  0.03235294297337532)
(X_40  0.028431374579668045)
(X_41  0.028431374579668045)
(X_42  0.036274511367082596)
(X_43  0.04411764815449715)
(X_44  0.04411764815449715)
(X_45  0.036274511367082596)
(X_46  0.13235294818878174)
(X_47  0.02450980618596077)
(X_48  0.01666666939854622)
(X_49  0.01666666939854622)
(X_50  0.01666666939854622)
(X_51  0.01666666939854622)
(X_52  0.12843137979507446)
(X_53  0.036274511367082596)
(X_54  0.04411764815449715)
(X_55  0.15196079015731812)
(X_56  0.11666666716337204)
(X_57  0.020588237792253494)
(X_58  0.02450980618596077)
(X_59  0.02450980618596077)
(X_60  0.020588237792253494)
(X_61  0.020588237792253494)
(X_62  0.02450980618596077)
(X_63  0.028431374579668045)
(X_64  0.11274509876966476)
(X_65  0.01666666939854622)
(X_66  0.01666666939854622)
(X_67  0.012745101936161518)
(X_68  0.008823529817163944)
(X_69  0.012745101936161518)
(X_70  0.020588237792253494)
(X_71  0.03235294297337532)
(X_72  -0.0029411755967885256)
(X_73  0.004901961423456669)
(X_74  0.012745101936161518)
(X_75  0.020588237792253494)
(X_76  0.13235294818878174)
(X_77  0.136274516582489)
(X_78  0.1401960849761963)
(X_79  0.14411765336990356)
(X_80  0.1401960849761963)
(X_81  0.04019607976078987)
(X_82  0.1401960849761963)
(X_83  0.1401960849761963)
(X_84  0.08921568840742111)
(X_85  0.10490196198225021)
(X_86  0.12058823555707932)
(X_87  0.12058823555707932)
(X_88  0.11666666716337204)
(X_89  0.11274509876966476)
(X_90  0.02450980618596077)
(X_91  0.036274511367082596)
(X_92  0.09705882519483566)
(X_93  0.008823529817163944)
(X_94  0.028431374579668045)
(X_95  0.036274511367082596)
(X_96  0.12843137979507446)
(X_97  0.12058823555707932)
(X_98  0.11274509876966476)
(X_99  0.11274509876966476)
(X_100  0.14411765336990356)
(X_101  0.1401960849761963)
(X_102  0.136274516582489)
(X_103  0.12843137979507446)
(X_104  0.02450980618596077)
(X_105  0.020588237792253494)
(X_106  0.01666666939854622)
(X_107  0.01666666939854622)
(X_108  0.13235294818878174)
(X_109  0.028431374579668045)
(X_110  0.02450980618596077)
(X_111  0.12450980395078659)
(X_112  0.028431374579668045)
(X_113  0.1401960849761963)
(X_114  0.15196079015731812)
(X_115  0.14803922176361084)
(X_116  0.03235294297337532)
(X_117  0.020588237792253494)
(X_118  0.02450980618596077)
(X_119  0.03235294297337532)
(X_120  0.03235294297337532)
(X_121  0.04019607976078987)
(X_122  0.04019607976078987)
(X_123  0.036274511367082596)
(X_124  0.12450980395078659)
(X_125  0.11274509876966476)
(X_126  0.008823529817163944)
(X_127  0.008823529817163944)
(X_128  0.136274516582489)
(X_129  0.12843137979507446)
(X_130  0.11666666716337204)
(X_131  0.10882353037595749)
(X_132  0.10490196198225021)
(X_133  0.11274509876966476)
(X_134  0.020588237792253494)
(X_135  0.12450980395078659)
(X_136  0.12843137979507446)
(X_137  0.12843137979507446)
(X_138  0.12843137979507446)
(X_139  0.12843137979507446)
(X_140  0.08529412001371384)
(X_141  0.09313725680112839)
(X_142  0.10490196198225021)
(X_143  0.10882353037595749)
(X_144  0.10490196198225021)
(X_145  0.0009803927969187498)
(X_146  0.0009803927969187498)
(X_147  0.10490196198225021)
(X_148  0.11666666716337204)
(X_149  0.10882353037595749)
(X_150  0.09313725680112839)
(X_151  0.08529412001371384)
(X_152  0.09313725680112839)
(X_153  0.12058823555707932)
(X_154  0.16372549533843994)
(X_155  0.19117647409439087)
(X_156  0.05980392172932625)
(X_157  0.04803921654820442)
(X_158  0.12843137979507446)
(X_159  0.11274509876966476)
(X_160  0.10490196198225021)
(X_161  0.004901961423456669)
(X_162  0.11274509876966476)
(X_163  0.12058823555707932)
(X_164  -0.0029411755967885256)
(X_165  0.0009803927969187498)
(X_166  0.004901961423456669)
(X_167  0.10882353037595749)
(X_168  0.004901961423456669)
(X_169  0.10490196198225021)
(X_170  0.11666666716337204)
(X_171  0.12843137979507446)
(X_172  0.1401960849761963)
(X_173  0.14411765336990356)
(X_174  0.04019607976078987)
(X_175  0.03235294297337532)
(X_176  0.02450980618596077)
(X_177  0.12058823555707932)
(X_178  0.11666666716337204)
(X_179  0.12843137979507446)
(X_180  0.16372549533843994)
(X_181  0.23039215803146362)
(X_182  0.30098041892051697)
(X_183  0.25196078419685364)
(X_184  0.32058826088905334)
(X_185  0.30098041892051697)
(X_186  0.2656862735748291)
(X_187  0.22254902124404907)
(X_188  0.0833333432674408)
(X_189  0.0519607849419117)
(X_190  0.03235294297337532)
(X_191  0.12450980395078659)
(X_192  0.136274516582489)
(X_193  0.1401960849761963)
(X_194  0.14803922176361084)
(X_195  0.0519607849419117)
(X_196  0.0990196168422699)
(X_197  0.19117647409439087)
(X_198  0.1872549057006836)
(X_199  0.09117648005485535)
(X_200  0.19509804248809814)
(X_201  0.1872549057006836)
(X_202  0.16372549533843994)
(X_203  0.14411765336990356)
(X_204  0.04803921654820442)
(X_205  0.0519607849419117)
(X_206  0.0676470622420311)
(X_207  0.19509804248809814)
(X_208  0.13823530077934265)
(X_209  0.19705882668495178)
(X_210  0.2598039209842682)
(X_211  0.40294119715690613)
(X_212  0.344117671251297)
(X_213  0.344117671251297)
(X_214  0.24803923070430756)
(X_215  0.25196078419685364)
(X_216  0.25196078419685364)
(X_217  0.35196080803871155)
(X_218  0.35196080803871155)
(X_219  0.35196080803871155)
(X_220  0.3598039448261261)
(X_221  0.36764708161354065)
(X_222  0.2754901945590973)
(X_223  0.3794117867946625)
(X_224  0.240196093916893)
(X_225  0.22843138873577118)
(X_226  0.21666668355464935)
(X_227  0.21274511516094208)
(X_228  0.22058825194835663)
(X_229  0.22843138873577118)
(X_230  0.23627452552318573)
(X_231  0.23627452552318573)
(X_232  0.2696078419685364)
(X_233  0.20098040997982025)
(X_234  0.1931372582912445)
(X_235  0.15784314274787903)
(X_236  0.1931372582912445)
(X_237  0.3068627417087555)
(X_238  0.385294109582901)
(X_239  0.39313724637031555)
(X_240  0.3696078360080719)
(X_241  0.3715686500072479)
(X_242  0.2813725471496582)
(X_243  0.2774509787559509)
(X_244  0.3245098292827606)
(X_245  0.3598039448261261)
(X_246  0.3715686500072479)
(X_247  0.36764708161354065)
(X_248  0.26372548937797546)
(X_249  0.36764708161354065)
(X_250  0.27156862616539)
(X_251  0.3754902184009552)
(X_252  0.22058825194835663)
(X_253  0.2245098203420639)
(X_254  0.22843138873577118)
(X_255  0.33235296607017517)
(X_256  0.3284313976764679)
(X_257  0.3127451241016388)
(X_258  0.2852941155433655)
(X_259  0.2656862735748291)
(X_260  0.22843138873577118)
(X_261  0.21666668355464935)
(X_262  0.18529412150382996)
(X_263  0.16960784792900085)
(X_264  0.21666668355464935)
(X_265  0.27941176295280457)
(X_266  0.38333335518836975)
(X_267  0.344117671251297)
(X_268  0.40294119715690613)
(X_269  0.36764708161354065)
(X_270  0.3284313976764679)
(X_271  0.3127451241016388)
(X_272  0.22058825194835663)
(X_273  0.23235295712947845)
(X_274  0.23235295712947845)
(X_275  0.3245098292827606)
(X_276  0.344117671251297)
(X_277  0.24411766231060028)
(X_278  0.24411766231060028)
(X_279  0.240196093916893)
(X_280  0.2970588207244873)
(X_281  0.30490198731422424)
(X_282  0.31666669249534607)
(X_283  0.22843138873577118)
(X_284  0.23627452552318573)
(X_285  0.3284313976764679)
(X_286  0.30490198731422424)
(X_287  0.28921568393707275)
(X_288  0.3088235557079315)
(X_289  0.16568627953529358)
(X_290  0.1460784375667572)
(X_291  0.18529412150382996)
(X_292  0.25196078419685364)
(X_293  0.26372548937797546)
(X_294  0.20098040997982025)
(X_295  0.1303921639919281)
(X_296  0.30098041892051697)
(X_297  0.240196093916893)
(X_298  0.24803923070430756)
(X_299  0.21666668355464935)
(X_300  0.2970588207244873)
(X_301  0.31666669249534607)
(X_302  0.33627453446388245)
(X_303  0.23627452552318573)
(X_304  0.13823530077934265)
(X_305  0.1460784375667572)
(X_306  0.1617647111415863)
(X_307  0.27352941036224365)
(X_308  0.387254923582077)
(X_309  0.3598039448261261)
(X_310  0.31666669249534607)
(X_311  0.1774509847164154)
(X_312  0.1460784375667572)
(X_313  0.12647059559822083)
(X_314  0.10686275362968445)
(X_315  0.0990196168422699)
(X_316  0.22647058963775635)
(X_317  0.19901961088180542)
(X_318  0.21078431606292725)
(X_319  0.2852941155433655)
(X_320  0.22843138873577118)
(X_321  0.18529412150382996)
(X_322  0.0990196168422699)
(X_323  0.14411765336990356)
(X_324  0.04803921654820442)
(X_325  0.12254902720451355)
(X_326  0.15392157435417175)
(X_327  0.11862745881080627)
(X_328  0.21078431606292725)
(X_329  0.2656862735748291)
(X_330  0.32058826088905334)
(X_331  0.33235296607017517)
(X_332  0.4852941334247589)
(X_333  0.49705883860588074)
(X_334  0.4205882251262665)
(X_335  0.44411763548851013)
(X_336  0.3186274468898773)
(X_337  0.387254923582077)
(X_338  0.3401961028575897)
(X_339  0.2970588207244873)
(X_340  0.2774509787559509)
(X_341  0.27352941036224365)
(X_342  0.17352941632270813)
(X_343  0.17352941632270813)
(X_344  0.3088235557079315)
(X_345  0.30490198731422424)
(X_346  0.240196093916893)
(X_347  0.28333333134651184)
(X_348  0.2558823525905609)
(X_349  0.15784314274787903)
(X_350  0.07549020648002625)
(X_351  0.14803922176361084)
(X_352  0.19509804248809814)
(X_353  0.2696078419685364)
(X_354  0.30490198731422424)
(X_355  0.2852941155433655)
(X_356  0.29313725233078003)
(X_357  0.35196080803871155)
(X_358  0.3950980603694916)
(X_359  0.3950980603694916)
(X_360  0.4225490391254425)
(X_361  0.33039215207099915)
(X_362  0.3382352888584137)
(X_363  0.34215685725212097)
(X_364  0.2088235467672348)
(X_365  0.30490198731422424)
(X_366  0.30490198731422424)
(X_367  0.32058826088905334)
(X_368  0.3401961028575897)
(X_369  0.3637255132198334)
(X_370  0.2754901945590973)
(X_371  0.27941176295280457)
(X_372  0.33627453446388245)
(X_373  0.2558823525905609)
(X_374  0.2911764681339264)
(X_375  0.39901962876319885)
(X_376  0.33235296607017517)
(X_377  0.13823530077934265)
(X_378  0.0833333432674408)
(X_379  0.0833333432674408)
(X_380  0.04803921654820442)
(X_381  0.10294118523597717)
(X_382  0.23823529481887817)
(X_383  0.13823530077934265)
(X_384  0.14215686917304993)
(X_385  0.1617647111415863)
(X_386  0.2617647051811218)
(X_387  0.24607843160629272)
(X_388  0.24607843160629272)
(X_389  0.24607843160629272)
(X_390  0.24215686321258545)
(X_391  0.23823529481887817)
(X_392  0.22254902124404907)
(X_393  0.2186274528503418)
(X_394  0.21470588445663452)
(X_395  0.2186274528503418)
(X_396  0.22254902124404907)
(X_397  0.2186274528503418)
(X_398  0.20686274766921997)
(X_399  0.19901961088180542)
(X_400  0.17941176891326904)
(X_401  0.0990196168422699)
(X_402  0.2186274528503418)
(X_403  0.21470588445663452)
(X_404  0.18333333730697632)
(X_405  0.04411764815449715)
(X_406  0.028431374579668045)
(X_407  0.03235294297337532)
(X_408  0.0519607849419117)
(X_409  0.17549020051956177)
(X_410  0.19901961088180542)
(X_411  0.20686274766921997)
(X_412  0.19901961088180542)
(X_413  0.1872549057006836)
(X_414  0.18333333730697632)
(X_415  0.17941176891326904)
(X_416  0.11078432202339172)
(X_417  0.10686275362968445)
(X_418  0.10294118523597717)
(X_419  0.10294118523597717)
(X_420  0.07549020648002625)
(X_421  0.06372549384832382)
(X_422  0.0519607849419117)
(X_423  0.04411764815449715)
(X_424  0.04411764815449715)
(X_425  0.04411764815449715)
(X_426  0.04019607976078987)
(X_427  0.136274516582489)
(X_428  0.02450980618596077)
(X_429  0.02450980618596077)
(X_430  0.020588237792253494)
(X_431  0.012745101936161518)
(X_432  0.020588237792253494)
(X_433  0.136274516582489)
(X_434  0.036274511367082596)
(X_435  0.02450980618596077)
(X_436  0.13235294818878174)
(X_437  0.12843137979507446)
(X_438  0.13235294818878174)
(X_439  0.136274516582489)
(X_440  0.12450980395078659)
(X_441  0.11274509876966476)
(X_442  0.036274511367082596)
(X_443  0.07156863063573837)
(X_444  0.06372549384832382)
(X_445  0.05588235333561897)
(X_446  0.04803921654820442)
(X_447  0.136274516582489)
(X_448  0.14411765336990356)
(X_449  0.14411765336990356)
(X_450  0.1401960849761963)
(X_451  0.13235294818878174)
(X_452  0.12843137979507446)
(X_453  0.12058823555707932)
(X_454  0.11666666716337204)
(X_455  0.11274509876966476)
(X_456  0.11274509876966476)
(X_457  0.11274509876966476)
(X_458  0.11274509876966476)
(X_459  0.11274509876966476)
(X_460  0.11274509876966476)
(X_461  0.012745101936161518)
(X_462  0.012745101936161518)
(X_463  0.012745101936161518)
(X_464  0.012745101936161518)
(X_465  0.012745101936161518)
(X_466  0.10882353037595749)
(X_467  0.10490196198225021)
(X_468  0.10882353037595749)
(X_469  0.11274509876966476)
(X_470  0.12058823555707932)
(X_471  0.12450980395078659)
(X_472  0.12450980395078659)
(X_473  0.12450980395078659)
(X_474  0.12843137979507446)
(X_475  0.12843137979507446)
(X_476  0.03235294297337532)
(X_477  0.028431374579668045)
(X_478  0.12450980395078659)
(X_479  0.12058823555707932)
(X_480  0.11666666716337204)
(X_481  0.012745101936161518)
(X_482  0.008823529817163944)
(X_483  0.008823529817163944)
(X_484  0.11274509876966476)
(X_485  0.11274509876966476)
(X_486  0.11274509876966476)
(X_487  0.012745101936161518)
(X_488  0.012745101936161518)
(X_489  0.012745101936161518)
(X_490  0.012745101936161518)
(X_491  0.012745101936161518)
(X_492  0.012745101936161518)
(X_493  0.008823529817163944)
(X_494  0.10490196198225021)
(X_495  0.10490196198225021)
(X_496  0.10882353037595749)
(X_497  0.11274509876966476)
(X_498  0.11666666716337204)
(X_499  0.12058823555707932)
(X_500  0.12058823555707932)
(X_501  0.020588237792253494)
(X_502  0.020588237792253494)
(X_503  0.12450980395078659)
(X_504  0.11274509876966476)
(X_505  0.11274509876966476)
(X_506  0.008823529817163944)
(X_507  0.008823529817163944)
(X_508  0.004901961423456669)
(X_509  0.004901961423456669)
(X_510  0.004901961423456669)
(X_511  0.0009803927969187498)
(X_512  0.008823529817163944)
(X_513  0.008823529817163944)
(X_514  0.008823529817163944)
(X_515  0.008823529817163944)
(X_516  0.008823529817163944)
(X_517  0.008823529817163944)
(X_518  0.008823529817163944)
(X_519  0.008823529817163944)
(X_520  0.008823529817163944)
(X_521  0.004901961423456669)
(X_522  0.004901961423456669)
(X_523  0.004901961423456669)
(X_524  0.004901961423456669)
(X_525  0.008823529817163944)
(X_526  0.012745101936161518)
(X_527  0.11666666716337204)
(X_528  0.008823529817163944)
(X_529  0.012745101936161518)
(X_530  0.012745101936161518)
(X_531  0.11274509876966476)
(X_532  0.10098039358854294)
(X_533  0.10098039358854294)
(X_534  0.10098039358854294)
(X_535  0.10098039358854294)
(X_536  0.0009803927969187498)
(X_537  0.0009803927969187498)
(X_538  0.0009803927969187498)
(X_539  0.10098039358854294)
(X_540  0.004901961423456669)
(X_541  0.004901961423456669)
(X_542  0.10490196198225021)
(X_543  0.004901961423456669)
(X_544  0.004901961423456669)
(X_545  0.004901961423456669)
(X_546  0.004901961423456669)
(X_547  0.004901961423456669)
(X_548  0.10490196198225021)
(X_549  0.10490196198225021)
(X_550  0.10098039358854294)
(X_551  0.10098039358854294)
(X_552  0.10098039358854294)
(X_553  0.10490196198225021)
(X_554  0.10490196198225021)
(X_555  0.004901961423456669)
(X_556  0.10098039358854294)
(X_557  0.0009803927969187498)
(X_558  0.0009803927969187498)
(X_559  0.10490196198225021)
(X_560  0.09705882519483566)
(X_561  -0.0029411755967885256)
(X_562  0.09705882519483566)
(X_563  0.10098039358854294)
(X_564  0.10098039358854294)
(X_565  0.10098039358854294)
(X_566  0.10098039358854294)
(X_567  0.10490196198225021)
(X_568  -0.0029411755967885256)
(X_569  -0.0029411755967885256)
(X_570  -0.0029411755967885256)
(X_571  -0.0029411755967885256)
(X_572  -0.0029411755967885256)
(X_573  -0.0029411755967885256)
(X_574  -0.0029411755967885256)
(X_575  -0.0029411755967885256)
(X_576  -0.0029411755967885256)
(X_577  -0.0029411755967885256)
(X_578  0.0009803927969187498)
(X_579  0.10098039358854294)
(X_580  0.10098039358854294)
(X_581  0.09705882519483566)
(X_582  0.09705882519483566)
(X_583  0.09705882519483566)
(X_584  0.09313725680112839)
(X_585  -0.006862743757665157)
(X_586  -0.006862743757665157)
(X_587  -0.0029411755967885256)
(X_588  -0.0029411755967885256)
(X_589  -0.0029411755967885256)
(X_590  -0.0029411755967885256)
(X_591  -0.0029411755967885256)
(X_592  0.09705882519483566)
(X_593  0.10098039358854294)
(X_594  0.10098039358854294)
(X_595  0.10098039358854294)
(X_596  0.09313725680112839)
(X_597  -0.006862743757665157)
(X_598  -0.006862743757665157)
(X_599  -0.006862743757665157)
(X_600  -0.006862743757665157)
(X_601  -0.006862743757665157)
(X_602  -0.006862743757665157)
(X_603  -0.006862743757665157)
(X_604  -0.006862743757665157)
(X_605  0.09705882519483566)
(X_606  0.09705882519483566)
(X_607  0.09705882519483566)
(X_608  0.09705882519483566)
(X_609  0.09313725680112839)
(X_610  0.08921568840742111)
(X_611  -0.014705880545079708)
(X_612  -0.010784312151372433)
(X_613  -0.010784312151372433)
(X_614  -0.010784312151372433)
(X_615  0.08921568840742111)
(X_616  0.09705882519483566)
(X_617  -0.0029411755967885256)
(X_618  -0.006862743757665157)
(X_619  0.09313725680112839)
(X_620  0.09313725680112839)
(X_621  0.09313725680112839)
(X_622  0.09313725680112839)
(X_623  0.09313725680112839)
(X_624  0.08921568840742111)
(X_625  0.08921568840742111)
(X_626  0.08921568840742111)
(X_627  -0.010784312151372433)
(X_628  -0.010784312151372433)
(X_629  -0.010784312151372433)
(X_630  -0.010784312151372433)
(X_631  -0.010784312151372433)
(X_632  0.08921568840742111)
(X_633  -0.006862743757665157)
(X_634  -0.0029411755967885256)
(X_635  -0.0029411755967885256)
(X_636  0.09313725680112839)
(X_637  0.08921568840742111)
(X_638  0.08529412001371384)
(X_639  -0.018627449870109558)
(X_640  0.08529412001371384)
(X_641  -0.014705880545079708)
(X_642  0.08529412001371384)
(X_643  -0.010784312151372433)
(X_644  -0.006862743757665157)
(X_645  -0.006862743757665157)
(X_646  0.09313725680112839)
(X_647  0.08921568840742111)
(X_648  0.08921568840742111)
(X_649  0.08529412001371384)
(X_650  -0.014705880545079708)
(X_651  -0.014705880545079708)
(X_652  0.08921568840742111)
(X_653  -0.010784312151372433)
(X_654  -0.010784312151372433)
(X_655  -0.010784312151372433)
(X_656  -0.010784312151372433)
(X_657  -0.010784312151372433)
(X_658  -0.010784312151372433)
(X_659  -0.010784312151372433)
(X_660  -0.010784312151372433)
(X_661  0.08921568840742111)
(X_662  0.09313725680112839)
(X_663  0.09705882519483566)
(X_664  0.09313725680112839)
(X_665  0.08921568840742111)
(X_666  0.08137255162000656)
(X_667  -0.022549020126461983)
(X_668  -0.014705880545079708)
(X_669  -0.014705880545079708)
(X_670  -0.014705880545079708)
(X_671  -0.010784312151372433)
(X_672  0.08137255162000656)
(X_673  -0.014705880545079708)
(X_674  -0.014705880545079708)
(X_675  -0.010784312151372433)
(X_676  -0.010784312151372433)
(X_677  0.08529412001371384)
(X_678  0.08529412001371384)
(X_679  -0.018627449870109558)
(X_680  -0.014705880545079708)
(X_681  -0.014705880545079708)
(X_682  0.08529412001371384)
(X_683  0.08529412001371384)
(X_684  0.08529412001371384)
(X_685  0.08529412001371384)
(X_686  -0.014705880545079708)
(X_687  -0.014705880545079708)
(X_688  0.08137255162000656)
(X_689  0.08529412001371384)
(X_690  -0.014705880545079708)
(X_691  -0.010784312151372433)
(X_692  0.08921568840742111)
(X_693  0.08529412001371384)
(X_694  -0.014705880545079708)
(X_695  -0.018627449870109558)
(X_696  -0.006862743757665157)
(X_697  0.09313725680112839)
(X_698  0.09313725680112839)
(X_699  -0.006862743757665157)
(X_700  0.08137255162000656)
(X_701  -0.014705880545079708)
(X_702  -0.014705880545079708)
(X_703  -0.010784312151372433)
(X_704  -0.010784312151372433)
(X_705  -0.014705880545079708)
(X_706  -0.014705880545079708)
(X_707  -0.018627449870109558)
(X_708  -0.014705880545079708)
(X_709  -0.014705880545079708)
(X_710  0.08529412001371384)
(X_711  0.08529412001371384)
(X_712  0.08529412001371384)
(X_713  0.08529412001371384)
(X_714  -0.014705880545079708)
(X_715  -0.014705880545079708)
(X_716  -0.018627449870109558)
(X_717  -0.014705880545079708)
(X_718  -0.014705880545079708)
(X_719  -0.010784312151372433)
(X_720  -0.010784312151372433)
(X_721  0.08529412001371384)
(X_722  0.08529412001371384)
(X_723  0.08137255162000656)
(X_724  0.08921568840742111)
(X_725  0.08921568840742111)
(X_726  0.08921568840742111)
(X_727  0.08921568840742111)
(X_728  0.08137255162000656)
(X_729  -0.014705880545079708)
(X_730  0.08529412001371384)
(X_731  0.08921568840742111)
(X_732  0.08921568840742111)
(X_733  -0.014705880545079708)
(X_734  -0.014705880545079708)
(X_735  -0.018627449870109558)
(X_736  0.08529412001371384)
(X_737  0.08529412001371384)
(X_738  0.08529412001371384)
(X_739  0.08529412001371384)
(X_740  0.08529412001371384)
(X_741  0.08529412001371384)
(X_742  0.08529412001371384)
(X_743  0.08529412001371384)
(X_744  0.08137255162000656)
(X_745  0.08137255162000656)
(X_746  0.08529412001371384)
(X_747  -0.014705880545079708)
(X_748  0.08529412001371384)
(X_749  0.08529412001371384)
(X_750  -0.018627449870109558)
(X_751  -0.018627449870109558)
(X_752  0.08529412001371384)
(X_753  0.08529412001371384)
(X_754  0.08529412001371384)
(X_755  0.08529412001371384)
(X_756  0.08137255162000656)
(X_757  -0.014705880545079708)
(X_758  -0.014705880545079708)
(X_759  -0.010784312151372433)
(X_760  -0.010784312151372433)
(X_761  0.08529412001371384)
(X_762  0.08529412001371384)
(X_763  0.08137255162000656)
(X_764  0.08529412001371384)
(X_765  0.08529412001371384)
(X_766  -0.014705880545079708)
(X_767  -0.014705880545079708)
(X_768  -0.014705880545079708)
(X_769  -0.014705880545079708)
(X_770  -0.014705880545079708)
(X_771  -0.014705880545079708)
(X_772  -0.022549020126461983)
(X_773  -0.018627449870109558)
(X_774  -0.014705880545079708)
(X_775  -0.014705880545079708)
(X_776  -0.014705880545079708)
(X_777  -0.014705880545079708)
(X_778  -0.018627449870109558)
(X_779  -0.022549020126461983)
(X_780  -0.018627449870109558)
(X_781  -0.018627449870109558)
(X_782  -0.018627449870109558)
(X_783  -0.018627449870109558)
(Y_0 -32.892723083496094)
(Y_1 39.30775833129883)
(Y_2 -24.806459426879883)
(Y_3 19.460721969604492))