((X_0  0.5735294222831726)
(X_1  0.5774509906768799)
(X_2  0.5774509906768799)
(X_3  0.5656862854957581)
(X_4  0.5539215803146362)
(X_5  0.5421568751335144)
(X_6  0.6421568989753723)
(X_7  0.6460784673690796)
(X_8  0.6500000357627869)
(X_9  0.6500000357627869)
(X_10  0.6500000357627869)
(X_11  0.6500000357627869)
(X_12  0.6500000357627869)
(X_13  0.6500000357627869)
(X_14  0.550000011920929)
(X_15  0.550000011920929)
(X_16  0.5460784435272217)
(X_17  0.5460784435272217)
(X_18  0.5460784435272217)
(X_19  0.5460784435272217)
(X_20  0.6460784673690796)
(X_21  0.6460784673690796)
(X_22  0.6460784673690796)
(X_23  0.6460784673690796)
(X_24  0.5303921699523926)
(X_25  0.522549033164978)
(X_26  0.5068627595901489)
(X_27  0.4911764860153198)
(X_28  0.13235294818878174)
(X_29  0.136274516582489)
(X_30  0.04019607976078987)
(X_31  0.136274516582489)
(X_32  0.12843137979507446)
(X_33  0.02450980618596077)
(X_34  0.028431374579668045)
(X_35  0.03235294297337532)
(X_36  0.12843137979507446)
(X_37  0.028431374579668045)
(X_38  0.028431374579668045)
(X_39  0.12843137979507446)
(X_40  0.12843137979507446)
(X_41  0.12843137979507446)
(X_42  0.12843137979507446)
(X_43  0.12843137979507446)
(X_44  0.136274516582489)
(X_45  0.03235294297337532)
(X_46  0.03235294297337532)
(X_47  0.03235294297337532)
(X_48  0.03235294297337532)
(X_49  0.13235294818878174)
(X_50  0.12843137979507446)
(X_51  0.12843137979507446)
(X_52  0.14411765336990356)
(X_53  0.04411764815449715)
(X_54  0.04019607976078987)
(X_55  0.036274511367082596)
(X_56  0.02450980618596077)
(X_57  0.028431374579668045)
(X_58  0.036274511367082596)
(X_59  0.13235294818878174)
(X_60  0.12843137979507446)
(X_61  0.12450980395078659)
(X_62  0.028431374579668045)
(X_63  0.036274511367082596)
(X_64  0.04019607976078987)
(X_65  0.1401960849761963)
(X_66  0.1401960849761963)
(X_67  0.1401960849761963)
(X_68  0.1401960849761963)
(X_69  0.1401960849761963)
(X_70  0.1401960849761963)
(X_71  0.1401960849761963)
(X_72  0.036274511367082596)
(X_73  0.036274511367082596)
(X_74  0.036274511367082596)
(X_75  0.03235294297337532)
(X_76  0.028431374579668045)
(X_77  0.12843137979507446)
(X_78  0.12843137979507446)
(X_79  0.12450980395078659)
(X_80  0.136274516582489)
(X_81  0.1401960849761963)
(X_82  0.14411765336990356)
(X_83  0.0519607849419117)
(X_84  0.03235294297337532)
(X_85  0.04019607976078987)
(X_86  0.04019607976078987)
(X_87  0.036274511367082596)
(X_88  0.13235294818878174)
(X_89  0.12843137979507446)
(X_90  0.12843137979507446)
(X_91  0.136274516582489)
(X_92  0.136274516582489)
(X_93  0.136274516582489)
(X_94  0.136274516582489)
(X_95  0.136274516582489)
(X_96  0.036274511367082596)
(X_97  0.036274511367082596)
(X_98  0.036274511367082596)
(X_99  0.036274511367082596)
(X_100  0.036274511367082596)
(X_101  0.03235294297337532)
(X_102  0.03235294297337532)
(X_103  0.12843137979507446)
(X_104  0.12450980395078659)
(X_105  0.12450980395078659)
(X_106  0.12058823555707932)
(X_107  0.12058823555707932)
(X_108  0.028431374579668045)
(X_109  0.03235294297337532)
(X_110  0.036274511367082596)
(X_111  0.04019607976078987)
(X_112  0.12450980395078659)
(X_113  0.13235294818878174)
(X_114  0.136274516582489)
(X_115  0.136274516582489)
(X_116  0.12843137979507446)
(X_117  0.12843137979507446)
(X_118  0.13235294818878174)
(X_119  0.036274511367082596)
(X_120  0.020588237792253494)
(X_121  0.020588237792253494)
(X_122  0.020588237792253494)
(X_123  0.020588237792253494)
(X_124  0.020588237792253494)
(X_125  0.020588237792253494)
(X_126  0.020588237792253494)
(X_127  0.020588237792253494)
(X_128  0.036274511367082596)
(X_129  0.136274516582489)
(X_130  0.136274516582489)
(X_131  0.03235294297337532)
(X_132  0.03235294297337532)
(X_133  0.028431374579668045)
(X_134  0.028431374579668045)
(X_135  0.028431374579668045)
(X_136  0.1558823585510254)
(X_137  0.15196079015731812)
(X_138  0.14803922176361084)
(X_139  0.04411764815449715)
(X_140  0.004901961423456669)
(X_141  0.11274509876966476)
(X_142  0.01666666939854622)
(X_143  0.11666666716337204)
(X_144  0.11274509876966476)
(X_145  0.11274509876966476)
(X_146  0.11666666716337204)
(X_147  0.02450980618596077)
(X_148  0.11666666716337204)
(X_149  0.01666666939854622)
(X_150  0.01666666939854622)
(X_151  0.11666666716337204)
(X_152  0.11666666716337204)
(X_153  0.11666666716337204)
(X_154  0.01666666939854622)
(X_155  0.11666666716337204)
(X_156  0.12450980395078659)
(X_157  0.12450980395078659)
(X_158  0.12450980395078659)
(X_159  0.02450980618596077)
(X_160  0.12450980395078659)
(X_161  0.12450980395078659)
(X_162  0.12450980395078659)
(X_163  0.12450980395078659)
(X_164  0.13235294818878174)
(X_165  0.12843137979507446)
(X_166  0.12058823555707932)
(X_167  0.11666666716337204)
(X_168  0.036274511367082596)
(X_169  0.04019607976078987)
(X_170  0.036274511367082596)
(X_171  0.028431374579668045)
(X_172  0.012745101936161518)
(X_173  0.004901961423456669)
(X_174  0.10098039358854294)
(X_175  0.10490196198225021)
(X_176  0.11274509876966476)
(X_177  0.012745101936161518)
(X_178  0.012745101936161518)
(X_179  0.11274509876966476)
(X_180  0.11274509876966476)
(X_181  0.11274509876966476)
(X_182  0.11274509876966476)
(X_183  0.11274509876966476)
(X_184  0.004901961423456669)
(X_185  0.004901961423456669)
(X_186  0.004901961423456669)
(X_187  0.008823529817163944)
(X_188  0.012745101936161518)
(X_189  0.01666666939854622)
(X_190  0.11666666716337204)
(X_191  0.11666666716337204)
(X_192  0.11666666716337204)
(X_193  0.11666666716337204)
(X_194  0.12058823555707932)
(X_195  0.12450980395078659)
(X_196  0.22254902124404907)
(X_197  0.2186274528503418)
(X_198  0.20686274766921997)
(X_199  0.18333333730697632)
(X_200  0.05588235333561897)
(X_201  0.03235294297337532)
(X_202  0.020588237792253494)
(X_203  0.01666666939854622)
(X_204  0.020588237792253494)
(X_205  0.020588237792253494)
(X_206  0.020588237792253494)
(X_207  0.020588237792253494)
(X_208  0.020588237792253494)
(X_209  0.020588237792253494)
(X_210  0.020588237792253494)
(X_211  0.12058823555707932)
(X_212  0.11274509876966476)
(X_213  0.11274509876966476)
(X_214  0.11666666716337204)
(X_215  0.12058823555707932)
(X_216  0.02450980618596077)
(X_217  0.03235294297337532)
(X_218  0.03235294297337532)
(X_219  0.036274511367082596)
(X_220  0.17941176891326904)
(X_221  0.19117647409439087)
(X_222  0.10686275362968445)
(X_223  0.11862745881080627)
(X_224  0.45000001788139343)
(X_225  0.4421568810939789)
(X_226  0.33039215207099915)
(X_227  0.4225490391254425)
(X_228  0.3029411733150482)
(X_229  0.26764705777168274)
(X_230  0.22058825194835663)
(X_231  0.18921568989753723)
(X_232  0.20686274766921997)
(X_233  0.19117647409439087)
(X_234  0.16764706373214722)
(X_235  0.14803922176361084)
(X_236  0.136274516582489)
(X_237  0.136274516582489)
(X_238  0.14411765336990356)
(X_239  0.15196079015731812)
(X_240  0.0833333432674408)
(X_241  0.10294118523597717)
(X_242  0.13431373238563538)
(X_243  0.16960784792900085)
(X_244  0.20490197837352753)
(X_245  0.23627452552318573)
(X_246  0.2558823525905609)
(X_247  0.26764705777168274)
(X_248  0.39901962876319885)
(X_249  0.31470587849617004)
(X_250  0.3343137204647064)
(X_251  0.3578431308269501)
(X_252  0.3950980603694916)
(X_253  0.3950980603694916)
(X_254  0.3950980603694916)
(X_255  0.4107843339443207)
(X_256  0.4225490391254425)
(X_257  0.43039217591285706)
(X_258  0.4225490391254425)
(X_259  0.31078431010246277)
(X_260  0.38333335518836975)
(X_261  0.3715686500072479)
(X_262  0.35196080803871155)
(X_263  0.33627453446388245)
(X_264  0.3284313976764679)
(X_265  0.3284313976764679)
(X_266  0.33627453446388245)
(X_267  0.24411766231060028)
(X_268  0.27941176295280457)
(X_269  0.28333333134651184)
(X_270  0.2872548997402191)
(X_271  0.2911764681339264)
(X_272  0.2911764681339264)
(X_273  0.2872548997402191)
(X_274  0.27941176295280457)
(X_275  0.27941176295280457)
(X_276  0.2558823525905609)
(X_277  0.26372548937797546)
(X_278  0.3715686500072479)
(X_279  0.38333335518836975)
(X_280  0.3029411733150482)
(X_281  0.2911764681339264)
(X_282  0.27941176295280457)
(X_283  0.2754901945590973)
(X_284  0.27941176295280457)
(X_285  0.387254923582077)
(X_286  0.3911764919757843)
(X_287  0.2872548997402191)
(X_288  0.40294119715690613)
(X_289  0.3911764919757843)
(X_290  0.3715686500072479)
(X_291  0.3558823764324188)
(X_292  0.344117671251297)
(X_293  0.24411766231060028)
(X_294  0.24803923070430756)
(X_295  0.25196078419685364)
(X_296  0.3794117867946625)
(X_297  0.3794117867946625)
(X_298  0.3754902184009552)
(X_299  0.26764705777168274)
(X_300  0.2598039209842682)
(X_301  0.25196078419685364)
(X_302  0.240196093916893)
(X_303  0.33627453446388245)
(X_304  0.3598039448261261)
(X_305  0.2598039209842682)
(X_306  0.2558823525905609)
(X_307  0.2558823525905609)
(X_308  0.3656862676143646)
(X_309  0.3539215624332428)
(X_310  0.3343137204647064)
(X_311  0.3186274468898773)
(X_312  0.31078431010246277)
(X_313  0.3068627417087555)
(X_314  0.3068627417087555)
(X_315  0.3068627417087555)
(X_316  0.28333333134651184)
(X_317  0.27156862616539)
(X_318  0.2558823525905609)
(X_319  0.240196093916893)
(X_320  0.22843138873577118)
(X_321  0.32058826088905334)
(X_322  0.32058826088905334)
(X_323  0.32058826088905334)
(X_324  0.22843138873577118)
(X_325  0.3284313976764679)
(X_326  0.33235296607017517)
(X_327  0.33235296607017517)
(X_328  0.23627452552318573)
(X_329  0.23627452552318573)
(X_330  0.23627452552318573)
(X_331  0.23627452552318573)
(X_332  0.3637255132198334)
(X_333  0.3598039448261261)
(X_334  0.3558823764324188)
(X_335  0.25196078419685364)
(X_336  0.4911764860153198)
(X_337  0.595098078250885)
(X_338  0.5029411911964417)
(X_339  0.6107843518257141)
(X_340  0.6225490570068359)
(X_341  0.6343137621879578)
(X_342  0.5460784435272217)
(X_343  0.5539215803146362)
(X_344  0.6774510145187378)
(X_345  0.6696078777313232)
(X_346  0.6617647409439087)
(X_347  0.5539215803146362)
(X_348  0.6500000357627869)
(X_349  0.6460784673690796)
(X_350  0.6421568989753723)
(X_351  0.5421568751335144)
(X_352  0.5421568751335144)
(X_353  0.5382353067398071)
(X_354  0.5343137383460999)
(X_355  0.5264706015586853)
(X_356  0.522549033164978)
(X_357  0.5186274647712708)
(X_358  0.5147058963775635)
(X_359  0.5107843279838562)
(X_360  0.6186274886131287)
(X_361  0.6147059202194214)
(X_362  0.6068627834320068)
(X_363  0.5990196466445923)
(X_364  0.18529412150382996)
(X_365  0.1931372582912445)
(X_366  0.2088235467672348)
(X_367  0.21274511516094208)
(X_368  0.31666669249534607)
(X_369  0.32058826088905334)
(X_370  0.3245098292827606)
(X_371  0.33235296607017517)
(X_372  0.3068627417087555)
(X_373  0.31078431010246277)
(X_374  0.31078431010246277)
(X_375  0.31470587849617004)
(X_376  0.41470590233802795)
(X_377  0.41862747073173523)
(X_378  0.41862747073173523)
(X_379  0.3186274468898773)
(X_380  0.3225490152835846)
(X_381  0.3186274468898773)
(X_382  0.3068627417087555)
(X_383  0.39901962876319885)
(X_384  0.3911764919757843)
(X_385  0.28333333134651184)
(X_386  0.28333333134651184)
(X_387  0.27941176295280457)
(X_388  0.38333335518836975)
(X_389  0.3754902184009552)
(X_390  0.3637255132198334)
(X_391  0.35196080803871155)
(X_392  0.16568627953529358)
(X_393  0.16960784792900085)
(X_394  0.2696078419685364)
(X_395  0.25784313678741455)
(X_396  0.24215686321258545)
(X_397  0.2343137264251709)
(X_398  0.2343137264251709)
(X_399  0.24215686321258545)
(X_400  0.24215686321258545)
(X_401  0.24607843160629272)
(X_402  0.15000000596046448)
(X_403  0.15392157435417175)
(X_404  0.15392157435417175)
(X_405  0.15392157435417175)
(X_406  0.25)
(X_407  0.25)
(X_408  0.15000000596046448)
(X_409  0.1460784375667572)
(X_410  0.14215686917304993)
(X_411  0.14215686917304993)
(X_412  0.14215686917304993)
(X_413  0.24607843160629272)
(X_414  0.25)
(X_415  0.25)
(X_416  0.12647059559822083)
(X_417  0.12254902720451355)
(X_418  0.2186274528503418)
(X_419  0.21078431606292725)
(X_420  0.0833333432674408)
(X_421  0.09117648005485535)
(X_422  0.19901961088180542)
(X_423  0.19901961088180542)
(X_424  0.19901961088180542)
(X_425  0.20686274766921997)
(X_426  0.23039215803146362)
(X_427  0.1460784375667572)
(X_428  0.13431373238563538)
(X_429  0.2343137264251709)
(X_430  0.2343137264251709)
(X_431  0.1303921639919281)
(X_432  0.22254902124404907)
(X_433  0.21078431606292725)
(X_434  0.19901961088180542)
(X_435  0.09509804844856262)
(X_436  0.09509804844856262)
(X_437  0.09117648005485535)
(X_438  0.0833333432674408)
(X_439  0.07941177487373352)
(X_440  0.07941177487373352)
(X_441  0.07941177487373352)
(X_442  0.0833333432674408)
(X_443  0.08725491166114807)
(X_444  0.19901961088180542)
(X_445  0.2029411792755127)
(X_446  0.2029411792755127)
(X_447  0.2029411792755127)
(X_448  0.0676470622420311)
(X_449  0.16764706373214722)
(X_450  0.1715686321258545)
(X_451  0.1715686321258545)
(X_452  0.17549020051956177)
(X_453  0.17549020051956177)
(X_454  0.17941176891326904)
(X_455  0.07941177487373352)
(X_456  0.0676470622420311)
(X_457  0.07549020648002625)
(X_458  0.0833333432674408)
(X_459  0.19117647409439087)
(X_460  0.19117647409439087)
(X_461  0.19117647409439087)
(X_462  0.18333333730697632)
(X_463  0.17941176891326904)
(X_464  0.1715686321258545)
(X_465  0.17549020051956177)
(X_466  0.08725491166114807)
(X_467  0.0990196168422699)
(X_468  0.114705890417099)
(X_469  0.12647059559822083)
(X_470  0.13823530077934265)
(X_471  0.14215686917304993)
(X_472  0.1303921639919281)
(X_473  0.1303921639919281)
(X_474  0.1303921639919281)
(X_475  0.22647058963775635)
(X_476  0.05980392172932625)
(X_477  0.06372549384832382)
(X_478  0.06372549384832382)
(X_479  0.06372549384832382)
(X_480  0.0676470622420311)
(X_481  0.0676470622420311)
(X_482  0.07156863063573837)
(X_483  0.07156863063573837)
(X_484  0.06372549384832382)
(X_485  0.0676470622420311)
(X_486  0.07549020648002625)
(X_487  0.18333333730697632)
(X_488  0.1872549057006836)
(X_489  0.18333333730697632)
(X_490  0.17549020051956177)
(X_491  0.1715686321258545)
(X_492  0.17941176891326904)
(X_493  0.17941176891326904)
(X_494  0.0833333432674408)
(X_495  0.0833333432674408)
(X_496  0.1872549057006836)
(X_497  0.19117647409439087)
(X_498  0.19117647409439087)
(X_499  0.09117648005485535)
(X_500  0.10294118523597717)
(X_501  0.2029411792755127)
(X_502  0.0990196168422699)
(X_503  0.0990196168422699)
(X_504  0.04019607976078987)
(X_505  0.1401960849761963)
(X_506  0.1401960849761963)
(X_507  0.14411765336990356)
(X_508  0.14411765336990356)
(X_509  0.04411764815449715)
(X_510  0.04803921654820442)
(X_511  0.04803921654820442)
(X_512  0.14411765336990356)
(X_513  0.04803921654820442)
(X_514  0.0519607849419117)
(X_515  0.15980392694473267)
(X_516  0.15980392694473267)
(X_517  0.1558823585510254)
(X_518  0.0519607849419117)
(X_519  0.14803922176361084)
(X_520  0.16372549533843994)
(X_521  0.16372549533843994)
(X_522  0.15980392694473267)
(X_523  0.05588235333561897)
(X_524  0.05588235333561897)
(X_525  0.0519607849419117)
(X_526  0.04803921654820442)
(X_527  0.04803921654820442)
(X_528  0.06372549384832382)
(X_529  0.15980392694473267)
(X_530  0.05980392172932625)
(X_531  0.05980392172932625)
(X_532  0.01666666939854622)
(X_533  0.01666666939854622)
(X_534  0.01666666939854622)
(X_535  0.01666666939854622)
(X_536  0.01666666939854622)
(X_537  0.01666666939854622)
(X_538  0.01666666939854622)
(X_539  0.01666666939854622)
(X_540  0.012745101936161518)
(X_541  0.01666666939854622)
(X_542  0.020588237792253494)
(X_543  0.12450980395078659)
(X_544  0.12450980395078659)
(X_545  0.020588237792253494)
(X_546  0.020588237792253494)
(X_547  0.11666666716337204)
(X_548  0.028431374579668045)
(X_549  0.12843137979507446)
(X_550  0.12843137979507446)
(X_551  0.028431374579668045)
(X_552  0.03235294297337532)
(X_553  0.03235294297337532)
(X_554  0.03235294297337532)
(X_555  0.03235294297337532)
(X_556  0.13235294818878174)
(X_557  0.13235294818878174)
(X_558  0.03235294297337532)
(X_559  0.028431374579668045)
(X_560  0.008823529817163944)
(X_561  0.004901961423456669)
(X_562  0.004901961423456669)
(X_563  0.004901961423456669)
(X_564  0.004901961423456669)
(X_565  0.004901961423456669)
(X_566  0.004901961423456669)
(X_567  0.004901961423456669)
(X_568  0.10098039358854294)
(X_569  0.0009803927969187498)
(X_570  0.004901961423456669)
(X_571  0.004901961423456669)
(X_572  0.004901961423456669)
(X_573  0.0009803927969187498)
(X_574  0.0009803927969187498)
(X_575  -0.0029411755967885256)
(X_576  0.10882353037595749)
(X_577  0.10882353037595749)
(X_578  0.008823529817163944)
(X_579  0.012745101936161518)
(X_580  0.01666666939854622)
(X_581  0.020588237792253494)
(X_582  0.020588237792253494)
(X_583  0.02450980618596077)
(X_584  0.020588237792253494)
(X_585  0.12058823555707932)
(X_586  0.01666666939854622)
(X_587  0.11666666716337204)
(X_588  0.10882353037595749)
(X_589  0.10882353037595749)
(X_590  0.10882353037595749)
(X_591  0.008823529817163944)
(X_592  0.004901961423456669)
(X_593  0.004901961423456669)
(X_594  0.004901961423456669)
(X_595  0.004901961423456669)
(X_596  0.004901961423456669)
(X_597  0.004901961423456669)
(X_598  0.10490196198225021)
(X_599  0.10098039358854294)
(X_600  0.10098039358854294)
(X_601  0.10098039358854294)
(X_602  0.10098039358854294)
(X_603  0.09705882519483566)
(X_604  0.10882353037595749)
(X_605  0.008823529817163944)
(X_606  0.008823529817163944)
(X_607  0.10490196198225021)
(X_608  0.10490196198225021)
(X_609  0.10490196198225021)
(X_610  0.0009803927969187498)
(X_611  0.0009803927969187498)
(X_612  0.012745101936161518)
(X_613  0.11274509876966476)
(X_614  0.10882353037595749)
(X_615  0.10882353037595749)
(X_616  0.004901961423456669)
(X_617  0.10490196198225021)
(X_618  0.10098039358854294)
(X_619  0.10098039358854294)
(X_620  -0.0029411755967885256)
(X_621  -0.0029411755967885256)
(X_622  -0.006862743757665157)
(X_623  -0.006862743757665157)
(X_624  0.10882353037595749)
(X_625  0.10490196198225021)
(X_626  0.10098039358854294)
(X_627  0.10098039358854294)
(X_628  0.09705882519483566)
(X_629  0.09705882519483566)
(X_630  0.09705882519483566)
(X_631  0.09705882519483566)
(X_632  0.10490196198225021)
(X_633  0.10490196198225021)
(X_634  0.10098039358854294)
(X_635  0.10098039358854294)
(X_636  0.09705882519483566)
(X_637  0.09313725680112839)
(X_638  0.08921568840742111)
(X_639  0.08921568840742111)
(X_640  0.10098039358854294)
(X_641  0.10098039358854294)
(X_642  0.0009803927969187498)
(X_643  -0.0029411755967885256)
(X_644  0.08921568840742111)
(X_645  0.08921568840742111)
(X_646  -0.010784312151372433)
(X_647  -0.014705880545079708)
(X_648  -0.018627449870109558)
(X_649  -0.018627449870109558)
(X_650  0.08137255162000656)
(X_651  -0.022549020126461983)
(X_652  0.0009803927969187498)
(X_653  -0.0029411755967885256)
(X_654  -0.006862743757665157)
(X_655  -0.010784312151372433)
(X_656  0.08921568840742111)
(X_657  0.08921568840742111)
(X_658  0.08921568840742111)
(X_659  0.08921568840742111)
(X_660  0.09313725680112839)
(X_661  0.09313725680112839)
(X_662  -0.006862743757665157)
(X_663  -0.006862743757665157)
(X_664  -0.006862743757665157)
(X_665  -0.006862743757665157)
(X_666  -0.006862743757665157)
(X_667  -0.006862743757665157)
(X_668  -0.006862743757665157)
(X_669  -0.006862743757665157)
(X_670  -0.010784312151372433)
(X_671  0.08921568840742111)
(X_672  -0.010784312151372433)
(X_673  0.09313725680112839)
(X_674  0.09313725680112839)
(X_675  0.09705882519483566)
(X_676  0.09705882519483566)
(X_677  0.09313725680112839)
(X_678  0.09313725680112839)
(X_679  0.08921568840742111)
(X_680  0.08921568840742111)
(X_681  0.08921568840742111)
(X_682  0.08921568840742111)
(X_683  -0.010784312151372433)
(X_684  -0.010784312151372433)
(X_685  0.08921568840742111)
(X_686  0.08921568840742111)
(X_687  0.08921568840742111)
(X_688  0.09313725680112839)
(X_689  0.08921568840742111)
(X_690  0.08921568840742111)
(X_691  0.08529412001371384)
(X_692  0.08529412001371384)
(X_693  0.08921568840742111)
(X_694  0.08921568840742111)
(X_695  0.09313725680112839)
(X_696  0.09313725680112839)
(X_697  -0.010784312151372433)
(X_698  -0.014705880545079708)
(X_699  -0.018627449870109558)
(X_700  0.08921568840742111)
(X_701  0.09313725680112839)
(X_702  0.09313725680112839)
(X_703  0.09705882519483566)
(X_704  0.09705882519483566)
(X_705  0.09313725680112839)
(X_706  -0.006862743757665157)
(X_707  -0.010784312151372433)
(X_708  -0.010784312151372433)
(X_709  -0.010784312151372433)
(X_710  -0.010784312151372433)
(X_711  -0.010784312151372433)
(X_712  -0.010784312151372433)
(X_713  -0.010784312151372433)
(X_714  0.08921568840742111)
(X_715  0.08921568840742111)
(X_716  -0.006862743757665157)
(X_717  -0.010784312151372433)
(X_718  -0.010784312151372433)
(X_719  -0.014705880545079708)
(X_720  -0.014705880545079708)
(X_721  -0.010784312151372433)
(X_722  -0.010784312151372433)
(X_723  -0.006862743757665157)
(X_724  -0.006862743757665157)
(X_725  -0.010784312151372433)
(X_726  -0.014705880545079708)
(X_727  -0.018627449870109558)
(X_728  0.08921568840742111)
(X_729  0.08921568840742111)
(X_730  -0.006862743757665157)
(X_731  0.09313725680112839)
(X_732  0.09313725680112839)
(X_733  0.09313725680112839)
(X_734  0.08921568840742111)
(X_735  0.08921568840742111)
(X_736  -0.010784312151372433)
(X_737  -0.010784312151372433)
(X_738  -0.010784312151372433)
(X_739  -0.010784312151372433)
(X_740  -0.010784312151372433)
(X_741  -0.010784312151372433)
(X_742  -0.010784312151372433)
(X_743  -0.010784312151372433)
(X_744  -0.010784312151372433)
(X_745  -0.010784312151372433)
(X_746  -0.014705880545079708)
(X_747  -0.014705880545079708)
(X_748  -0.014705880545079708)
(X_749  0.08529412001371384)
(X_750  0.08921568840742111)
(X_751  0.08921568840742111)
(X_752  0.09313725680112839)
(X_753  0.08921568840742111)
(X_754  0.08529412001371384)
(X_755  0.08137255162000656)
(X_756  -0.014705880545079708)
(X_757  -0.010784312151372433)
(X_758  -0.006862743757665157)
(X_759  0.09313725680112839)
(X_760  0.09313725680112839)
(X_761  0.09313725680112839)
(X_762  0.08921568840742111)
(X_763  0.08529412001371384)
(X_764  0.08529412001371384)
(X_765  0.08529412001371384)
(X_766  0.08529412001371384)
(X_767  0.08529412001371384)
(X_768  0.08529412001371384)
(X_769  0.08529412001371384)
(X_770  0.08529412001371384)
(X_771  0.08529412001371384)
(X_772  0.08921568840742111)
(X_773  -0.010784312151372433)
(X_774  -0.014705880545079708)
(X_775  -0.018627449870109558)
(X_776  -0.018627449870109558)
(X_777  -0.014705880545079708)
(X_778  0.08921568840742111)
(X_779  0.08921568840742111)
(X_780  0.09313725680112839)
(X_781  -0.010784312151372433)
(X_782  -0.014705880545079708)
(X_783  -0.018627449870109558)
(Y_0 39.01027297973633)
(Y_1 -13.922110557556152)
(Y_2 18.746654510498047)
(Y_3 -44.94255447387695))