((X_0  1.0382353067398071)
(X_1  0.9303921461105347)
(X_2  0.9225490093231201)
(X_3  0.9225490093231201)
(X_4  0.9303921461105347)
(X_5  0.9343137145042419)
(X_6  0.9303921461105347)
(X_7  1.0264705419540405)
(X_8  1.0303921699523926)
(X_9  1.0303921699523926)
(X_10  1.022549033164978)
(X_11  1.0147058963775635)
(X_12  1.0107842683792114)
(X_13  1.0107842683792114)
(X_14  0.906862735748291)
(X_15  0.906862735748291)
(X_16  0.9107843041419983)
(X_17  0.906862735748291)
(X_18  0.8990195989608765)
(X_19  0.8911764621734619)
(X_20  0.8833333253860474)
(X_21  0.9754902124404907)
(X_22  0.9676470756530762)
(X_23  0.9637255072593689)
(X_24  0.863725483417511)
(X_25  0.863725483417511)
(X_26  0.863725483417511)
(X_27  0.863725483417511)
(X_28  0.5480391979217529)
(X_29  0.4323529303073883)
(X_30  0.41274508833885193)
(X_31  0.3970588147640228)
(X_32  0.385294109582901)
(X_33  0.3735294044017792)
(X_34  0.3578431308269501)
(X_35  0.34607842564582825)
(X_36  0.41862747073173523)
(X_37  0.31470587849617004)
(X_38  0.31078431010246277)
(X_39  0.4068627655506134)
(X_40  0.40294119715690613)
(X_41  0.40294119715690613)
(X_42  0.40294119715690613)
(X_43  0.40294119715690613)
(X_44  0.3754902184009552)
(X_45  0.3715686500072479)
(X_46  0.26764705777168274)
(X_47  0.26372548937797546)
(X_48  0.2558823525905609)
(X_49  0.3480392396450043)
(X_50  0.344117671251297)
(X_51  0.344117671251297)
(X_52  0.29313725233078003)
(X_53  0.1931372582912445)
(X_54  0.1931372582912445)
(X_55  0.1931372582912445)
(X_56  0.14411765336990356)
(X_57  0.036274511367082596)
(X_58  0.02450980618596077)
(X_59  0.020588237792253494)
(X_60  0.12450980395078659)
(X_61  0.02450980618596077)
(X_62  0.01666666939854622)
(X_63  0.012745101936161518)
(X_64  0.02450980618596077)
(X_65  0.02450980618596077)
(X_66  0.12058823555707932)
(X_67  0.12058823555707932)
(X_68  0.12058823555707932)
(X_69  0.12058823555707932)
(X_70  0.12450980395078659)
(X_71  0.12450980395078659)
(X_72  0.14411765336990356)
(X_73  0.04411764815449715)
(X_74  0.04019607976078987)
(X_75  0.036274511367082596)
(X_76  0.036274511367082596)
(X_77  0.13235294818878174)
(X_78  0.12843137979507446)
(X_79  0.12843137979507446)
(X_80  0.16764706373214722)
(X_81  0.16764706373214722)
(X_82  0.16764706373214722)
(X_83  0.16764706373214722)
(X_84  0.0519607849419117)
(X_85  0.04411764815449715)
(X_86  0.04019607976078987)
(X_87  0.04411764815449715)
(X_88  0.1558823585510254)
(X_89  0.06372549384832382)
(X_90  0.16764706373214722)
(X_91  0.16372549533843994)
(X_92  0.04019607976078987)
(X_93  0.04019607976078987)
(X_94  0.1401960849761963)
(X_95  0.1401960849761963)
(X_96  0.1401960849761963)
(X_97  0.14411765336990356)
(X_98  0.14803922176361084)
(X_99  0.0519607849419117)
(X_100  0.14803922176361084)
(X_101  0.14803922176361084)
(X_102  0.04803921654820442)
(X_103  0.04803921654820442)
(X_104  0.04803921654820442)
(X_105  0.04803921654820442)
(X_106  0.04803921654820442)
(X_107  0.04803921654820442)
(X_108  0.028431374579668045)
(X_109  0.028431374579668045)
(X_110  0.028431374579668045)
(X_111  0.12843137979507446)
(X_112  0.14411765336990356)
(X_113  0.136274516582489)
(X_114  0.12450980395078659)
(X_115  0.12058823555707932)
(X_116  0.12058823555707932)
(X_117  0.01666666939854622)
(X_118  0.012745101936161518)
(X_119  0.004901961423456669)
(X_120  0.02450980618596077)
(X_121  0.020588237792253494)
(X_122  0.020588237792253494)
(X_123  0.12450980395078659)
(X_124  0.12450980395078659)
(X_125  0.12843137979507446)
(X_126  0.136274516582489)
(X_127  0.136274516582489)
(X_128  0.10882353037595749)
(X_129  0.10882353037595749)
(X_130  0.10882353037595749)
(X_131  0.012745101936161518)
(X_132  0.012745101936161518)
(X_133  0.01666666939854622)
(X_134  0.01666666939854622)
(X_135  0.01666666939854622)
(X_136  0.12843137979507446)
(X_137  0.12843137979507446)
(X_138  0.12843137979507446)
(X_139  0.12843137979507446)
(X_140  0.136274516582489)
(X_141  0.12843137979507446)
(X_142  0.02450980618596077)
(X_143  0.12843137979507446)
(X_144  0.136274516582489)
(X_145  0.14411765336990356)
(X_146  0.14411765336990356)
(X_147  0.04411764815449715)
(X_148  0.12058823555707932)
(X_149  0.12058823555707932)
(X_150  0.12058823555707932)
(X_151  0.12058823555707932)
(X_152  0.12058823555707932)
(X_153  0.12450980395078659)
(X_154  0.12843137979507446)
(X_155  0.13235294818878174)
(X_156  0.12843137979507446)
(X_157  0.12843137979507446)
(X_158  0.03235294297337532)
(X_159  0.03235294297337532)
(X_160  0.03235294297337532)
(X_161  0.136274516582489)
(X_162  0.136274516582489)
(X_163  0.136274516582489)
(X_164  0.12843137979507446)
(X_165  0.12843137979507446)
(X_166  0.12843137979507446)
(X_167  0.12843137979507446)
(X_168  0.08725491166114807)
(X_169  0.07156863063573837)
(X_170  0.05588235333561897)
(X_171  0.04019607976078987)
(X_172  0.03235294297337532)
(X_173  0.02450980618596077)
(X_174  0.008823529817163944)
(X_175  0.0009803927969187498)
(X_176  0.02450980618596077)
(X_177  0.02450980618596077)
(X_178  0.020588237792253494)
(X_179  0.12058823555707932)
(X_180  0.12058823555707932)
(X_181  0.12450980395078659)
(X_182  0.12843137979507446)
(X_183  0.12843137979507446)
(X_184  0.11274509876966476)
(X_185  0.012745101936161518)
(X_186  0.01666666939854622)
(X_187  0.01666666939854622)
(X_188  0.01666666939854622)
(X_189  0.11666666716337204)
(X_190  0.12058823555707932)
(X_191  0.12058823555707932)
(X_192  0.12058823555707932)
(X_193  0.12058823555707932)
(X_194  0.12058823555707932)
(X_195  0.12058823555707932)
(X_196  0.5401960611343384)
(X_197  0.5009803771972656)
(X_198  0.3382352888584137)
(X_199  0.26372548937797546)
(X_200  0.18921568989753723)
(X_201  0.11862745881080627)
(X_202  0.05980392172932625)
(X_203  0.028431374579668045)
(X_204  0.028431374579668045)
(X_205  0.02450980618596077)
(X_206  0.020588237792253494)
(X_207  0.020588237792253494)
(X_208  0.020588237792253494)
(X_209  0.020588237792253494)
(X_210  0.12450980395078659)
(X_211  0.12450980395078659)
(X_212  0.13235294818878174)
(X_213  0.13235294818878174)
(X_214  0.13235294818878174)
(X_215  0.03235294297337532)
(X_216  0.03235294297337532)
(X_217  0.03235294297337532)
(X_218  0.03235294297337532)
(X_219  0.03235294297337532)
(X_220  0.028431374579668045)
(X_221  0.12843137979507446)
(X_222  0.028431374579668045)
(X_223  0.028431374579668045)
(X_224  0.5323529243469238)
(X_225  0.5441176295280457)
(X_226  0.5401960611343384)
(X_227  0.5245097875595093)
(X_228  0.4323529303073883)
(X_229  0.4205882251262665)
(X_230  0.32647058367729187)
(X_231  0.22058825194835663)
(X_232  0.17941176891326904)
(X_233  0.13235294818878174)
(X_234  0.10490196198225021)
(X_235  0.11274509876966476)
(X_236  0.12450980395078659)
(X_237  0.12450980395078659)
(X_238  0.12843137979507446)
(X_239  0.14411765336990356)
(X_240  0.12843137979507446)
(X_241  0.13235294818878174)
(X_242  0.14411765336990356)
(X_243  0.15980392694473267)
(X_244  0.0676470622420311)
(X_245  0.17549020051956177)
(X_246  0.19901961088180542)
(X_247  0.11862745881080627)
(X_248  0.19509804248809814)
(X_249  0.09117648005485535)
(X_250  0.08725491166114807)
(X_251  0.07941177487373352)
(X_252  0.2872548997402191)
(X_253  0.33039215207099915)
(X_254  0.3499999940395355)
(X_255  0.4382353127002716)
(X_256  0.44607844948768616)
(X_257  0.4735294282436371)
(X_258  0.47745099663734436)
(X_259  0.3578431308269501)
(X_260  0.25196078419685364)
(X_261  0.2774509787559509)
(X_262  0.19901961088180542)
(X_263  0.16372549533843994)
(X_264  0.1558823585510254)
(X_265  0.14803922176361084)
(X_266  0.15196079015731812)
(X_267  0.15980392694473267)
(X_268  0.10294118523597717)
(X_269  0.15784314274787903)
(X_270  0.344117671251297)
(X_271  0.3225490152835846)
(X_272  0.3656862676143646)
(X_273  0.47745099663734436)
(X_274  0.4735294282436371)
(X_275  0.3696078360080719)
(X_276  0.385294109582901)
(X_277  0.3813725411891937)
(X_278  0.37745097279548645)
(X_279  0.4696078598499298)
(X_280  0.25196078419685364)
(X_281  0.27941176295280457)
(X_282  0.2754901945590973)
(X_283  0.24411766231060028)
(X_284  0.23235295712947845)
(X_285  0.35196080803871155)
(X_286  0.3637255132198334)
(X_287  0.3558823764324188)
(X_288  0.44607844948768616)
(X_289  0.3794117867946625)
(X_290  0.3127451241016388)
(X_291  0.18921568989753723)
(X_292  0.2970588207244873)
(X_293  0.3088235557079315)
(X_294  0.21666668355464935)
(X_295  0.2245098203420639)
(X_296  0.34215685725212097)
(X_297  0.44607844948768616)
(X_298  0.44607844948768616)
(X_299  0.4382353127002716)
(X_300  0.43039217591285706)
(X_301  0.43039217591285706)
(X_302  0.4382353127002716)
(X_303  0.34607842564582825)
(X_304  0.3656862676143646)
(X_305  0.36176469922065735)
(X_306  0.3578431308269501)
(X_307  0.3499999940395355)
(X_308  0.5186274647712708)
(X_309  0.5029411911964417)
(X_310  0.4754902124404907)
(X_311  0.45588237047195435)
(X_312  0.4598039388656616)
(X_313  0.4598039388656616)
(X_314  0.4166666567325592)
(X_315  0.3578431308269501)
(X_316  0.32647058367729187)
(X_317  0.3068627417087555)
(X_318  0.28333333134651184)
(X_319  0.26372548937797546)
(X_320  0.24411766231060028)
(X_321  0.3284313976764679)
(X_322  0.3127451241016388)
(X_323  0.30490198731422424)
(X_324  0.1774509847164154)
(X_325  0.22843138873577118)
(X_326  0.27941176295280457)
(X_327  0.4107843339443207)
(X_328  0.41470590233802795)
(X_329  0.3029411733150482)
(X_330  0.2754901945590973)
(X_331  0.24803923070430756)
(X_332  0.41470590233802795)
(X_333  0.41470590233802795)
(X_334  0.3068627417087555)
(X_335  0.3029411733150482)
(X_336  0.240196093916893)
(X_337  0.2558823525905609)
(X_338  0.2911764681339264)
(X_339  0.3539215624332428)
(X_340  0.5362744927406311)
(X_341  0.5990196466445923)
(X_342  0.6107843518257141)
(X_343  0.4950980544090271)
(X_344  0.5637255311012268)
(X_345  0.5911765098571777)
(X_346  0.6107843518257141)
(X_347  0.6068627834320068)
(X_348  0.5911765098571777)
(X_349  0.5794118046760559)
(X_350  0.5794118046760559)
(X_351  0.4833333492279053)
(X_352  0.48725491762161255)
(X_353  0.46764707565307617)
(X_354  0.5049019455909729)
(X_355  0.4264706075191498)
(X_356  0.2754901945590973)
(X_357  0.27156862616539)
(X_358  0.27941176295280457)
(X_359  0.3794117867946625)
(X_360  0.24803923070430756)
(X_361  0.24411766231060028)
(X_362  0.240196093916893)
(X_363  0.23627452552318573)
(X_364  0.21666668355464935)
(X_365  0.23627452552318573)
(X_366  0.24411766231060028)
(X_367  0.23235295712947845)
(X_368  0.3127451241016388)
(X_369  0.3127451241016388)
(X_370  0.240196093916893)
(X_371  0.3637255132198334)
(X_372  0.21666668355464935)
(X_373  0.2558823525905609)
(X_374  0.2872548997402191)
(X_375  0.2911764681339264)
(X_376  0.3950980603694916)
(X_377  0.4264706075191498)
(X_378  0.46568629145622253)
(X_379  0.3892156779766083)
(X_380  0.42450979351997375)
(X_381  0.4833333492279053)
(X_382  0.5343137383460999)
(X_383  0.6460784673690796)
(X_384  0.6421568989753723)
(X_385  0.5303921699523926)
(X_386  0.4950980544090271)
(X_387  0.4480392038822174)
(X_388  0.5676470994949341)
(X_389  0.5637255311012268)
(X_390  0.4598039388656616)
(X_391  0.45588237047195435)
(X_392  0.12254902720451355)
(X_393  0.13431373238563538)
(X_394  0.15000000596046448)
(X_395  0.24215686321258545)
(X_396  0.2343137264251709)
(X_397  0.24215686321258545)
(X_398  0.2813725471496582)
(X_399  0.32058826088905334)
(X_400  0.29313725233078003)
(X_401  0.20490197837352753)
(X_402  0.1931372582912445)
(X_403  0.16960784792900085)
(X_404  0.16960784792900085)
(X_405  0.1931372582912445)
(X_406  0.30490198731422424)
(X_407  0.30098041892051697)
(X_408  0.18137255311012268)
(X_409  0.21274511516094208)
(X_410  0.22058825194835663)
(X_411  0.20098040997982025)
(X_412  0.21666668355464935)
(X_413  0.26764705777168274)
(X_414  0.29901960492134094)
(X_415  0.3950980603694916)
(X_416  0.32647058367729187)
(X_417  0.32647058367729187)
(X_418  0.4225490391254425)
(X_419  0.41862747073173523)
(X_420  0.13431373238563538)
(X_421  0.21078431606292725)
(X_422  0.19509804248809814)
(X_423  0.2029411792755127)
(X_424  0.21470588445663452)
(X_425  0.21470588445663452)
(X_426  0.10294118523597717)
(X_427  0.09117648005485535)
(X_428  0.114705890417099)
(X_429  0.21470588445663452)
(X_430  0.2029411792755127)
(X_431  0.10294118523597717)
(X_432  0.23039215803146362)
(X_433  0.2617647051811218)
(X_434  0.25)
(X_435  0.114705890417099)
(X_436  0.16568627953529358)
(X_437  0.18921568989753723)
(X_438  0.2774509787559509)
(X_439  0.2343137264251709)
(X_440  0.12254902720451355)
(X_441  0.15000000596046448)
(X_442  0.1617647111415863)
(X_443  0.14215686917304993)
(X_444  0.18137255311012268)
(X_445  0.2774509787559509)
(X_446  0.27352941036224365)
(X_447  0.17352941632270813)
(X_448  0.1558823585510254)
(X_449  0.1558823585510254)
(X_450  0.15980392694473267)
(X_451  0.15980392694473267)
(X_452  0.16372549533843994)
(X_453  0.06372549384832382)
(X_454  0.0676470622420311)
(X_455  0.0676470622420311)
(X_456  0.09509804844856262)
(X_457  0.09509804844856262)
(X_458  0.19509804248809814)
(X_459  0.19509804248809814)
(X_460  0.19509804248809814)
(X_461  0.19509804248809814)
(X_462  0.19509804248809814)
(X_463  0.19509804248809814)
(X_464  0.20686274766921997)
(X_465  0.20686274766921997)
(X_466  0.21078431606292725)
(X_467  0.114705890417099)
(X_468  0.11862745881080627)
(X_469  0.12254902720451355)
(X_470  0.12254902720451355)
(X_471  0.12647059559822083)
(X_472  0.2343137264251709)
(X_473  0.2343137264251709)
(X_474  0.23039215803146362)
(X_475  0.23039215803146362)
(X_476  0.04411764815449715)
(X_477  0.04411764815449715)
(X_478  0.04411764815449715)
(X_479  0.04803921654820442)
(X_480  0.04803921654820442)
(X_481  0.0519607849419117)
(X_482  0.0519607849419117)
(X_483  0.0519607849419117)
(X_484  0.05980392172932625)
(X_485  0.05980392172932625)
(X_486  0.05980392172932625)
(X_487  0.15980392694473267)
(X_488  0.15980392694473267)
(X_489  0.15980392694473267)
(X_490  0.15980392694473267)
(X_491  0.15980392694473267)
(X_492  0.16372549533843994)
(X_493  0.16764706373214722)
(X_494  0.0676470622420311)
(X_495  0.07156863063573837)
(X_496  0.07549020648002625)
(X_497  0.07941177487373352)
(X_498  0.0833333432674408)
(X_499  0.0833333432674408)
(X_500  0.09509804844856262)
(X_501  0.0990196168422699)
(X_502  0.0990196168422699)
(X_503  0.10294118523597717)
(X_504  0.02450980618596077)
(X_505  0.12450980395078659)
(X_506  0.12843137979507446)
(X_507  0.12843137979507446)
(X_508  0.12843137979507446)
(X_509  0.028431374579668045)
(X_510  0.03235294297337532)
(X_511  0.03235294297337532)
(X_512  0.02450980618596077)
(X_513  0.02450980618596077)
(X_514  0.02450980618596077)
(X_515  0.02450980618596077)
(X_516  0.12450980395078659)
(X_517  0.12450980395078659)
(X_518  0.12450980395078659)
(X_519  0.12450980395078659)
(X_520  0.028431374579668045)
(X_521  0.028431374579668045)
(X_522  0.028431374579668045)
(X_523  0.03235294297337532)
(X_524  0.136274516582489)
(X_525  0.036274511367082596)
(X_526  0.04019607976078987)
(X_527  0.04019607976078987)
(X_528  0.0519607849419117)
(X_529  0.05588235333561897)
(X_530  0.05588235333561897)
(X_531  0.05980392172932625)
(X_532  0.012745101936161518)
(X_533  0.11274509876966476)
(X_534  0.012745101936161518)
(X_535  0.012745101936161518)
(X_536  0.11666666716337204)
(X_537  0.11666666716337204)
(X_538  0.11666666716337204)
(X_539  0.01666666939854622)
(X_540  0.012745101936161518)
(X_541  0.012745101936161518)
(X_542  0.11274509876966476)
(X_543  0.11274509876966476)
(X_544  0.11274509876966476)
(X_545  0.11274509876966476)
(X_546  0.012745101936161518)
(X_547  0.012745101936161518)
(X_548  0.11666666716337204)
(X_549  0.11666666716337204)
(X_550  0.11666666716337204)
(X_551  0.020588237792253494)
(X_552  0.020588237792253494)
(X_553  0.02450980618596077)
(X_554  0.02450980618596077)
(X_555  0.12450980395078659)
(X_556  0.028431374579668045)
(X_557  0.12450980395078659)
(X_558  0.02450980618596077)
(X_559  0.020588237792253494)
(X_560  0.008823529817163944)
(X_561  0.008823529817163944)
(X_562  0.008823529817163944)
(X_563  0.008823529817163944)
(X_564  0.008823529817163944)
(X_565  0.008823529817163944)
(X_566  0.008823529817163944)
(X_567  0.008823529817163944)
(X_568  0.008823529817163944)
(X_569  0.10882353037595749)
(X_570  0.10882353037595749)
(X_571  0.10882353037595749)
(X_572  0.10882353037595749)
(X_573  0.10882353037595749)
(X_574  0.10882353037595749)
(X_575  0.10882353037595749)
(X_576  0.11274509876966476)
(X_577  0.11666666716337204)
(X_578  0.11666666716337204)
(X_579  0.01666666939854622)
(X_580  0.01666666939854622)
(X_581  0.020588237792253494)
(X_582  0.020588237792253494)
(X_583  0.020588237792253494)
(X_584  0.012745101936161518)
(X_585  0.11274509876966476)
(X_586  0.012745101936161518)
(X_587  0.10882353037595749)
(X_588  0.10882353037595749)
(X_589  0.10882353037595749)
(X_590  0.10882353037595749)
(X_591  0.10490196198225021)
(X_592  0.004901961423456669)
(X_593  0.004901961423456669)
(X_594  0.0009803927969187498)
(X_595  0.0009803927969187498)
(X_596  0.0009803927969187498)
(X_597  0.0009803927969187498)
(X_598  0.0009803927969187498)
(X_599  0.0009803927969187498)
(X_600  0.10098039358854294)
(X_601  0.10098039358854294)
(X_602  0.10098039358854294)
(X_603  0.10098039358854294)
(X_604  0.10490196198225021)
(X_605  0.10490196198225021)
(X_606  0.004901961423456669)
(X_607  0.008823529817163944)
(X_608  0.10882353037595749)
(X_609  0.10882353037595749)
(X_610  0.008823529817163944)
(X_611  0.008823529817163944)
(X_612  0.10098039358854294)
(X_613  0.10490196198225021)
(X_614  0.10490196198225021)
(X_615  0.10882353037595749)
(X_616  0.004901961423456669)
(X_617  0.10490196198225021)
(X_618  0.10490196198225021)
(X_619  0.10098039358854294)
(X_620  0.0009803927969187498)
(X_621  -0.0029411755967885256)
(X_622  -0.0029411755967885256)
(X_623  -0.0029411755967885256)
(X_624  -0.006862743757665157)
(X_625  0.09313725680112839)
(X_626  0.09313725680112839)
(X_627  0.09313725680112839)
(X_628  0.09313725680112839)
(X_629  0.09313725680112839)
(X_630  0.09313725680112839)
(X_631  0.09313725680112839)
(X_632  -0.0029411755967885256)
(X_633  -0.0029411755967885256)
(X_634  -0.0029411755967885256)
(X_635  -0.0029411755967885256)
(X_636  -0.0029411755967885256)
(X_637  -0.0029411755967885256)
(X_638  0.09705882519483566)
(X_639  0.09705882519483566)
(X_640  0.09705882519483566)
(X_641  0.09705882519483566)
(X_642  0.10098039358854294)
(X_643  0.10098039358854294)
(X_644  0.10098039358854294)
(X_645  0.10098039358854294)
(X_646  0.10098039358854294)
(X_647  -0.0029411755967885256)
(X_648  -0.0029411755967885256)
(X_649  -0.006862743757665157)
(X_650  -0.006862743757665157)
(X_651  -0.006862743757665157)
(X_652  -0.0029411755967885256)
(X_653  -0.0029411755967885256)
(X_654  -0.0029411755967885256)
(X_655  -0.0029411755967885256)
(X_656  0.09705882519483566)
(X_657  0.09705882519483566)
(X_658  0.09705882519483566)
(X_659  0.09705882519483566)
(X_660  0.09705882519483566)
(X_661  -0.006862743757665157)
(X_662  -0.006862743757665157)
(X_663  -0.006862743757665157)
(X_664  -0.006862743757665157)
(X_665  -0.006862743757665157)
(X_666  -0.006862743757665157)
(X_667  -0.006862743757665157)
(X_668  -0.0029411755967885256)
(X_669  -0.0029411755967885256)
(X_670  0.09313725680112839)
(X_671  0.08921568840742111)
(X_672  -0.0029411755967885256)
(X_673  0.09705882519483566)
(X_674  -0.0029411755967885256)
(X_675  0.09705882519483566)
(X_676  0.09705882519483566)
(X_677  0.09705882519483566)
(X_678  0.09705882519483566)
(X_679  0.09705882519483566)
(X_680  0.09313725680112839)
(X_681  0.09705882519483566)
(X_682  0.10098039358854294)
(X_683  0.0009803927969187498)
(X_684  0.0009803927969187498)
(X_685  0.10098039358854294)
(X_686  0.09705882519483566)
(X_687  0.09313725680112839)
(X_688  -0.0029411755967885256)
(X_689  0.09705882519483566)
(X_690  0.09705882519483566)
(X_691  -0.0029411755967885256)
(X_692  -0.0029411755967885256)
(X_693  0.09705882519483566)
(X_694  0.09705882519483566)
(X_695  0.09705882519483566)
(X_696  0.10490196198225021)
(X_697  0.0009803927969187498)
(X_698  -0.0029411755967885256)
(X_699  0.09705882519483566)
(X_700  0.09705882519483566)
(X_701  0.09705882519483566)
(X_702  -0.0029411755967885256)
(X_703  0.09705882519483566)
(X_704  0.09705882519483566)
(X_705  -0.0029411755967885256)
(X_706  -0.0029411755967885256)
(X_707  -0.0029411755967885256)
(X_708  -0.006862743757665157)
(X_709  -0.006862743757665157)
(X_710  -0.0029411755967885256)
(X_711  -0.0029411755967885256)
(X_712  -0.0029411755967885256)
(X_713  0.09705882519483566)
(X_714  0.09313725680112839)
(X_715  0.09313725680112839)
(X_716  -0.0029411755967885256)
(X_717  -0.0029411755967885256)
(X_718  -0.0029411755967885256)
(X_719  -0.0029411755967885256)
(X_720  -0.0029411755967885256)
(X_721  -0.0029411755967885256)
(X_722  -0.0029411755967885256)
(X_723  -0.0029411755967885256)
(X_724  0.0009803927969187498)
(X_725  0.0009803927969187498)
(X_726  -0.0029411755967885256)
(X_727  0.09313725680112839)
(X_728  0.09705882519483566)
(X_729  0.09705882519483566)
(X_730  -0.0029411755967885256)
(X_731  0.09705882519483566)
(X_732  0.09705882519483566)
(X_733  0.09705882519483566)
(X_734  -0.0029411755967885256)
(X_735  0.09705882519483566)
(X_736  -0.014705880545079708)
(X_737  -0.010784312151372433)
(X_738  -0.010784312151372433)
(X_739  -0.006862743757665157)
(X_740  -0.006862743757665157)
(X_741  -0.010784312151372433)
(X_742  -0.010784312151372433)
(X_743  -0.014705880545079708)
(X_744  -0.0029411755967885256)
(X_745  0.09705882519483566)
(X_746  0.09705882519483566)
(X_747  0.09705882519483566)
(X_748  0.09705882519483566)
(X_749  0.09705882519483566)
(X_750  0.09705882519483566)
(X_751  -0.0029411755967885256)
(X_752  0.09705882519483566)
(X_753  0.09313725680112839)
(X_754  0.08921568840742111)
(X_755  0.08921568840742111)
(X_756  -0.006862743757665157)
(X_757  -0.006862743757665157)
(X_758  -0.006862743757665157)
(X_759  -0.006862743757665157)
(X_760  0.09313725680112839)
(X_761  -0.006862743757665157)
(X_762  -0.006862743757665157)
(X_763  0.09313725680112839)
(X_764  -0.018627449870109558)
(X_765  -0.014705880545079708)
(X_766  0.08529412001371384)
(X_767  0.08921568840742111)
(X_768  0.08921568840742111)
(X_769  0.08529412001371384)
(X_770  0.08529412001371384)
(X_771  -0.018627449870109558)
(X_772  -0.006862743757665157)
(X_773  -0.006862743757665157)
(X_774  -0.006862743757665157)
(X_775  -0.006862743757665157)
(X_776  -0.006862743757665157)
(X_777  0.09313725680112839)
(X_778  0.09313725680112839)
(X_779  0.09313725680112839)
(X_780  0.09313725680112839)
(X_781  -0.010784312151372433)
(X_782  -0.014705880545079708)
(X_783  -0.018627449870109558)
(Y_0 38.84524154663086)
(Y_1 -22.214778900146484)
(Y_2 12.028010368347168)
(Y_3 -28.32008171081543))