((X_0  1.0499999523162842)
(X_1  0.949999988079071)
(X_2  0.949999988079071)
(X_3  0.949999988079071)
(X_4  0.949999988079071)
(X_5  0.949999988079071)
(X_6  0.9460784196853638)
(X_7  0.9382352828979492)
(X_8  0.949999988079071)
(X_9  0.9460784196853638)
(X_10  0.9303921461105347)
(X_11  0.9186274409294128)
(X_12  0.9107843041419983)
(X_13  0.9990196228027344)
(X_14  0.9754902124404907)
(X_15  0.8558823466300964)
(X_16  0.8323529362678528)
(X_17  0.79313725233078)
(X_18  0.7343137264251709)
(X_19  0.679411768913269)
(X_20  0.7245098352432251)
(X_21  0.6578431725502014)
(X_22  0.5872549414634705)
(X_23  0.44019606709480286)
(X_24  0.41470590233802795)
(X_25  0.3950980603694916)
(X_26  0.2598039209842682)
(X_27  0.2245098203420639)
(X_28  0.9872549176216125)
(X_29  0.863725483417511)
(X_30  0.8323529362678528)
(X_31  0.79313725233078)
(X_32  0.7539215683937073)
(X_33  0.7147058844566345)
(X_34  0.6754902005195618)
(X_35  0.7480392456054688)
(X_36  0.5539215803146362)
(X_37  0.522549033164978)
(X_38  0.46764707565307617)
(X_39  0.4049019515514374)
(X_40  0.34215685725212097)
(X_41  0.3794117867946625)
(X_42  0.32058826088905334)
(X_43  0.2813725471496582)
(X_44  0.2656862735748291)
(X_45  0.24607843160629272)
(X_46  0.12254902720451355)
(X_47  0.11078432202339172)
(X_48  0.10686275362968445)
(X_49  0.09117648005485535)
(X_50  0.06372549384832382)
(X_51  0.04019607976078987)
(X_52  0.19509804248809814)
(X_53  0.1872549057006836)
(X_54  0.17549020051956177)
(X_55  0.16372549533843994)
(X_56  0.3911764919757843)
(X_57  0.26764705777168274)
(X_58  0.23235295712947845)
(X_59  0.1931372582912445)
(X_60  0.15784314274787903)
(X_61  0.12647059559822083)
(X_62  0.09509804844856262)
(X_63  0.07549020648002625)
(X_64  0.07549020648002625)
(X_65  0.07156863063573837)
(X_66  0.07549020648002625)
(X_67  0.0833333432674408)
(X_68  0.19509804248809814)
(X_69  0.19901961088180542)
(X_70  0.0990196168422699)
(X_71  0.09117648005485535)
(X_72  0.0833333432674408)
(X_73  0.07156863063573837)
(X_74  0.06372549384832382)
(X_75  0.07156863063573837)
(X_76  0.1872549057006836)
(X_77  0.19509804248809814)
(X_78  0.19117647409439087)
(X_79  0.18333333730697632)
(X_80  0.1558823585510254)
(X_81  0.16372549533843994)
(X_82  0.16764706373214722)
(X_83  0.17549020051956177)
(X_84  0.17941176891326904)
(X_85  0.16764706373214722)
(X_86  0.1558823585510254)
(X_87  0.15196079015731812)
(X_88  0.05588235333561897)
(X_89  0.05588235333561897)
(X_90  0.05588235333561897)
(X_91  0.0519607849419117)
(X_92  0.19901961088180542)
(X_93  0.09509804844856262)
(X_94  0.08725491166114807)
(X_95  0.0833333432674408)
(X_96  0.17549020051956177)
(X_97  0.16372549533843994)
(X_98  0.15196079015731812)
(X_99  0.14411765336990356)
(X_100  0.1872549057006836)
(X_101  0.17549020051956177)
(X_102  0.16372549533843994)
(X_103  0.15980392694473267)
(X_104  0.06372549384832382)
(X_105  0.0676470622420311)
(X_106  0.06372549384832382)
(X_107  0.05980392172932625)
(X_108  0.0833333432674408)
(X_109  0.08725491166114807)
(X_110  0.09509804844856262)
(X_111  0.2029411792755127)
(X_112  0.0990196168422699)
(X_113  0.1872549057006836)
(X_114  0.17941176891326904)
(X_115  0.07941177487373352)
(X_116  0.08725491166114807)
(X_117  0.09509804844856262)
(X_118  0.0990196168422699)
(X_119  0.09509804844856262)
(X_120  0.14803922176361084)
(X_121  0.05588235333561897)
(X_122  0.06372549384832382)
(X_123  0.07549020648002625)
(X_124  0.18333333730697632)
(X_125  0.08725491166114807)
(X_126  0.09117648005485535)
(X_127  0.09509804844856262)
(X_128  0.17941176891326904)
(X_129  0.1715686321258545)
(X_130  0.16372549533843994)
(X_131  0.15980392694473267)
(X_132  0.15980392694473267)
(X_133  0.16372549533843994)
(X_134  0.06372549384832382)
(X_135  0.16372549533843994)
(X_136  0.16372549533843994)
(X_137  0.06372549384832382)
(X_138  0.16372549533843994)
(X_139  0.16372549533843994)
(X_140  0.2029411792755127)
(X_141  0.19117647409439087)
(X_142  0.17941176891326904)
(X_143  0.1715686321258545)
(X_144  0.0676470622420311)
(X_145  0.06372549384832382)
(X_146  0.05588235333561897)
(X_147  0.14803922176361084)
(X_148  0.19117647409439087)
(X_149  0.19509804248809814)
(X_150  0.19509804248809814)
(X_151  0.1872549057006836)
(X_152  0.1715686321258545)
(X_153  0.15980392694473267)
(X_154  0.15196079015731812)
(X_155  0.15196079015731812)
(X_156  0.06372549384832382)
(X_157  0.06372549384832382)
(X_158  0.15980392694473267)
(X_159  0.1558823585510254)
(X_160  0.15196079015731812)
(X_161  0.15196079015731812)
(X_162  0.1558823585510254)
(X_163  0.1558823585510254)
(X_164  0.15980392694473267)
(X_165  0.05980392172932625)
(X_166  0.15196079015731812)
(X_167  0.15196079015731812)
(X_168  0.1715686321258545)
(X_169  0.16764706373214722)
(X_170  0.06372549384832382)
(X_171  0.15980392694473267)
(X_172  0.16372549533843994)
(X_173  0.15980392694473267)
(X_174  0.04803921654820442)
(X_175  0.1401960849761963)
(X_176  0.12843137979507446)
(X_177  0.1401960849761963)
(X_178  0.15196079015731812)
(X_179  0.1558823585510254)
(X_180  0.1558823585510254)
(X_181  0.1558823585510254)
(X_182  0.06372549384832382)
(X_183  0.07156863063573837)
(X_184  0.15980392694473267)
(X_185  0.15980392694473267)
(X_186  0.16372549533843994)
(X_187  0.16372549533843994)
(X_188  0.1558823585510254)
(X_189  0.0519607849419117)
(X_190  0.04803921654820442)
(X_191  0.14803922176361084)
(X_192  0.14411765336990356)
(X_193  0.14411765336990356)
(X_194  0.04019607976078987)
(X_195  0.1401960849761963)
(X_196  0.04803921654820442)
(X_197  0.14411765336990356)
(X_198  0.04803921654820442)
(X_199  0.0519607849419117)
(X_200  0.05980392172932625)
(X_201  0.15980392694473267)
(X_202  0.04803921654820442)
(X_203  0.04019607976078987)
(X_204  0.0519607849419117)
(X_205  0.15980392694473267)
(X_206  0.16764706373214722)
(X_207  0.16372549533843994)
(X_208  0.04803921654820442)
(X_209  0.04019607976078987)
(X_210  0.04019607976078987)
(X_211  0.14803922176361084)
(X_212  0.1558823585510254)
(X_213  0.16764706373214722)
(X_214  0.18333333730697632)
(X_215  0.19509804248809814)
(X_216  0.19901961088180542)
(X_217  0.19901961088180542)
(X_218  0.2029411792755127)
(X_219  0.20686274766921997)
(X_220  0.16764706373214722)
(X_221  0.0676470622420311)
(X_222  0.0676470622420311)
(X_223  0.16372549533843994)
(X_224  0.0676470622420311)
(X_225  0.05588235333561897)
(X_226  0.0519607849419117)
(X_227  0.05588235333561897)
(X_228  0.04411764815449715)
(X_229  0.03235294297337532)
(X_230  0.036274511367082596)
(X_231  0.05588235333561897)
(X_232  0.1558823585510254)
(X_233  0.04019607976078987)
(X_234  0.04019607976078987)
(X_235  0.06372549384832382)
(X_236  0.08725491166114807)
(X_237  0.0990196168422699)
(X_238  0.1303921639919281)
(X_239  0.16960784792900085)
(X_240  0.240196093916893)
(X_241  0.3715686500072479)
(X_242  0.39901962876319885)
(X_243  0.4225490391254425)
(X_244  0.4539215862751007)
(X_245  0.4735294282436371)
(X_246  0.46568629145622253)
(X_247  0.34607842564582825)
(X_248  0.33039215207099915)
(X_249  0.29509803652763367)
(X_250  0.23235295712947845)
(X_251  0.27352941036224365)
(X_252  0.036274511367082596)
(X_253  0.04019607976078987)
(X_254  0.06372549384832382)
(X_255  0.1872549057006836)
(X_256  0.18333333730697632)
(X_257  0.1558823585510254)
(X_258  0.1401960849761963)
(X_259  0.14411765336990356)
(X_260  0.04019607976078987)
(X_261  0.05980392172932625)
(X_262  0.1872549057006836)
(X_263  0.2656862735748291)
(X_264  0.3715686500072479)
(X_265  0.4225490391254425)
(X_266  0.457843154668808)
(X_267  0.5166666507720947)
(X_268  0.46176472306251526)
(X_269  0.4421568810939789)
(X_270  0.4382353127002716)
(X_271  0.4382353127002716)
(X_272  0.3225490152835846)
(X_273  0.4107843339443207)
(X_274  0.4421568810939789)
(X_275  0.49313727021217346)
(X_276  0.3696078360080719)
(X_277  0.3813725411891937)
(X_278  0.3892156779766083)
(X_279  0.39313724637031555)
(X_280  0.1715686321258545)
(X_281  0.1558823585510254)
(X_282  0.04411764815449715)
(X_283  0.04411764815449715)
(X_284  0.03235294297337532)
(X_285  0.12450980395078659)
(X_286  0.1401960849761963)
(X_287  0.16764706373214722)
(X_288  0.1617647111415863)
(X_289  0.2598039209842682)
(X_290  0.3225490152835846)
(X_291  0.4735294282436371)
(X_292  0.5245097875595093)
(X_293  0.3656862676143646)
(X_294  0.29509803652763367)
(X_295  0.3225490152835846)
(X_296  0.457843154668808)
(X_297  0.3970588147640228)
(X_298  0.4950980544090271)
(X_299  0.5852941274642944)
(X_300  0.6539216041564941)
(X_301  0.5362744927406311)
(X_302  0.4696078598499298)
(X_303  0.47745099663734436)
(X_304  0.4852941334247589)
(X_305  0.48137256503105164)
(X_306  0.3578431308269501)
(X_307  0.3343137204647064)
(X_308  0.14411765336990356)
(X_309  0.14411765336990356)
(X_310  0.15980392694473267)
(X_311  0.0990196168422699)
(X_312  0.14215686917304993)
(X_313  0.18921568989753723)
(X_314  0.25196078419685364)
(X_315  0.3029411733150482)
(X_316  0.3225490152835846)
(X_317  0.3970588147640228)
(X_318  0.3735294044017792)
(X_319  0.4264706075191498)
(X_320  0.43431374430656433)
(X_321  0.3068627417087555)
(X_322  0.3225490152835846)
(X_323  0.4323529303073883)
(X_324  0.6088235378265381)
(X_325  0.6049019694328308)
(X_326  0.6401960849761963)
(X_327  0.6872549057006836)
(X_328  0.7833333611488342)
(X_329  0.7284314036369324)
(X_330  0.6852941513061523)
(X_331  0.6774510145187378)
(X_332  0.5343137383460999)
(X_333  0.5068627595901489)
(X_334  0.44411763548851013)
(X_335  0.37745097279548645)
(X_336  0.1931372582912445)
(X_337  0.31666669249534607)
(X_338  0.3715686500072479)
(X_339  0.43039217591285706)
(X_340  0.46568629145622253)
(X_341  0.4696078598499298)
(X_342  0.3813725411891937)
(X_343  0.3970588147640228)
(X_344  0.4264706075191498)
(X_345  0.44607844948768616)
(X_346  0.3029411733150482)
(X_347  0.28333333134651184)
(X_348  0.3499999940395355)
(X_349  0.4166666567325592)
(X_350  0.48725491762161255)
(X_351  0.6852941513061523)
(X_352  0.751960813999176)
(X_353  0.6970588564872742)
(X_354  0.6107843518257141)
(X_355  0.4598039388656616)
(X_356  0.595098078250885)
(X_357  0.6539216041564941)
(X_358  0.6578431725502014)
(X_359  0.6186274886131287)
(X_360  0.5382353067398071)
(X_361  0.5460784435272217)
(X_362  0.5421568751335144)
(X_363  0.5186274647712708)
(X_364  0.4009803831577301)
(X_365  0.3970588147640228)
(X_366  0.3970588147640228)
(X_367  0.49313727021217346)
(X_368  0.46176472306251526)
(X_369  0.41862747073173523)
(X_370  0.2911764681339264)
(X_371  0.2911764681339264)
(X_372  0.28333333134651184)
(X_373  0.27156862616539)
(X_374  0.2911764681339264)
(X_375  0.46176472306251526)
(X_376  0.45588237047195435)
(X_377  0.5343137383460999)
(X_378  0.5421568751335144)
(X_379  0.4950980544090271)
(X_380  0.6147059202194214)
(X_381  0.5911765098571777)
(X_382  0.5284313559532166)
(X_383  0.49313727021217346)
(X_384  0.45588237047195435)
(X_385  0.5382353067398071)
(X_386  0.5147058963775635)
(X_387  0.42450979351997375)
(X_388  0.5088235139846802)
(X_389  0.5401960611343384)
(X_390  0.46764707565307617)
(X_391  0.479411780834198)
(X_392  0.4539215862751007)
(X_393  0.43039217591285706)
(X_394  0.40294119715690613)
(X_395  0.387254923582077)
(X_396  0.36764708161354065)
(X_397  0.3558823764324188)
(X_398  0.36764708161354065)
(X_399  0.3950980603694916)
(X_400  0.2872548997402191)
(X_401  0.25196078419685364)
(X_402  0.3225490152835846)
(X_403  0.4852941334247589)
(X_404  0.4892157018184662)
(X_405  0.4637255072593689)
(X_406  0.5029411911964417)
(X_407  0.4205882251262665)
(X_408  0.3068627417087555)
(X_409  0.3794117867946625)
(X_410  0.33627453446388245)
(X_411  0.31666669249534607)
(X_412  0.3637255132198334)
(X_413  0.3343137204647064)
(X_414  0.3578431308269501)
(X_415  0.4382353127002716)
(X_416  0.37745097279548645)
(X_417  0.4049019515514374)
(X_418  0.4205882251262665)
(X_419  0.4166666567325592)
(X_420  0.2911764681339264)
(X_421  0.2872548997402191)
(X_422  0.2911764681339264)
(X_423  0.29901960492134094)
(X_424  0.2872548997402191)
(X_425  0.26372548937797546)
(X_426  0.2598039209842682)
(X_427  0.27156862616539)
(X_428  0.25196078419685364)
(X_429  0.39901962876319885)
(X_430  0.4833333492279053)
(X_431  0.5343137383460999)
(X_432  0.3735294044017792)
(X_433  0.4225490391254425)
(X_434  0.3186274468898773)
(X_435  0.19705882668495178)
(X_436  0.24607843160629272)
(X_437  0.24215686321258545)
(X_438  0.25)
(X_439  0.2696078419685364)
(X_440  0.2696078419685364)
(X_441  0.2656862735748291)
(X_442  0.1774509847164154)
(X_443  0.20098040997982025)
(X_444  0.27156862616539)
(X_445  0.3068627417087555)
(X_446  0.34215685725212097)
(X_447  0.44607844948768616)
(X_448  0.5401960611343384)
(X_449  0.4362744987010956)
(X_450  0.5401960611343384)
(X_451  0.5480391979217529)
(X_452  0.5480391979217529)
(X_453  0.5245097875595093)
(X_454  0.48137256503105164)
(X_455  0.44607844948768616)
(X_456  0.5009803771972656)
(X_457  0.5127450823783875)
(X_458  0.48137256503105164)
(X_459  0.4107843339443207)
(X_460  0.3598039448261261)
(X_461  0.33235296607017517)
(X_462  0.2813725471496582)
(X_463  0.22254902124404907)
(X_464  0.1460784375667572)
(X_465  0.14215686917304993)
(X_466  0.23823529481887817)
(X_467  0.22647058963775635)
(X_468  0.21470588445663452)
(X_469  0.21470588445663452)
(X_470  0.22647058963775635)
(X_471  0.2343137264251709)
(X_472  0.344117671251297)
(X_473  0.33235296607017517)
(X_474  0.3127451241016388)
(X_475  0.29313725233078003)
(X_476  0.28333333134651184)
(X_477  0.2872548997402191)
(X_478  0.3950980603694916)
(X_479  0.39901962876319885)
(X_480  0.2911764681339264)
(X_481  0.28333333134651184)
(X_482  0.2754901945590973)
(X_483  0.3715686500072479)
(X_484  0.3637255132198334)
(X_485  0.35196080803871155)
(X_486  0.2088235467672348)
(X_487  0.1617647111415863)
(X_488  0.15784314274787903)
(X_489  0.16568627953529358)
(X_490  0.1303921639919281)
(X_491  0.0676470622420311)
(X_492  0.10686275362968445)
(X_493  0.10294118523597717)
(X_494  0.19901961088180542)
(X_495  0.1872549057006836)
(X_496  0.17941176891326904)
(X_497  0.17941176891326904)
(X_498  0.1872549057006836)
(X_499  0.09509804844856262)
(X_500  0.2656862735748291)
(X_501  0.15392157435417175)
(X_502  0.13823530077934265)
(X_503  0.11862745881080627)
(X_504  0.10686275362968445)
(X_505  0.11862745881080627)
(X_506  0.22254902124404907)
(X_507  0.11078432202339172)
(X_508  0.0990196168422699)
(X_509  0.2029411792755127)
(X_510  0.22647058963775635)
(X_511  0.15000000596046448)
(X_512  0.15784314274787903)
(X_513  0.12647059559822083)
(X_514  0.07549020648002625)
(X_515  0.0519607849419117)
(X_516  0.08725491166114807)
(X_517  0.12647059559822083)
(X_518  0.10294118523597717)
(X_519  0.04411764815449715)
(X_520  0.0676470622420311)
(X_521  0.0676470622420311)
(X_522  0.06372549384832382)
(X_523  0.05588235333561897)
(X_524  0.04411764815449715)
(X_525  0.14411765336990356)
(X_526  0.15196079015731812)
(X_527  0.15980392694473267)
(X_528  0.09117648005485535)
(X_529  0.0833333432674408)
(X_530  0.0676470622420311)
(X_531  0.0519607849419117)
(X_532  0.22254902124404907)
(X_533  0.2186274528503418)
(X_534  0.21078431606292725)
(X_535  0.19509804248809814)
(X_536  0.18333333730697632)
(X_537  0.19117647409439087)
(X_538  0.11078432202339172)
(X_539  0.1303921639919281)
(X_540  0.12254902720451355)
(X_541  0.09117648005485535)
(X_542  0.14411765336990356)
(X_543  0.03235294297337532)
(X_544  0.07156863063573837)
(X_545  0.10686275362968445)
(X_546  0.08725491166114807)
(X_547  0.04411764815449715)
(X_548  0.15196079015731812)
(X_549  0.1558823585510254)
(X_550  0.05588235333561897)
(X_551  0.04803921654820442)
(X_552  0.1401960849761963)
(X_553  0.136274516582489)
(X_554  0.14411765336990356)
(X_555  0.0519607849419117)
(X_556  0.16372549533843994)
(X_557  0.05588235333561897)
(X_558  0.14411765336990356)
(X_559  0.13235294818878174)
(X_560  0.22254902124404907)
(X_561  0.10686275362968445)
(X_562  0.09117648005485535)
(X_563  0.08725491166114807)
(X_564  0.09509804844856262)
(X_565  0.19901961088180542)
(X_566  0.0990196168422699)
(X_567  0.09509804844856262)
(X_568  0.07549020648002625)
(X_569  0.15980392694473267)
(X_570  0.1401960849761963)
(X_571  0.036274511367082596)
(X_572  0.0519607849419117)
(X_573  0.0676470622420311)
(X_574  0.0519607849419117)
(X_575  0.028431374579668045)
(X_576  0.04803921654820442)
(X_577  0.0519607849419117)
(X_578  0.15196079015731812)
(X_579  0.14803922176361084)
(X_580  0.1401960849761963)
(X_581  0.136274516582489)
(X_582  0.14411765336990356)
(X_583  0.14803922176361084)
(X_584  0.1558823585510254)
(X_585  0.04803921654820442)
(X_586  0.04019607976078987)
(X_587  0.03235294297337532)
(X_588  0.14411765336990356)
(X_589  0.028431374579668045)
(X_590  0.020588237792253494)
(X_591  0.028431374579668045)
(X_592  0.04411764815449715)
(X_593  0.15196079015731812)
(X_594  0.1401960849761963)
(X_595  0.12843137979507446)
(X_596  0.12843137979507446)
(X_597  0.12843137979507446)
(X_598  0.03235294297337532)
(X_599  0.03235294297337532)
(X_600  0.03235294297337532)
(X_601  0.03235294297337532)
(X_602  0.028431374579668045)
(X_603  0.02450980618596077)
(X_604  0.13235294818878174)
(X_605  0.136274516582489)
(X_606  0.1401960849761963)
(X_607  0.1401960849761963)
(X_608  0.13235294818878174)
(X_609  0.12843137979507446)
(X_610  0.13235294818878174)
(X_611  0.1401960849761963)
(X_612  0.13235294818878174)
(X_613  0.03235294297337532)
(X_614  0.12843137979507446)
(X_615  0.12450980395078659)
(X_616  0.13235294818878174)
(X_617  0.13235294818878174)
(X_618  0.036274511367082596)
(X_619  0.04019607976078987)
(X_620  0.04803921654820442)
(X_621  0.15196079015731812)
(X_622  0.14803922176361084)
(X_623  0.14411765336990356)
(X_624  0.12450980395078659)
(X_625  0.12058823555707932)
(X_626  0.12058823555707932)
(X_627  0.12843137979507446)
(X_628  0.028431374579668045)
(X_629  0.02450980618596077)
(X_630  0.02450980618596077)
(X_631  0.02450980618596077)
(X_632  0.11274509876966476)
(X_633  0.12058823555707932)
(X_634  0.028431374579668045)
(X_635  0.028431374579668045)
(X_636  0.020588237792253494)
(X_637  0.11666666716337204)
(X_638  0.12058823555707932)
(X_639  0.12450980395078659)
(X_640  0.12058823555707932)
(X_641  0.11666666716337204)
(X_642  0.11666666716337204)
(X_643  0.11666666716337204)
(X_644  0.12058823555707932)
(X_645  0.03235294297337532)
(X_646  0.1401960849761963)
(X_647  0.136274516582489)
(X_648  0.12058823555707932)
(X_649  0.11666666716337204)
(X_650  0.12843137979507446)
(X_651  0.1401960849761963)
(X_652  0.1401960849761963)
(X_653  0.020588237792253494)
(X_654  0.008823529817163944)
(X_655  0.012745101936161518)
(X_656  0.020588237792253494)
(X_657  0.01666666939854622)
(X_658  0.012745101936161518)
(X_659  0.012745101936161518)
(X_660  0.10882353037595749)
(X_661  0.11666666716337204)
(X_662  0.12450980395078659)
(X_663  0.02450980618596077)
(X_664  0.01666666939854622)
(X_665  0.012745101936161518)
(X_666  0.11666666716337204)
(X_667  0.020588237792253494)
(X_668  0.01666666939854622)
(X_669  0.01666666939854622)
(X_670  0.11666666716337204)
(X_671  0.01666666939854622)
(X_672  0.11274509876966476)
(X_673  0.01666666939854622)
(X_674  0.02450980618596077)
(X_675  0.020588237792253494)
(X_676  0.11274509876966476)
(X_677  0.11274509876966476)
(X_678  0.11666666716337204)
(X_679  0.12058823555707932)
(X_680  0.01666666939854622)
(X_681  0.01666666939854622)
(X_682  0.01666666939854622)
(X_683  0.01666666939854622)
(X_684  0.01666666939854622)
(X_685  0.01666666939854622)
(X_686  0.01666666939854622)
(X_687  0.01666666939854622)
(X_688  0.11274509876966476)
(X_689  0.11274509876966476)
(X_690  0.012745101936161518)
(X_691  0.012745101936161518)
(X_692  0.11274509876966476)
(X_693  0.11274509876966476)
(X_694  0.012745101936161518)
(X_695  0.11274509876966476)
(X_696  0.11274509876966476)
(X_697  0.11274509876966476)
(X_698  0.11274509876966476)
(X_699  0.11274509876966476)
(X_700  0.10882353037595749)
(X_701  0.01666666939854622)
(X_702  0.12058823555707932)
(X_703  0.11666666716337204)
(X_704  0.008823529817163944)
(X_705  0.008823529817163944)
(X_706  0.012745101936161518)
(X_707  0.01666666939854622)
(X_708  0.012745101936161518)
(X_709  0.012745101936161518)
(X_710  0.012745101936161518)
(X_711  0.012745101936161518)
(X_712  0.012745101936161518)
(X_713  0.012745101936161518)
(X_714  0.012745101936161518)
(X_715  0.012745101936161518)
(X_716  0.008823529817163944)
(X_717  0.008823529817163944)
(X_718  0.008823529817163944)
(X_719  0.008823529817163944)
(X_720  0.008823529817163944)
(X_721  0.008823529817163944)
(X_722  0.10882353037595749)
(X_723  0.10882353037595749)
(X_724  0.10882353037595749)
(X_725  0.10882353037595749)
(X_726  0.10882353037595749)
(X_727  0.10882353037595749)
(X_728  0.10490196198225021)
(X_729  0.008823529817163944)
(X_730  0.11274509876966476)
(X_731  0.11274509876966476)
(X_732  0.10490196198225021)
(X_733  0.10098039358854294)
(X_734  0.10490196198225021)
(X_735  0.11274509876966476)
(X_736  0.10882353037595749)
(X_737  0.008823529817163944)
(X_738  0.008823529817163944)
(X_739  0.008823529817163944)
(X_740  0.008823529817163944)
(X_741  0.008823529817163944)
(X_742  0.008823529817163944)
(X_743  0.008823529817163944)
(X_744  0.004901961423456669)
(X_745  0.004901961423456669)
(X_746  0.004901961423456669)
(X_747  0.004901961423456669)
(X_748  0.10490196198225021)
(X_749  0.10490196198225021)
(X_750  0.10490196198225021)
(X_751  0.10490196198225021)
(X_752  0.10490196198225021)
(X_753  0.10490196198225021)
(X_754  0.10490196198225021)
(X_755  0.10490196198225021)
(X_756  0.09705882519483566)
(X_757  0.10490196198225021)
(X_758  0.10882353037595749)
(X_759  0.10490196198225021)
(X_760  -0.0029411755967885256)
(X_761  -0.0029411755967885256)
(X_762  0.10098039358854294)
(X_763  0.10490196198225021)
(X_764  0.004901961423456669)
(X_765  0.004901961423456669)
(X_766  0.004901961423456669)
(X_767  0.004901961423456669)
(X_768  0.004901961423456669)
(X_769  0.004901961423456669)
(X_770  0.004901961423456669)
(X_771  0.004901961423456669)
(X_772  0.0009803927969187498)
(X_773  0.0009803927969187498)
(X_774  0.0009803927969187498)
(X_775  0.0009803927969187498)
(X_776  0.10098039358854294)
(X_777  0.10098039358854294)
(X_778  0.0009803927969187498)
(X_779  0.10098039358854294)
(X_780  0.0009803927969187498)
(X_781  0.0009803927969187498)
(X_782  0.0009803927969187498)
(X_783  0.0009803927969187498)
(Y_0 -25.983642578125)
(Y_1 34.952884674072266)
(Y_2 -20.188508987426758)
(Y_3 13.16757583618164))