((X_0  1.0499999523162842)
(X_1  1.0499999523162842)
(X_2  1.0499999523162842)
(X_3  1.0499999523162842)
(X_4  1.0499999523162842)
(X_5  1.0499999523162842)
(X_6  0.949999988079071)
(X_7  0.949999988079071)
(X_8  0.949999988079071)
(X_9  0.949999988079071)
(X_10  1.0460784435272217)
(X_11  1.0499999523162842)
(X_12  0.949999988079071)
(X_13  0.949999988079071)
(X_14  1.0499999523162842)
(X_15  1.0499999523162842)
(X_16  0.9421568512916565)
(X_17  0.949999988079071)
(X_18  0.949999988079071)
(X_19  0.949999988079071)
(X_20  1.0499999523162842)
(X_21  1.0499999523162842)
(X_22  1.0499999523162842)
(X_23  0.949999988079071)
(X_24  1.0421568155288696)
(X_25  1.0421568155288696)
(X_26  0.949999988079071)
(X_27  1.0499999523162842)
(X_28  1.034313678741455)
(X_29  1.034313678741455)
(X_30  1.0303921699523926)
(X_31  1.0303921699523926)
(X_32  1.034313678741455)
(X_33  0.9421568512916565)
(X_34  0.949999988079071)
(X_35  1.0499999523162842)
(X_36  1.0499999523162842)
(X_37  0.9460784196853638)
(X_38  0.9343137145042419)
(X_39  0.9264705777168274)
(X_40  0.9264705777168274)
(X_41  0.9303921461105347)
(X_42  0.9343137145042419)
(X_43  0.9382352828979492)
(X_44  1.0499999523162842)
(X_45  1.0499999523162842)
(X_46  0.9460784196853638)
(X_47  0.9382352828979492)
(X_48  0.9343137145042419)
(X_49  0.9421568512916565)
(X_50  0.949999988079071)
(X_51  0.949999988079071)
(X_52  1.0499999523162842)
(X_53  1.0499999523162842)
(X_54  1.0499999523162842)
(X_55  1.0499999523162842)
(X_56  0.949999988079071)
(X_57  0.949999988079071)
(X_58  0.949999988079071)
(X_59  0.949999988079071)
(X_60  1.0460784435272217)
(X_61  0.9382352828979492)
(X_62  0.9421568512916565)
(X_63  0.949999988079071)
(X_64  0.9303921461105347)
(X_65  0.9460784196853638)
(X_66  0.949999988079071)
(X_67  0.949999988079071)
(X_68  0.949999988079071)
(X_69  0.949999988079071)
(X_70  0.949999988079071)
(X_71  0.9343137145042419)
(X_72  0.9460784196853638)
(X_73  0.949999988079071)
(X_74  1.0499999523162842)
(X_75  1.0499999523162842)
(X_76  1.0499999523162842)
(X_77  1.0499999523162842)
(X_78  1.0421568155288696)
(X_79  1.0382353067398071)
(X_80  1.0499999523162842)
(X_81  1.0460784435272217)
(X_82  0.9460784196853638)
(X_83  1.0421568155288696)
(X_84  0.9049019813537598)
(X_85  0.9441176652908325)
(X_86  0.9950980544090271)
(X_87  1.0264705419540405)
(X_88  0.9343137145042419)
(X_89  0.9421568512916565)
(X_90  0.949999988079071)
(X_91  0.949999988079071)
(X_92  0.9382352828979492)
(X_93  0.9303921461105347)
(X_94  0.9186274409294128)
(X_95  0.906862735748291)
(X_96  1.0107842683792114)
(X_97  1.0303921699523926)
(X_98  1.0499999523162842)
(X_99  1.0499999523162842)
(X_100  1.0264705419540405)
(X_101  1.0382353067398071)
(X_102  1.0499999523162842)
(X_103  0.949999988079071)
(X_104  0.949999988079071)
(X_105  0.9382352828979492)
(X_106  0.9303921461105347)
(X_107  0.9303921461105347)
(X_108  0.9460784196853638)
(X_109  0.9421568512916565)
(X_110  0.9421568512916565)
(X_111  1.0421568155288696)
(X_112  0.22058825194835663)
(X_113  0.2911764681339264)
(X_114  0.4009803831577301)
(X_115  0.5147058963775635)
(X_116  0.6205882430076599)
(X_117  0.7225490212440491)
(X_118  0.8166666626930237)
(X_119  0.9754902124404907)
(X_120  0.9460784196853638)
(X_121  0.949999988079071)
(X_122  0.949999988079071)
(X_123  1.0499999523162842)
(X_124  1.0499999523162842)
(X_125  0.9460784196853638)
(X_126  0.9264705777168274)
(X_127  1.018627405166626)
(X_128  1.0499999523162842)
(X_129  1.0499999523162842)
(X_130  1.0499999523162842)
(X_131  1.0460784435272217)
(X_132  1.0421568155288696)
(X_133  1.0499999523162842)
(X_134  1.0499999523162842)
(X_135  1.0499999523162842)
(X_136  0.949999988079071)
(X_137  0.949999988079071)
(X_138  1.0499999523162842)
(X_139  1.0499999523162842)
(X_140  0.22254902124404907)
(X_141  0.2343137264251709)
(X_142  0.24607843160629272)
(X_143  0.2539215683937073)
(X_144  0.16960784792900085)
(X_145  0.20490197837352753)
(X_146  0.24411766231060028)
(X_147  0.3794117867946625)
(X_148  0.49705883860588074)
(X_149  0.5794118046760559)
(X_150  0.6088235378265381)
(X_151  0.7343137264251709)
(X_152  0.8323529362678528)
(X_153  0.9029411673545837)
(X_154  1.0499999523162842)
(X_155  0.949999988079071)
(X_156  0.8990195989608765)
(X_157  0.9186274409294128)
(X_158  0.9460784196853638)
(X_159  1.0499999523162842)
(X_160  1.0499999523162842)
(X_161  0.9421568512916565)
(X_162  0.9264705777168274)
(X_163  0.9225490093231201)
(X_164  0.949999988079071)
(X_165  0.949999988079071)
(X_166  0.949999988079071)
(X_167  1.0499999523162842)
(X_168  0.1872549057006836)
(X_169  0.1872549057006836)
(X_170  0.1872549057006836)
(X_171  0.1872549057006836)
(X_172  0.19901961088180542)
(X_173  0.21470588445663452)
(X_174  0.1303921639919281)
(X_175  0.14215686917304993)
(X_176  0.2656862735748291)
(X_177  0.2656862735748291)
(X_178  0.2656862735748291)
(X_179  0.18137255311012268)
(X_180  0.23235295712947845)
(X_181  0.32647058367729187)
(X_182  0.4362744987010956)
(X_183  0.5147058963775635)
(X_184  0.8147059082984924)
(X_185  0.8617647290229797)
(X_186  0.9284313917160034)
(X_187  0.9950980544090271)
(X_188  1.034313678741455)
(X_189  1.0499999523162842)
(X_190  0.949999988079071)
(X_191  1.0499999523162842)
(X_192  1.0264705419540405)
(X_193  0.9343137145042419)
(X_194  0.9460784196853638)
(X_195  0.949999988079071)
(X_196  0.07549020648002625)
(X_197  0.18333333730697632)
(X_198  0.2029411792755127)
(X_199  0.12254902720451355)
(X_200  0.13431373238563538)
(X_201  0.22647058963775635)
(X_202  0.20686274766921997)
(X_203  0.1872549057006836)
(X_204  0.0990196168422699)
(X_205  0.2186274528503418)
(X_206  0.2343137264251709)
(X_207  0.13431373238563538)
(X_208  0.12254902720451355)
(X_209  0.12254902720451355)
(X_210  0.13823530077934265)
(X_211  0.15784314274787903)
(X_212  0.2656862735748291)
(X_213  0.19705882668495178)
(X_214  0.25196078419685364)
(X_215  0.3382352888584137)
(X_216  0.551960825920105)
(X_217  0.6813725829124451)
(X_218  0.7990196347236633)
(X_219  0.8735294342041016)
(X_220  0.8872548937797546)
(X_221  0.8990195989608765)
(X_222  0.9225490093231201)
(X_223  1.0421568155288696)
(X_224  0.10294118523597717)
(X_225  0.0990196168422699)
(X_226  0.19901961088180542)
(X_227  0.19509804248809814)
(X_228  0.19509804248809814)
(X_229  0.19509804248809814)
(X_230  0.09509804844856262)
(X_231  0.0990196168422699)
(X_232  0.23039215803146362)
(X_233  0.20686274766921997)
(X_234  0.18333333730697632)
(X_235  0.08725491166114807)
(X_236  0.11078432202339172)
(X_237  0.12647059559822083)
(X_238  0.12254902720451355)
(X_239  0.10686275362968445)
(X_240  0.14215686917304993)
(X_241  0.14215686917304993)
(X_242  0.24215686321258545)
(X_243  0.2343137264251709)
(X_244  0.2343137264251709)
(X_245  0.2539215683937073)
(X_246  0.28921568393707275)
(X_247  0.21666668355464935)
(X_248  0.29509803652763367)
(X_249  0.3735294044017792)
(X_250  0.479411780834198)
(X_251  0.5578431487083435)
(X_252  0.10686275362968445)
(X_253  0.11078432202339172)
(X_254  0.114705890417099)
(X_255  0.11862745881080627)
(X_256  0.2186274528503418)
(X_257  0.21078431606292725)
(X_258  0.2029411792755127)
(X_259  0.19901961088180542)
(X_260  0.11862745881080627)
(X_261  0.10686275362968445)
(X_262  0.19901961088180542)
(X_263  0.20686274766921997)
(X_264  0.12647059559822083)
(X_265  0.13431373238563538)
(X_266  0.12254902720451355)
(X_267  0.11078432202339172)
(X_268  0.10294118523597717)
(X_269  0.21470588445663452)
(X_270  0.22647058963775635)
(X_271  0.23039215803146362)
(X_272  0.12647059559822083)
(X_273  0.22254902124404907)
(X_274  0.23039215803146362)
(X_275  0.13431373238563538)
(X_276  0.2029411792755127)
(X_277  0.2343137264251709)
(X_278  0.16568627953529358)
(X_279  0.17352941632270813)
(X_280  0.1872549057006836)
(X_281  0.19509804248809814)
(X_282  0.20686274766921997)
(X_283  0.114705890417099)
(X_284  0.114705890417099)
(X_285  0.21078431606292725)
(X_286  0.19901961088180542)
(X_287  0.19117647409439087)
(X_288  0.114705890417099)
(X_289  0.11078432202339172)
(X_290  0.2029411792755127)
(X_291  0.19509804248809814)
(X_292  0.1872549057006836)
(X_293  0.08725491166114807)
(X_294  0.08725491166114807)
(X_295  0.0833333432674408)
(X_296  0.19509804248809814)
(X_297  0.0990196168422699)
(X_298  0.19901961088180542)
(X_299  0.19509804248809814)
(X_300  0.19509804248809814)
(X_301  0.20686274766921997)
(X_302  0.22647058963775635)
(X_303  0.14215686917304993)
(X_304  0.1617647111415863)
(X_305  0.16568627953529358)
(X_306  0.1617647111415863)
(X_307  0.25)
(X_308  0.1872549057006836)
(X_309  0.09117648005485535)
(X_310  0.10294118523597717)
(X_311  0.11078432202339172)
(X_312  0.21470588445663452)
(X_313  0.21470588445663452)
(X_314  0.21470588445663452)
(X_315  0.11078432202339172)
(X_316  0.1872549057006836)
(X_317  0.19509804248809814)
(X_318  0.2029411792755127)
(X_319  0.2029411792755127)
(X_320  0.11078432202339172)
(X_321  0.13431373238563538)
(X_322  0.16568627953529358)
(X_323  0.18921568989753723)
(X_324  0.2774509787559509)
(X_325  0.17352941632270813)
(X_326  0.2617647051811218)
(X_327  0.24215686321258545)
(X_328  0.22254902124404907)
(X_329  0.20686274766921997)
(X_330  0.19509804248809814)
(X_331  0.19117647409439087)
(X_332  0.0833333432674408)
(X_333  0.09509804844856262)
(X_334  0.11078432202339172)
(X_335  0.11862745881080627)
(X_336  0.10686275362968445)
(X_337  0.2029411792755127)
(X_338  0.19901961088180542)
(X_339  0.19901961088180542)
(X_340  0.19901961088180542)
(X_341  0.20686274766921997)
(X_342  0.21470588445663452)
(X_343  0.11862745881080627)
(X_344  0.17549020051956177)
(X_345  0.10686275362968445)
(X_346  0.15784314274787903)
(X_347  0.19705882668495178)
(X_348  0.22843138873577118)
(X_349  0.26372548937797546)
(X_350  0.3068627417087555)
(X_351  0.43431374430656433)
(X_352  0.43431374430656433)
(X_353  0.43431374430656433)
(X_354  0.43431374430656433)
(X_355  0.41470590233802795)
(X_356  0.3715686500072479)
(X_357  0.3088235557079315)
(X_358  0.24215686321258545)
(X_359  0.10294118523597717)
(X_360  0.19901961088180542)
(X_361  0.20686274766921997)
(X_362  0.21470588445663452)
(X_363  0.22647058963775635)
(X_364  0.07549020648002625)
(X_365  0.0676470622420311)
(X_366  0.05980392172932625)
(X_367  0.05588235333561897)
(X_368  0.15980392694473267)
(X_369  0.16764706373214722)
(X_370  0.0833333432674408)
(X_371  0.09117648005485535)
(X_372  0.16960784792900085)
(X_373  0.20490197837352753)
(X_374  0.3480392396450043)
(X_375  0.27941176295280457)
(X_376  0.2872548997402191)
(X_377  0.2872548997402191)
(X_378  0.28333333134651184)
(X_379  0.2872548997402191)
(X_380  0.4421568810939789)
(X_381  0.43039217591285706)
(X_382  0.41470590233802795)
(X_383  0.40294119715690613)
(X_384  0.2911764681339264)
(X_385  0.27941176295280457)
(X_386  0.3598039448261261)
(X_387  0.3480392396450043)
(X_388  0.24607843160629272)
(X_389  0.22254902124404907)
(X_390  0.09509804844856262)
(X_391  0.0833333432674408)
(X_392  0.16764706373214722)
(X_393  0.1715686321258545)
(X_394  0.07549020648002625)
(X_395  0.09117648005485535)
(X_396  0.20686274766921997)
(X_397  0.23039215803146362)
(X_398  0.25)
(X_399  0.25784313678741455)
(X_400  0.26764705777168274)
(X_401  0.2754901945590973)
(X_402  0.3794117867946625)
(X_403  0.28333333134651184)
(X_404  0.2872548997402191)
(X_405  0.2911764681339264)
(X_406  0.3029411733150482)
(X_407  0.3068627417087555)
(X_408  0.43431374430656433)
(X_409  0.41470590233802795)
(X_410  0.3911764919757843)
(X_411  0.3794117867946625)
(X_412  0.38333335518836975)
(X_413  0.2911764681339264)
(X_414  0.29509803652763367)
(X_415  0.3950980603694916)
(X_416  0.344117671251297)
(X_417  0.2970588207244873)
(X_418  0.13823530077934265)
(X_419  0.10294118523597717)
(X_420  0.22254902124404907)
(X_421  0.13823530077934265)
(X_422  0.16960784792900085)
(X_423  0.20490197837352753)
(X_424  0.240196093916893)
(X_425  0.3754902184009552)
(X_426  0.39901962876319885)
(X_427  0.41470590233802795)
(X_428  0.3715686500072479)
(X_429  0.2598039209842682)
(X_430  0.24803923070430756)
(X_431  0.26764705777168274)
(X_432  0.3225490152835846)
(X_433  0.4009803831577301)
(X_434  0.4833333492279053)
(X_435  0.5343137383460999)
(X_436  0.6421568989753723)
(X_437  0.6460784673690796)
(X_438  0.6500000357627869)
(X_439  0.638235330581665)
(X_440  0.5911765098571777)
(X_441  0.5127450823783875)
(X_442  0.31470587849617004)
(X_443  0.25196078419685364)
(X_444  0.34607842564582825)
(X_445  0.2911764681339264)
(X_446  0.21666668355464935)
(X_447  0.16960784792900085)
(X_448  0.45000001788139343)
(X_449  0.31470587849617004)
(X_450  0.3225490152835846)
(X_451  0.32647058367729187)
(X_452  0.28333333134651184)
(X_453  0.3598039448261261)
(X_454  0.3794117867946625)
(X_455  0.38333335518836975)
(X_456  0.33235296607017517)
(X_457  0.3284313976764679)
(X_458  0.3754902184009552)
(X_459  0.3696078360080719)
(X_460  0.44019606709480286)
(X_461  0.42843136191368103)
(X_462  0.3539215624332428)
(X_463  0.2872548997402191)
(X_464  0.2911764681339264)
(X_465  0.28333333134651184)
(X_466  0.27941176295280457)
(X_467  0.3911764919757843)
(X_468  0.4264706075191498)
(X_469  0.4892157018184662)
(X_470  0.5558823943138123)
(X_471  0.5990196466445923)
(X_472  0.40294119715690613)
(X_473  0.3637255132198334)
(X_474  0.35196080803871155)
(X_475  0.3754902184009552)
(X_476  0.31078431010246277)
(X_477  0.29509803652763367)
(X_478  0.38333335518836975)
(X_479  0.3911764919757843)
(X_480  0.28333333134651184)
(X_481  0.23627452552318573)
(X_482  0.18921568989753723)
(X_483  0.2774509787559509)
(X_484  0.2813725471496582)
(X_485  0.4107843339443207)
(X_486  0.40882351994514465)
(X_487  0.3813725411891937)
(X_488  0.2872548997402191)
(X_489  0.22843138873577118)
(X_490  0.2245098203420639)
(X_491  0.23235295712947845)
(X_492  0.1303921639919281)
(X_493  0.1774509847164154)
(X_494  0.3088235557079315)
(X_495  0.29313725233078003)
(X_496  0.2617647051811218)
(X_497  0.27352941036224365)
(X_498  0.35196080803871155)
(X_499  0.32647058367729187)
(X_500  0.551960825920105)
(X_501  0.3813725411891937)
(X_502  0.2911764681339264)
(X_503  0.23627452552318573)
(X_504  0.3225490152835846)
(X_505  0.31078431010246277)
(X_506  0.240196093916893)
(X_507  0.22843138873577118)
(X_508  0.2872548997402191)
(X_509  0.3715686500072479)
(X_510  0.33235296607017517)
(X_511  0.3637255132198334)
(X_512  0.2872548997402191)
(X_513  0.47745099663734436)
(X_514  0.49313727021217346)
(X_515  0.3911764919757843)
(X_516  0.18137255311012268)
(X_517  0.15392157435417175)
(X_518  0.15000000596046448)
(X_519  0.1303921639919281)
(X_520  0.12647059559822083)
(X_521  0.13431373238563538)
(X_522  0.14215686917304993)
(X_523  0.14215686917304993)
(X_524  0.13823530077934265)
(X_525  0.24607843160629272)
(X_526  0.2656862735748291)
(X_527  0.2852941155433655)
(X_528  0.38333335518836975)
(X_529  0.34215685725212097)
(X_530  0.3539215624332428)
(X_531  0.29509803652763367)
(X_532  0.5009803771972656)
(X_533  0.5088235139846802)
(X_534  0.39901962876319885)
(X_535  0.33627453446388245)
(X_536  0.3911764919757843)
(X_537  0.2598039209842682)
(X_538  0.20098040997982025)
(X_539  0.2558823525905609)
(X_540  0.385294109582901)
(X_541  0.43431374430656433)
(X_542  0.33627453446388245)
(X_543  0.24607843160629272)
(X_544  0.12254902720451355)
(X_545  0.14215686917304993)
(X_546  0.1303921639919281)
(X_547  0.09117648005485535)
(X_548  0.19901961088180542)
(X_549  0.08725491166114807)
(X_550  0.0833333432674408)
(X_551  0.09509804844856262)
(X_552  0.2186274528503418)
(X_553  0.23039215803146362)
(X_554  0.23039215803146362)
(X_555  0.11862745881080627)
(X_556  0.23823529481887817)
(X_557  0.2558823525905609)
(X_558  0.46568629145622253)
(X_559  0.49705883860588074)
(X_560  0.4225490391254425)
(X_561  0.4009803831577301)
(X_562  0.3696078360080719)
(X_563  0.3382352888584137)
(X_564  0.3892156779766083)
(X_565  0.34607842564582825)
(X_566  0.27941176295280457)
(X_567  0.33039215207099915)
(X_568  0.29901960492134094)
(X_569  0.3088235557079315)
(X_570  0.22254902124404907)
(X_571  0.18333333730697632)
(X_572  0.06372549384832382)
(X_573  0.05588235333561897)
(X_574  0.07941177487373352)
(X_575  0.114705890417099)
(X_576  0.03235294297337532)
(X_577  0.07156863063573837)
(X_578  0.10294118523597717)
(X_579  0.09509804844856262)
(X_580  0.06372549384832382)
(X_581  0.05980392172932625)
(X_582  0.19901961088180542)
(X_583  0.24215686321258545)
(X_584  0.2774509787559509)
(X_585  0.1617647111415863)
(X_586  0.29313725233078003)
(X_587  0.3754902184009552)
(X_588  0.2539215683937073)
(X_589  0.3480392396450043)
(X_590  0.27156862616539)
(X_591  0.27156862616539)
(X_592  0.3225490152835846)
(X_593  0.3382352888584137)
(X_594  0.3499999940395355)
(X_595  0.5166666507720947)
(X_596  0.30098041892051697)
(X_597  0.21470588445663452)
(X_598  0.1715686321258545)
(X_599  0.1872549057006836)
(X_600  0.08725491166114807)
(X_601  0.04803921654820442)
(X_602  0.04803921654820442)
(X_603  0.09117648005485535)
(X_604  0.16764706373214722)
(X_605  0.17549020051956177)
(X_606  0.18333333730697632)
(X_607  0.17941176891326904)
(X_608  0.1715686321258545)
(X_609  0.07156863063573837)
(X_610  0.19117647409439087)
(X_611  0.20686274766921997)
(X_612  0.11078432202339172)
(X_613  0.0676470622420311)
(X_614  0.17549020051956177)
(X_615  0.2343137264251709)
(X_616  0.2186274528503418)
(X_617  0.25)
(X_618  0.15000000596046448)
(X_619  0.11078432202339172)
(X_620  0.09509804844856262)
(X_621  0.12647059559822083)
(X_622  0.18529412150382996)
(X_623  0.3284313976764679)
(X_624  0.2656862735748291)
(X_625  0.20686274766921997)
(X_626  0.1715686321258545)
(X_627  0.19901961088180542)
(X_628  0.12647059559822083)
(X_629  0.10686275362968445)
(X_630  0.07549020648002625)
(X_631  0.05588235333561897)
(X_632  0.17549020051956177)
(X_633  0.04803921654820442)
(X_634  0.02450980618596077)
(X_635  0.036274511367082596)
(X_636  0.0676470622420311)
(X_637  0.17549020051956177)
(X_638  0.15196079015731812)
(X_639  0.020588237792253494)
(X_640  0.04411764815449715)
(X_641  0.07156863063573837)
(X_642  0.20686274766921997)
(X_643  0.2186274528503418)
(X_644  0.11862745881080627)
(X_645  0.13823530077934265)
(X_646  0.2656862735748291)
(X_647  0.24215686321258545)
(X_648  0.19509804248809814)
(X_649  0.114705890417099)
(X_650  0.2539215683937073)
(X_651  0.24215686321258545)
(X_652  0.2186274528503418)
(X_653  0.23039215803146362)
(X_654  0.22647058963775635)
(X_655  0.10294118523597717)
(X_656  0.09117648005485535)
(X_657  0.09509804844856262)
(X_658  0.09509804844856262)
(X_659  0.0833333432674408)
(X_660  0.15980392694473267)
(X_661  0.1872549057006836)
(X_662  0.20686274766921997)
(X_663  0.2029411792755127)
(X_664  0.07941177487373352)
(X_665  0.16372549533843994)
(X_666  0.16764706373214722)
(X_667  0.07941177487373352)
(X_668  0.07941177487373352)
(X_669  0.0833333432674408)
(X_670  0.15980392694473267)
(X_671  0.028431374579668045)
(X_672  0.1872549057006836)
(X_673  0.08725491166114807)
(X_674  0.08725491166114807)
(X_675  0.08725491166114807)
(X_676  0.08725491166114807)
(X_677  0.18333333730697632)
(X_678  0.18333333730697632)
(X_679  0.18333333730697632)
(X_680  0.16764706373214722)
(X_681  0.1715686321258545)
(X_682  0.17941176891326904)
(X_683  0.0833333432674408)
(X_684  0.18333333730697632)
(X_685  0.0833333432674408)
(X_686  0.07941177487373352)
(X_687  0.07549020648002625)
(X_688  0.16372549533843994)
(X_689  0.07941177487373352)
(X_690  0.10294118523597717)
(X_691  0.114705890417099)
(X_692  0.11078432202339172)
(X_693  0.0990196168422699)
(X_694  0.09117648005485535)
(X_695  0.0833333432674408)
(X_696  0.16764706373214722)
(X_697  0.1715686321258545)
(X_698  0.17549020051956177)
(X_699  0.17549020051956177)
(X_700  0.15980392694473267)
(X_701  0.05980392172932625)
(X_702  0.05980392172932625)
(X_703  0.15980392694473267)
(X_704  0.15980392694473267)
(X_705  0.15980392694473267)
(X_706  0.05980392172932625)
(X_707  0.05980392172932625)
(X_708  0.05588235333561897)
(X_709  0.05980392172932625)
(X_710  0.06372549384832382)
(X_711  0.0676470622420311)
(X_712  0.1715686321258545)
(X_713  0.0676470622420311)
(X_714  0.0676470622420311)
(X_715  0.06372549384832382)
(X_716  0.15196079015731812)
(X_717  0.16764706373214722)
(X_718  0.08725491166114807)
(X_719  0.09509804844856262)
(X_720  0.09117648005485535)
(X_721  0.0833333432674408)
(X_722  0.07941177487373352)
(X_723  0.17941176891326904)
(X_724  0.17941176891326904)
(X_725  0.1872549057006836)
(X_726  0.19901961088180542)
(X_727  0.21078431606292725)
(X_728  0.1401960849761963)
(X_729  0.04019607976078987)
(X_730  0.1401960849761963)
(X_731  0.1401960849761963)
(X_732  0.1401960849761963)
(X_733  0.1401960849761963)
(X_734  0.1401960849761963)
(X_735  0.1401960849761963)
(X_736  0.1401960849761963)
(X_737  0.14411765336990356)
(X_738  0.04803921654820442)
(X_739  0.0519607849419117)
(X_740  0.0519607849419117)
(X_741  0.0519607849419117)
(X_742  0.0519607849419117)
(X_743  0.04803921654820442)
(X_744  0.04019607976078987)
(X_745  0.0519607849419117)
(X_746  0.16764706373214722)
(X_747  0.07156863063573837)
(X_748  0.0676470622420311)
(X_749  0.06372549384832382)
(X_750  0.0676470622420311)
(X_751  0.0676470622420311)
(X_752  0.16372549533843994)
(X_753  0.17549020051956177)
(X_754  0.1872549057006836)
(X_755  0.20686274766921997)
(X_756  0.1401960849761963)
(X_757  0.1401960849761963)
(X_758  0.04411764815449715)
(X_759  0.04411764815449715)
(X_760  0.04411764815449715)
(X_761  0.04803921654820442)
(X_762  0.04803921654820442)
(X_763  0.04803921654820442)
(X_764  0.03235294297337532)
(X_765  0.036274511367082596)
(X_766  0.036274511367082596)
(X_767  0.04019607976078987)
(X_768  0.04019607976078987)
(X_769  0.04411764815449715)
(X_770  0.04411764815449715)
(X_771  0.04411764815449715)
(X_772  0.036274511367082596)
(X_773  0.04411764815449715)
(X_774  0.0519607849419117)
(X_775  0.05588235333561897)
(X_776  0.15196079015731812)
(X_777  0.15196079015731812)
(X_778  0.05980392172932625)
(X_779  0.0676470622420311)
(X_780  0.0519607849419117)
(X_781  0.05980392172932625)
(X_782  0.0676470622420311)
(X_783  0.17941176891326904)
(Y_0 -25.405879974365234)
(Y_1 25.884384155273438)
(Y_2 -19.56665802001953)
(Y_3 23.13676643371582))