((X_0  0.9833333492279053)
(X_1  0.863725483417511)
(X_2  0.8323529362678528)
(X_3  0.9009804129600525)
(X_4  0.8774510025978088)
(X_5  0.7578431367874146)
(X_6  0.7382352948188782)
(X_7  0.7264705896377563)
(X_8  0.6990196108818054)
(X_9  0.6833333373069763)
(X_10  0.6558823585510254)
(X_11  0.6205882430076599)
(X_12  0.593137264251709)
(X_13  0.665686309337616)
(X_14  0.6539216041564941)
(X_15  0.6460784673690796)
(X_16  0.4950980544090271)
(X_17  0.48725491762161255)
(X_18  0.47156864404678345)
(X_19  0.4480392038822174)
(X_20  0.42843136191368103)
(X_21  0.5088235139846802)
(X_22  0.39313724637031555)
(X_23  0.385294109582901)
(X_24  0.4852941334247589)
(X_25  0.3735294044017792)
(X_26  0.3539215624332428)
(X_27  0.4382353127002716)
(X_28  0.3284313976764679)
(X_29  0.21274511516094208)
(X_30  0.18921568989753723)
(X_31  0.16960784792900085)
(X_32  0.15392157435417175)
(X_33  0.13431373238563538)
(X_34  0.114705890417099)
(X_35  0.2029411792755127)
(X_36  0.09117648005485535)
(X_37  0.08725491166114807)
(X_38  0.0833333432674408)
(X_39  0.07941177487373352)
(X_40  0.07156863063573837)
(X_41  0.16764706373214722)
(X_42  0.16372549533843994)
(X_43  0.15980392694473267)
(X_44  0.16372549533843994)
(X_45  0.15980392694473267)
(X_46  0.15196079015731812)
(X_47  0.0519607849419117)
(X_48  0.0519607849419117)
(X_49  0.05980392172932625)
(X_50  0.0676470622420311)
(X_51  0.07549020648002625)
(X_52  0.17941176891326904)
(X_53  0.07549020648002625)
(X_54  0.06372549384832382)
(X_55  0.15980392694473267)
(X_56  0.1558823585510254)
(X_57  0.0519607849419117)
(X_58  0.04803921654820442)
(X_59  0.0519607849419117)
(X_60  0.05588235333561897)
(X_61  0.05588235333561897)
(X_62  0.04803921654820442)
(X_63  0.04019607976078987)
(X_64  0.0676470622420311)
(X_65  0.0676470622420311)
(X_66  0.0676470622420311)
(X_67  0.0676470622420311)
(X_68  0.0676470622420311)
(X_69  0.06372549384832382)
(X_70  0.05588235333561897)
(X_71  0.05588235333561897)
(X_72  0.0833333432674408)
(X_73  0.0833333432674408)
(X_74  0.07549020648002625)
(X_75  0.0676470622420311)
(X_76  0.15980392694473267)
(X_77  0.15196079015731812)
(X_78  0.14411765336990356)
(X_79  0.1401960849761963)
(X_80  0.15980392694473267)
(X_81  0.15980392694473267)
(X_82  0.05588235333561897)
(X_83  0.1558823585510254)
(X_84  0.14411765336990356)
(X_85  0.14411765336990356)
(X_86  0.14803922176361084)
(X_87  0.15980392694473267)
(X_88  0.1715686321258545)
(X_89  0.07549020648002625)
(X_90  0.07156863063573837)
(X_91  0.06372549384832382)
(X_92  0.17549020051956177)
(X_93  0.07156863063573837)
(X_94  0.0676470622420311)
(X_95  0.05980392172932625)
(X_96  0.1558823585510254)
(X_97  0.15196079015731812)
(X_98  0.15196079015731812)
(X_99  0.15196079015731812)
(X_100  0.136274516582489)
(X_101  0.14411765336990356)
(X_102  0.1558823585510254)
(X_103  0.16372549533843994)
(X_104  0.16372549533843994)
(X_105  0.05588235333561897)
(X_106  0.04411764815449715)
(X_107  0.036274511367082596)
(X_108  0.0519607849419117)
(X_109  0.0519607849419117)
(X_110  0.0519607849419117)
(X_111  0.15196079015731812)
(X_112  0.05588235333561897)
(X_113  0.0519607849419117)
(X_114  0.14803922176361084)
(X_115  0.15196079015731812)
(X_116  0.15196079015731812)
(X_117  0.04411764815449715)
(X_118  0.03235294297337532)
(X_119  0.020588237792253494)
(X_120  0.14803922176361084)
(X_121  0.04411764815449715)
(X_122  0.04019607976078987)
(X_123  0.04019607976078987)
(X_124  0.14411765336990356)
(X_125  0.05588235333561897)
(X_126  0.07156863063573837)
(X_127  0.07941177487373352)
(X_128  0.17549020051956177)
(X_129  0.1715686321258545)
(X_130  0.16372549533843994)
(X_131  0.1558823585510254)
(X_132  0.15196079015731812)
(X_133  0.1558823585510254)
(X_134  0.06372549384832382)
(X_135  0.16764706373214722)
(X_136  0.1558823585510254)
(X_137  0.05980392172932625)
(X_138  0.06372549384832382)
(X_139  0.16372549533843994)
(X_140  0.14803922176361084)
(X_141  0.14411765336990356)
(X_142  0.14411765336990356)
(X_143  0.15196079015731812)
(X_144  0.15980392694473267)
(X_145  0.06372549384832382)
(X_146  0.05588235333561897)
(X_147  0.15196079015731812)
(X_148  0.16764706373214722)
(X_149  0.15980392694473267)
(X_150  0.15196079015731812)
(X_151  0.14411765336990356)
(X_152  0.1401960849761963)
(X_153  0.14411765336990356)
(X_154  0.15196079015731812)
(X_155  0.05588235333561897)
(X_156  0.07156863063573837)
(X_157  0.05588235333561897)
(X_158  0.136274516582489)
(X_159  0.12843137979507446)
(X_160  0.14411765336990356)
(X_161  0.0833333432674408)
(X_162  0.12647059559822083)
(X_163  0.2539215683937073)
(X_164  0.23627452552318573)
(X_165  0.240196093916893)
(X_166  0.24411766231060028)
(X_167  0.3480392396450043)
(X_168  0.16960784792900085)
(X_169  0.16568627953529358)
(X_170  0.2656862735748291)
(X_171  0.27352941036224365)
(X_172  0.28921568393707275)
(X_173  0.30098041892051697)
(X_174  0.20098040997982025)
(X_175  0.20098040997982025)
(X_176  0.25784313678741455)
(X_177  0.2539215683937073)
(X_178  0.24215686321258545)
(X_179  0.22647058963775635)
(X_180  0.2029411792755127)
(X_181  0.17549020051956177)
(X_182  0.1558823585510254)
(X_183  0.14411765336990356)
(X_184  0.12843137979507446)
(X_185  0.1401960849761963)
(X_186  0.16764706373214722)
(X_187  0.21078431606292725)
(X_188  0.2696078419685364)
(X_189  0.23235295712947845)
(X_190  0.2872548997402191)
(X_191  0.4225490391254425)
(X_192  0.39901962876319885)
(X_193  0.3950980603694916)
(X_194  0.29509803652763367)
(X_195  0.29509803652763367)
(X_196  0.2911764681339264)
(X_197  0.3754902184009552)
(X_198  0.3598039448261261)
(X_199  0.35196080803871155)
(X_200  0.3480392396450043)
(X_201  0.344117671251297)
(X_202  0.3401961028575897)
(X_203  0.33627453446388245)
(X_204  0.2558823525905609)
(X_205  0.2558823525905609)
(X_206  0.2558823525905609)
(X_207  0.3401961028575897)
(X_208  0.21274511516094208)
(X_209  0.17352941632270813)
(X_210  0.13823530077934265)
(X_211  0.114705890417099)
(X_212  0.24607843160629272)
(X_213  0.2696078419685364)
(X_214  0.21274511516094208)
(X_215  0.25196078419685364)
(X_216  0.27156862616539)
(X_217  0.27156862616539)
(X_218  0.3598039448261261)
(X_219  0.3480392396450043)
(X_220  0.3754902184009552)
(X_221  0.3715686500072479)
(X_222  0.26372548937797546)
(X_223  0.3558823764324188)
(X_224  0.1931372582912445)
(X_225  0.22058825194835663)
(X_226  0.240196093916893)
(X_227  0.23235295712947845)
(X_228  0.22058825194835663)
(X_229  0.21274511516094208)
(X_230  0.19705882668495178)
(X_231  0.18137255311012268)
(X_232  0.1931372582912445)
(X_233  0.22058825194835663)
(X_234  0.23627452552318573)
(X_235  0.23235295712947845)
(X_236  0.23235295712947845)
(X_237  0.24803923070430756)
(X_238  0.2598039209842682)
(X_239  0.2598039209842682)
(X_240  0.21274511516094208)
(X_241  0.23235295712947845)
(X_242  0.35196080803871155)
(X_243  0.3558823764324188)
(X_244  0.3598039448261261)
(X_245  0.38333335518836975)
(X_246  0.4225490391254425)
(X_247  0.4539215862751007)
(X_248  0.2754901945590973)
(X_249  0.2872548997402191)
(X_250  0.27941176295280457)
(X_251  0.3558823764324188)
(X_252  0.21666668355464935)
(X_253  0.27156862616539)
(X_254  0.31078431010246277)
(X_255  0.387254923582077)
(X_256  0.3401961028575897)
(X_257  0.3284313976764679)
(X_258  0.344117671251297)
(X_259  0.2598039209842682)
(X_260  0.27156862616539)
(X_261  0.3343137204647064)
(X_262  0.4205882251262665)
(X_263  0.4911764860153198)
(X_264  0.522549033164978)
(X_265  0.5872549414634705)
(X_266  0.4892157018184662)
(X_267  0.29901960492134094)
(X_268  0.4892157018184662)
(X_269  0.48137256503105164)
(X_270  0.5049019455909729)
(X_271  0.5558823943138123)
(X_272  0.4950980544090271)
(X_273  0.6068627834320068)
(X_274  0.6068627834320068)
(X_275  0.5147058963775635)
(X_276  0.5676470994949341)
(X_277  0.5833333730697632)
(X_278  0.479411780834198)
(X_279  0.4598039388656616)
(X_280  0.5127450823783875)
(X_281  0.5558823943138123)
(X_282  0.48725491762161255)
(X_283  0.4754902124404907)
(X_284  0.45588237047195435)
(X_285  0.5598039627075195)
(X_286  0.5833333730697632)
(X_287  0.5990196466445923)
(X_288  0.5107843279838562)
(X_289  0.4754902124404907)
(X_290  0.40882351994514465)
(X_291  0.3578431308269501)
(X_292  0.3656862676143646)
(X_293  0.4362744987010956)
(X_294  0.5186274647712708)
(X_295  0.5617647171020508)
(X_296  0.6068627834320068)
(X_297  0.4323529303073883)
(X_298  0.5009803771972656)
(X_299  0.5441176295280457)
(X_300  0.5715686678886414)
(X_301  0.5323529243469238)
(X_302  0.47745099663734436)
(X_303  0.3578431308269501)
(X_304  0.3068627417087555)
(X_305  0.32647058367729187)
(X_306  0.33039215207099915)
(X_307  0.31470587849617004)
(X_308  0.4225490391254425)
(X_309  0.4068627655506134)
(X_310  0.2911764681339264)
(X_311  0.2872548997402191)
(X_312  0.3186274468898773)
(X_313  0.34607842564582825)
(X_314  0.3343137204647064)
(X_315  0.3029411733150482)
(X_316  0.240196093916893)
(X_317  0.40294119715690613)
(X_318  0.4421568810939789)
(X_319  0.41862747073173523)
(X_320  0.3911764919757843)
(X_321  0.3186274468898773)
(X_322  0.4009803831577301)
(X_323  0.46764707565307617)
(X_324  0.479411780834198)
(X_325  0.3656862676143646)
(X_326  0.29901960492134094)
(X_327  0.3382352888584137)
(X_328  0.46176472306251526)
(X_329  0.41862747073173523)
(X_330  0.3715686500072479)
(X_331  0.3715686500072479)
(X_332  0.3558823764324188)
(X_333  0.3754902184009552)
(X_334  0.2872548997402191)
(X_335  0.27941176295280457)
(X_336  0.36764708161354065)
(X_337  0.3401961028575897)
(X_338  0.30490198731422424)
(X_339  0.2852941155433655)
(X_340  0.2970588207244873)
(X_341  0.3127451241016388)
(X_342  0.28921568393707275)
(X_343  0.15000000596046448)
(X_344  0.13431373238563538)
(X_345  0.2813725471496582)
(X_346  0.20490197837352753)
(X_347  0.1774509847164154)
(X_348  0.16568627953529358)
(X_349  0.23235295712947845)
(X_350  0.3539215624332428)
(X_351  0.5441176295280457)
(X_352  0.5245097875595093)
(X_353  0.4264706075191498)
(X_354  0.36764708161354065)
(X_355  0.29509803652763367)
(X_356  0.3950980603694916)
(X_357  0.33627453446388245)
(X_358  0.30098041892051697)
(X_359  0.31666669249534607)
(X_360  0.1774509847164154)
(X_361  0.20490197837352753)
(X_362  0.21666668355464935)
(X_363  0.2088235467672348)
(X_364  0.17352941632270813)
(X_365  0.1931372582912445)
(X_366  0.29313725233078003)
(X_367  0.2656862735748291)
(X_368  0.24607843160629272)
(X_369  0.25)
(X_370  0.16568627953529358)
(X_371  0.17352941632270813)
(X_372  0.15000000596046448)
(X_373  0.17352941632270813)
(X_374  0.1931372582912445)
(X_375  0.20098040997982025)
(X_376  0.22058825194835663)
(X_377  0.24411766231060028)
(X_378  0.25196078419685364)
(X_379  0.24411766231060028)
(X_380  0.27941176295280457)
(X_381  0.22843138873577118)
(X_382  0.20490197837352753)
(X_383  0.22058825194835663)
(X_384  0.19705882668495178)
(X_385  0.1303921639919281)
(X_386  0.1872549057006836)
(X_387  0.1872549057006836)
(X_388  0.22647058963775635)
(X_389  0.25)
(X_390  0.2656862735748291)
(X_391  0.25784313678741455)
(X_392  0.19509804248809814)
(X_393  0.23039215803146362)
(X_394  0.15000000596046448)
(X_395  0.2343137264251709)
(X_396  0.22254902124404907)
(X_397  0.23823529481887817)
(X_398  0.16960784792900085)
(X_399  0.18921568989753723)
(X_400  0.29313725233078003)
(X_401  0.28921568393707275)
(X_402  0.2696078419685364)
(X_403  0.25784313678741455)
(X_404  0.2656862735748291)
(X_405  0.27352941036224365)
(X_406  0.1460784375667572)
(X_407  0.10686275362968445)
(X_408  0.10294118523597717)
(X_409  0.09509804844856262)
(X_410  0.2029411792755127)
(X_411  0.22647058963775635)
(X_412  0.2343137264251709)
(X_413  0.2186274528503418)
(X_414  0.20686274766921997)
(X_415  0.20686274766921997)
(X_416  0.07549020648002625)
(X_417  0.0990196168422699)
(X_418  0.11078432202339172)
(X_419  0.10294118523597717)
(X_420  0.09117648005485535)
(X_421  0.09117648005485535)
(X_422  0.07941177487373352)
(X_423  0.07156863063573837)
(X_424  0.08725491166114807)
(X_425  0.114705890417099)
(X_426  0.21078431606292725)
(X_427  0.19117647409439087)
(X_428  0.19117647409439087)
(X_429  0.11862745881080627)
(X_430  0.13823530077934265)
(X_431  0.12647059559822083)
(X_432  0.11078432202339172)
(X_433  0.19901961088180542)
(X_434  0.08725491166114807)
(X_435  0.0676470622420311)
(X_436  0.11078432202339172)
(X_437  0.19509804248809814)
(X_438  0.17549020051956177)
(X_439  0.15980392694473267)
(X_440  0.1558823585510254)
(X_441  0.15980392694473267)
(X_442  0.05980392172932625)
(X_443  0.0519607849419117)
(X_444  0.05980392172932625)
(X_445  0.07941177487373352)
(X_446  0.09117648005485535)
(X_447  0.18333333730697632)
(X_448  0.1558823585510254)
(X_449  0.1558823585510254)
(X_450  0.15196079015731812)
(X_451  0.15196079015731812)
(X_452  0.05588235333561897)
(X_453  0.06372549384832382)
(X_454  0.1715686321258545)
(X_455  0.17549020051956177)
(X_456  0.15980392694473267)
(X_457  0.16372549533843994)
(X_458  0.1715686321258545)
(X_459  0.17941176891326904)
(X_460  0.17941176891326904)
(X_461  0.1715686321258545)
(X_462  0.16372549533843994)
(X_463  0.05980392172932625)
(X_464  0.05980392172932625)
(X_465  0.05980392172932625)
(X_466  0.1558823585510254)
(X_467  0.1558823585510254)
(X_468  0.15196079015731812)
(X_469  0.14803922176361084)
(X_470  0.14803922176361084)
(X_471  0.14803922176361084)
(X_472  0.15196079015731812)
(X_473  0.15196079015731812)
(X_474  0.15196079015731812)
(X_475  0.15196079015731812)
(X_476  0.04803921654820442)
(X_477  0.04411764815449715)
(X_478  0.14411765336990356)
(X_479  0.14411765336990356)
(X_480  0.04803921654820442)
(X_481  0.0519607849419117)
(X_482  0.05980392172932625)
(X_483  0.06372549384832382)
(X_484  0.14803922176361084)
(X_485  0.1558823585510254)
(X_486  0.15980392694473267)
(X_487  0.0676470622420311)
(X_488  0.0676470622420311)
(X_489  0.05980392172932625)
(X_490  0.05588235333561897)
(X_491  0.04803921654820442)
(X_492  0.04803921654820442)
(X_493  0.04803921654820442)
(X_494  0.04803921654820442)
(X_495  0.14411765336990356)
(X_496  0.14411765336990356)
(X_497  0.14411765336990356)
(X_498  0.14411765336990356)
(X_499  0.14411765336990356)
(X_500  0.14411765336990356)
(X_501  0.04411764815449715)
(X_502  0.04411764815449715)
(X_503  0.14411765336990356)
(X_504  0.13235294818878174)
(X_505  0.03235294297337532)
(X_506  0.03235294297337532)
(X_507  0.03235294297337532)
(X_508  0.036274511367082596)
(X_509  0.04019607976078987)
(X_510  0.04411764815449715)
(X_511  0.14803922176361084)
(X_512  0.036274511367082596)
(X_513  0.04019607976078987)
(X_514  0.04803921654820442)
(X_515  0.0519607849419117)
(X_516  0.0519607849419117)
(X_517  0.04803921654820442)
(X_518  0.04019607976078987)
(X_519  0.036274511367082596)
(X_520  0.03235294297337532)
(X_521  0.03235294297337532)
(X_522  0.03235294297337532)
(X_523  0.036274511367082596)
(X_524  0.036274511367082596)
(X_525  0.036274511367082596)
(X_526  0.036274511367082596)
(X_527  0.136274516582489)
(X_528  0.036274511367082596)
(X_529  0.036274511367082596)
(X_530  0.036274511367082596)
(X_531  0.136274516582489)
(X_532  0.12450980395078659)
(X_533  0.12450980395078659)
(X_534  0.12450980395078659)
(X_535  0.12843137979507446)
(X_536  0.028431374579668045)
(X_537  0.03235294297337532)
(X_538  0.03235294297337532)
(X_539  0.036274511367082596)
(X_540  0.028431374579668045)
(X_541  0.13235294818878174)
(X_542  0.136274516582489)
(X_543  0.1401960849761963)
(X_544  0.1401960849761963)
(X_545  0.136274516582489)
(X_546  0.13235294818878174)
(X_547  0.028431374579668045)
(X_548  0.12450980395078659)
(X_549  0.12450980395078659)
(X_550  0.02450980618596077)
(X_551  0.12843137979507446)
(X_552  0.13235294818878174)
(X_553  0.13235294818878174)
(X_554  0.136274516582489)
(X_555  0.036274511367082596)
(X_556  0.12843137979507446)
(X_557  0.028431374579668045)
(X_558  0.028431374579668045)
(X_559  0.12843137979507446)
(X_560  0.12058823555707932)
(X_561  0.02450980618596077)
(X_562  0.12450980395078659)
(X_563  0.12843137979507446)
(X_564  0.12843137979507446)
(X_565  0.028431374579668045)
(X_566  0.028431374579668045)
(X_567  0.028431374579668045)
(X_568  0.028431374579668045)
(X_569  0.12843137979507446)
(X_570  0.13235294818878174)
(X_571  0.03235294297337532)
(X_572  0.03235294297337532)
(X_573  0.03235294297337532)
(X_574  0.028431374579668045)
(X_575  0.028431374579668045)
(X_576  0.020588237792253494)
(X_577  0.020588237792253494)
(X_578  0.02450980618596077)
(X_579  0.12450980395078659)
(X_580  0.12843137979507446)
(X_581  0.13235294818878174)
(X_582  0.13235294818878174)
(X_583  0.13235294818878174)
(X_584  0.12843137979507446)
(X_585  0.028431374579668045)
(X_586  0.028431374579668045)
(X_587  0.028431374579668045)
(X_588  0.12058823555707932)
(X_589  0.020588237792253494)
(X_590  0.02450980618596077)
(X_591  0.028431374579668045)
(X_592  0.028431374579668045)
(X_593  0.02450980618596077)
(X_594  0.12450980395078659)
(X_595  0.12058823555707932)
(X_596  0.12450980395078659)
(X_597  0.12450980395078659)
(X_598  0.02450980618596077)
(X_599  0.02450980618596077)
(X_600  0.02450980618596077)
(X_601  0.02450980618596077)
(X_602  0.02450980618596077)
(X_603  0.02450980618596077)
(X_604  0.020588237792253494)
(X_605  0.12058823555707932)
(X_606  0.12058823555707932)
(X_607  0.12058823555707932)
(X_608  0.12058823555707932)
(X_609  0.12450980395078659)
(X_610  0.12450980395078659)
(X_611  0.02450980618596077)
(X_612  0.020588237792253494)
(X_613  0.020588237792253494)
(X_614  0.12058823555707932)
(X_615  0.12058823555707932)
(X_616  0.11274509876966476)
(X_617  0.11666666716337204)
(X_618  0.020588237792253494)
(X_619  0.02450980618596077)
(X_620  0.02450980618596077)
(X_621  0.12058823555707932)
(X_622  0.11666666716337204)
(X_623  0.11274509876966476)
(X_624  0.12058823555707932)
(X_625  0.12058823555707932)
(X_626  0.11666666716337204)
(X_627  0.01666666939854622)
(X_628  0.01666666939854622)
(X_629  0.01666666939854622)
(X_630  0.12058823555707932)
(X_631  0.12058823555707932)
(X_632  0.11274509876966476)
(X_633  0.012745101936161518)
(X_634  0.012745101936161518)
(X_635  0.11274509876966476)
(X_636  0.11274509876966476)
(X_637  0.10882353037595749)
(X_638  0.10882353037595749)
(X_639  0.008823529817163944)
(X_640  0.012745101936161518)
(X_641  0.012745101936161518)
(X_642  0.11274509876966476)
(X_643  0.11274509876966476)
(X_644  0.10882353037595749)
(X_645  0.012745101936161518)
(X_646  0.01666666939854622)
(X_647  0.12058823555707932)
(X_648  0.11666666716337204)
(X_649  0.012745101936161518)
(X_650  0.008823529817163944)
(X_651  0.004901961423456669)
(X_652  0.01666666939854622)
(X_653  0.012745101936161518)
(X_654  0.012745101936161518)
(X_655  0.008823529817163944)
(X_656  0.008823529817163944)
(X_657  0.012745101936161518)
(X_658  0.012745101936161518)
(X_659  0.01666666939854622)
(X_660  0.10882353037595749)
(X_661  0.10882353037595749)
(X_662  0.10882353037595749)
(X_663  0.10490196198225021)
(X_664  0.0009803927969187498)
(X_665  0.0009803927969187498)
(X_666  -0.0029411755967885256)
(X_667  -0.0029411755967885256)
(X_668  0.004901961423456669)
(X_669  0.004901961423456669)
(X_670  0.004901961423456669)
(X_671  0.004901961423456669)
(X_672  0.10490196198225021)
(X_673  0.004901961423456669)
(X_674  0.004901961423456669)
(X_675  0.004901961423456669)
(X_676  0.004901961423456669)
(X_677  0.10490196198225021)
(X_678  0.10490196198225021)
(X_679  0.10490196198225021)
(X_680  0.008823529817163944)
(X_681  0.008823529817163944)
(X_682  0.10882353037595749)
(X_683  0.10490196198225021)
(X_684  0.10490196198225021)
(X_685  0.10098039358854294)
(X_686  0.0009803927969187498)
(X_687  0.0009803927969187498)
(X_688  0.10490196198225021)
(X_689  0.10490196198225021)
(X_690  0.10490196198225021)
(X_691  0.10490196198225021)
(X_692  0.10490196198225021)
(X_693  0.10490196198225021)
(X_694  0.004901961423456669)
(X_695  0.004901961423456669)
(X_696  0.10098039358854294)
(X_697  0.10098039358854294)
(X_698  0.10098039358854294)
(X_699  0.09705882519483566)
(X_700  0.10490196198225021)
(X_701  0.004901961423456669)
(X_702  0.004901961423456669)
(X_703  0.004901961423456669)
(X_704  0.004901961423456669)
(X_705  0.004901961423456669)
(X_706  0.004901961423456669)
(X_707  0.004901961423456669)
(X_708  0.008823529817163944)
(X_709  0.008823529817163944)
(X_710  0.004901961423456669)
(X_711  0.10490196198225021)
(X_712  0.10490196198225021)
(X_713  0.0009803927969187498)
(X_714  0.0009803927969187498)
(X_715  0.0009803927969187498)
(X_716  0.10490196198225021)
(X_717  0.10490196198225021)
(X_718  0.004901961423456669)
(X_719  0.004901961423456669)
(X_720  0.10490196198225021)
(X_721  0.10490196198225021)
(X_722  0.10490196198225021)
(X_723  0.10490196198225021)
(X_724  0.10098039358854294)
(X_725  0.10098039358854294)
(X_726  0.10098039358854294)
(X_727  0.09705882519483566)
(X_728  0.10490196198225021)
(X_729  0.004901961423456669)
(X_730  0.004901961423456669)
(X_731  0.10490196198225021)
(X_732  0.10490196198225021)
(X_733  0.10490196198225021)
(X_734  0.10490196198225021)
(X_735  0.10490196198225021)
(X_736  0.10882353037595749)
(X_737  0.10490196198225021)
(X_738  0.004901961423456669)
(X_739  0.004901961423456669)
(X_740  0.10098039358854294)
(X_741  0.10098039358854294)
(X_742  0.10098039358854294)
(X_743  0.10098039358854294)
(X_744  0.10490196198225021)
(X_745  0.10490196198225021)
(X_746  0.10490196198225021)
(X_747  0.004901961423456669)
(X_748  0.10490196198225021)
(X_749  0.10490196198225021)
(X_750  0.004901961423456669)
(X_751  0.10490196198225021)
(X_752  0.10098039358854294)
(X_753  0.10098039358854294)
(X_754  0.09705882519483566)
(X_755  0.09705882519483566)
(X_756  0.10098039358854294)
(X_757  0.0009803927969187498)
(X_758  0.0009803927969187498)
(X_759  0.10098039358854294)
(X_760  0.0009803927969187498)
(X_761  0.0009803927969187498)
(X_762  0.0009803927969187498)
(X_763  0.0009803927969187498)
(X_764  0.004901961423456669)
(X_765  0.004901961423456669)
(X_766  0.004901961423456669)
(X_767  0.0009803927969187498)
(X_768  0.0009803927969187498)
(X_769  0.0009803927969187498)
(X_770  -0.0029411755967885256)
(X_771  -0.0029411755967885256)
(X_772  0.0009803927969187498)
(X_773  0.0009803927969187498)
(X_774  0.0009803927969187498)
(X_775  0.0009803927969187498)
(X_776  0.0009803927969187498)
(X_777  0.0009803927969187498)
(X_778  0.0009803927969187498)
(X_779  0.0009803927969187498)
(X_780  -0.0029411755967885256)
(X_781  -0.0029411755967885256)
(X_782  -0.0029411755967885256)
(X_783  -0.0029411755967885256)
(Y_0 -35.66791534423828)
(Y_1 52.43202209472656)
(Y_2 -29.00990104675293)
(Y_3 12.978019714355469))