((X_0  1.0460784435272217)
(X_1  0.9460784196853638)
(X_2  0.9460784196853638)
(X_3  0.949999988079071)
(X_4  0.949999988079071)
(X_5  0.949999988079071)
(X_6  0.949999988079071)
(X_7  0.949999988079071)
(X_8  1.0499999523162842)
(X_9  1.0499999523162842)
(X_10  1.0499999523162842)
(X_11  1.0460784435272217)
(X_12  1.0499999523162842)
(X_13  1.0499999523162842)
(X_14  1.0499999523162842)
(X_15  1.0499999523162842)
(X_16  0.949999988079071)
(X_17  0.949999988079071)
(X_18  0.949999988079071)
(X_19  0.949999988079071)
(X_20  1.0499999523162842)
(X_21  1.0499999523162842)
(X_22  1.0499999523162842)
(X_23  1.0499999523162842)
(X_24  1.0499999523162842)
(X_25  1.0499999523162842)
(X_26  0.949999988079071)
(X_27  0.9382352828979492)
(X_28  1.0499999523162842)
(X_29  1.0421568155288696)
(X_30  0.9264705777168274)
(X_31  0.9147058725357056)
(X_32  0.906862735748291)
(X_33  0.8911764621734619)
(X_34  0.8715686202049255)
(X_35  0.9558823704719543)
(X_36  0.9441176652908325)
(X_37  0.8323529362678528)
(X_38  0.8127450942993164)
(X_39  0.7970588207244873)
(X_40  0.7774509787559509)
(X_41  0.8578431606292725)
(X_42  0.8343137502670288)
(X_43  0.8147059082984924)
(X_44  0.7872549295425415)
(X_45  0.7715686559677124)
(X_46  0.6480392217636108)
(X_47  0.6127451062202454)
(X_48  0.5774509906768799)
(X_49  0.550000011920929)
(X_50  0.5264706015586853)
(X_51  0.5147058963775635)
(X_52  0.5284313559532166)
(X_53  0.520588219165802)
(X_54  0.40882351994514465)
(X_55  0.5009803771972656)
(X_56  0.4068627655506134)
(X_57  0.29509803652763367)
(X_58  0.2754901945590973)
(X_59  0.2598039209842682)
(X_60  0.24411766231060028)
(X_61  0.2245098203420639)
(X_62  0.20098040997982025)
(X_63  0.18529412150382996)
(X_64  0.15000000596046448)
(X_65  0.14215686917304993)
(X_66  0.13823530077934265)
(X_67  0.2343137264251709)
(X_68  0.22647058963775635)
(X_69  0.11078432202339172)
(X_70  0.09117648005485535)
(X_71  0.07549020648002625)
(X_72  0.05980392172932625)
(X_73  0.05588235333561897)
(X_74  0.0519607849419117)
(X_75  0.04803921654820442)
(X_76  0.14411765336990356)
(X_77  0.14803922176361084)
(X_78  0.15196079015731812)
(X_79  0.1558823585510254)
(X_80  0.14803922176361084)
(X_81  0.14803922176361084)
(X_82  0.14411765336990356)
(X_83  0.14411765336990356)
(X_84  0.14803922176361084)
(X_85  0.1401960849761963)
(X_86  0.03235294297337532)
(X_87  0.13235294818878174)
(X_88  0.03235294297337532)
(X_89  0.02450980618596077)
(X_90  0.012745101936161518)
(X_91  0.004901961423456669)
(X_92  0.01666666939854622)
(X_93  0.01666666939854622)
(X_94  0.020588237792253494)
(X_95  0.036274511367082596)
(X_96  0.14803922176361084)
(X_97  0.1558823585510254)
(X_98  0.15196079015731812)
(X_99  0.14411765336990356)
(X_100  0.13235294818878174)
(X_101  0.12843137979507446)
(X_102  0.02450980618596077)
(X_103  0.020588237792253494)
(X_104  0.020588237792253494)
(X_105  0.028431374579668045)
(X_106  0.036274511367082596)
(X_107  0.04019607976078987)
(X_108  0.020588237792253494)
(X_109  0.02450980618596077)
(X_110  0.036274511367082596)
(X_111  0.14411765336990356)
(X_112  0.136274516582489)
(X_113  0.13235294818878174)
(X_114  0.03235294297337532)
(X_115  0.04019607976078987)
(X_116  0.0519607849419117)
(X_117  0.05588235333561897)
(X_118  0.0519607849419117)
(X_119  0.04411764815449715)
(X_120  0.03235294297337532)
(X_121  0.028431374579668045)
(X_122  0.02450980618596077)
(X_123  0.028431374579668045)
(X_124  0.1401960849761963)
(X_125  0.14411765336990356)
(X_126  0.04019607976078987)
(X_127  0.036274511367082596)
(X_128  0.1715686321258545)
(X_129  0.16764706373214722)
(X_130  0.16372549533843994)
(X_131  0.15980392694473267)
(X_132  0.1558823585510254)
(X_133  0.15980392694473267)
(X_134  0.05980392172932625)
(X_135  0.06372549384832382)
(X_136  0.1401960849761963)
(X_137  0.04803921654820442)
(X_138  0.15980392694473267)
(X_139  0.1715686321258545)
(X_140  0.13235294818878174)
(X_141  0.12843137979507446)
(X_142  0.12843137979507446)
(X_143  0.13235294818878174)
(X_144  0.036274511367082596)
(X_145  0.036274511367082596)
(X_146  0.028431374579668045)
(X_147  0.11666666716337204)
(X_148  0.15196079015731812)
(X_149  0.14803922176361084)
(X_150  0.04803921654820442)
(X_151  0.05588235333561897)
(X_152  0.16372549533843994)
(X_153  0.16764706373214722)
(X_154  0.15980392694473267)
(X_155  0.0519607849419117)
(X_156  0.020588237792253494)
(X_157  0.02450980618596077)
(X_158  0.13235294818878174)
(X_159  0.14411765336990356)
(X_160  0.15196079015731812)
(X_161  0.05980392172932625)
(X_162  0.16764706373214722)
(X_163  0.1715686321258545)
(X_164  0.136274516582489)
(X_165  0.04019607976078987)
(X_166  0.14803922176361084)
(X_167  0.15196079015731812)
(X_168  0.05980392172932625)
(X_169  0.1558823585510254)
(X_170  0.0519607849419117)
(X_171  0.15196079015731812)
(X_172  0.1558823585510254)
(X_173  0.1558823585510254)
(X_174  0.04411764815449715)
(X_175  0.036274511367082596)
(X_176  0.09313725680112839)
(X_177  0.10882353037595749)
(X_178  0.03235294297337532)
(X_179  0.16372549533843994)
(X_180  0.1872549057006836)
(X_181  0.19117647409439087)
(X_182  0.18333333730697632)
(X_183  0.07156863063573837)
(X_184  0.20686274766921997)
(X_185  0.2029411792755127)
(X_186  0.19509804248809814)
(X_187  0.18333333730697632)
(X_188  0.16764706373214722)
(X_189  0.04411764815449715)
(X_190  0.02450980618596077)
(X_191  0.11274509876966476)
(X_192  0.15196079015731812)
(X_193  0.15196079015731812)
(X_194  0.0519607849419117)
(X_195  0.15196079015731812)
(X_196  0.02450980618596077)
(X_197  0.12450980395078659)
(X_198  0.02450980618596077)
(X_199  0.03235294297337532)
(X_200  0.04411764815449715)
(X_201  0.14803922176361084)
(X_202  0.14411765336990356)
(X_203  0.1401960849761963)
(X_204  0.07941177487373352)
(X_205  0.10294118523597717)
(X_206  0.1460784375667572)
(X_207  0.28921568393707275)
(X_208  0.21666668355464935)
(X_209  0.22058825194835663)
(X_210  0.20098040997982025)
(X_211  0.18137255311012268)
(X_212  0.2813725471496582)
(X_213  0.2813725471496582)
(X_214  0.2774509787559509)
(X_215  0.2656862735748291)
(X_216  0.1460784375667572)
(X_217  0.12254902720451355)
(X_218  0.19509804248809814)
(X_219  0.17941176891326904)
(X_220  0.1401960849761963)
(X_221  0.04019607976078987)
(X_222  0.04019607976078987)
(X_223  0.1401960849761963)
(X_224  0.020588237792253494)
(X_225  0.0519607849419117)
(X_226  0.07156863063573837)
(X_227  0.15196079015731812)
(X_228  0.012745101936161518)
(X_229  0.012745101936161518)
(X_230  0.05980392172932625)
(X_231  0.114705890417099)
(X_232  0.28921568393707275)
(X_233  0.3127451241016388)
(X_234  0.344117671251297)
(X_235  0.2558823525905609)
(X_236  0.25196078419685364)
(X_237  0.23627452552318573)
(X_238  0.3284313976764679)
(X_239  0.2245098203420639)
(X_240  0.22058825194835663)
(X_241  0.22254902124404907)
(X_242  0.15196079015731812)
(X_243  0.18333333730697632)
(X_244  0.2617647051811218)
(X_245  0.32058826088905334)
(X_246  0.33627453446388245)
(X_247  0.240196093916893)
(X_248  0.14215686917304993)
(X_249  0.09117648005485535)
(X_250  0.03235294297337532)
(X_251  0.10490196198225021)
(X_252  0.028431374579668045)
(X_253  0.028431374579668045)
(X_254  0.028431374579668045)
(X_255  0.12843137979507446)
(X_256  0.14803922176361084)
(X_257  0.19509804248809814)
(X_258  0.2617647051811218)
(X_259  0.21274511516094208)
(X_260  0.24411766231060028)
(X_261  0.25196078419685364)
(X_262  0.2598039209842682)
(X_263  0.2598039209842682)
(X_264  0.35196080803871155)
(X_265  0.3480392396450043)
(X_266  0.3558823764324188)
(X_267  0.3637255132198334)
(X_268  0.21274511516094208)
(X_269  0.2656862735748291)
(X_270  0.24607843160629272)
(X_271  0.2813725471496582)
(X_272  0.240196093916893)
(X_273  0.3754902184009552)
(X_274  0.2911764681339264)
(X_275  0.29901960492134094)
(X_276  0.3029411733150482)
(X_277  0.26764705777168274)
(X_278  0.22058825194835663)
(X_279  0.17352941632270813)
(X_280  0.13235294818878174)
(X_281  0.13235294818878174)
(X_282  0.04803921654820442)
(X_283  0.0833333432674408)
(X_284  0.13823530077934265)
(X_285  0.28921568393707275)
(X_286  0.3245098292827606)
(X_287  0.344117671251297)
(X_288  0.2245098203420639)
(X_289  0.23235295712947845)
(X_290  0.240196093916893)
(X_291  0.240196093916893)
(X_292  0.23627452552318573)
(X_293  0.23627452552318573)
(X_294  0.24411766231060028)
(X_295  0.24803923070430756)
(X_296  0.32058826088905334)
(X_297  0.20490197837352753)
(X_298  0.19705882668495178)
(X_299  0.3088235557079315)
(X_300  0.32058826088905334)
(X_301  0.3245098292827606)
(X_302  0.3401961028575897)
(X_303  0.2558823525905609)
(X_304  0.3029411733150482)
(X_305  0.31078431010246277)
(X_306  0.3225490152835846)
(X_307  0.3225490152835846)
(X_308  0.15196079015731812)
(X_309  0.09509804844856262)
(X_310  0.15392157435417175)
(X_311  0.20490197837352753)
(X_312  0.22843138873577118)
(X_313  0.22843138873577118)
(X_314  0.21274511516094208)
(X_315  0.20098040997982025)
(X_316  0.2245098203420639)
(X_317  0.3401961028575897)
(X_318  0.26372548937797546)
(X_319  0.3794117867946625)
(X_320  0.28333333134651184)
(X_321  0.27156862616539)
(X_322  0.2598039209842682)
(X_323  0.24803923070430756)
(X_324  0.2558823525905609)
(X_325  0.23627452552318573)
(X_326  0.2088235467672348)
(X_327  0.2813725471496582)
(X_328  0.25784313678741455)
(X_329  0.2539215683937073)
(X_330  0.2656862735748291)
(X_331  0.2852941155433655)
(X_332  0.24411766231060028)
(X_333  0.2558823525905609)
(X_334  0.27156862616539)
(X_335  0.27941176295280457)
(X_336  0.12254902720451355)
(X_337  0.2774509787559509)
(X_338  0.33627453446388245)
(X_339  0.3558823764324188)
(X_340  0.3401961028575897)
(X_341  0.32058826088905334)
(X_342  0.22843138873577118)
(X_343  0.24411766231060028)
(X_344  0.44607844948768616)
(X_345  0.45000001788139343)
(X_346  0.46176472306251526)
(X_347  0.3656862676143646)
(X_348  0.3656862676143646)
(X_349  0.3539215624332428)
(X_350  0.3382352888584137)
(X_351  0.32647058367729187)
(X_352  0.4107843339443207)
(X_353  0.387254923582077)
(X_354  0.35196080803871155)
(X_355  0.3127451241016388)
(X_356  0.2852941155433655)
(X_357  0.27352941036224365)
(X_358  0.2656862735748291)
(X_359  0.25784313678741455)
(X_360  0.2696078419685364)
(X_361  0.16568627953529358)
(X_362  0.16568627953529358)
(X_363  0.16960784792900085)
(X_364  0.21274511516094208)
(X_365  0.22843138873577118)
(X_366  0.23235295712947845)
(X_367  0.31666669249534607)
(X_368  0.3088235557079315)
(X_369  0.3401961028575897)
(X_370  0.31078431010246277)
(X_371  0.3735294044017792)
(X_372  0.4480392038822174)
(X_373  0.42450979351997375)
(X_374  0.3892156779766083)
(X_375  0.46568629145622253)
(X_376  0.3539215624332428)
(X_377  0.3539215624332428)
(X_378  0.3539215624332428)
(X_379  0.3539215624332428)
(X_380  0.3499999940395355)
(X_381  0.3382352888584137)
(X_382  0.4068627655506134)
(X_383  0.36764708161354065)
(X_384  0.23235295712947845)
(X_385  0.20098040997982025)
(X_386  0.15392157435417175)
(X_387  0.21078431606292725)
(X_388  0.1872549057006836)
(X_389  0.1872549057006836)
(X_390  0.09509804844856262)
(X_391  0.21470588445663452)
(X_392  0.3598039448261261)
(X_393  0.33235296607017517)
(X_394  0.20098040997982025)
(X_395  0.30490198731422424)
(X_396  0.35196080803871155)
(X_397  0.41862747073173523)
(X_398  0.48137256503105164)
(X_399  0.520588219165802)
(X_400  0.5127450823783875)
(X_401  0.47745099663734436)
(X_402  0.43431374430656433)
(X_403  0.3029411733150482)
(X_404  0.2911764681339264)
(X_405  0.29509803652763367)
(X_406  0.29901960492134094)
(X_407  0.3029411733150482)
(X_408  0.34215685725212097)
(X_409  0.34607842564582825)
(X_410  0.4264706075191498)
(X_411  0.387254923582077)
(X_412  0.3558823764324188)
(X_413  0.33627453446388245)
(X_414  0.30098041892051697)
(X_415  0.2656862735748291)
(X_416  0.18529412150382996)
(X_417  0.20098040997982025)
(X_418  0.22058825194835663)
(X_419  0.22843138873577118)
(X_420  0.26372548937797546)
(X_421  0.21666668355464935)
(X_422  0.19705882668495178)
(X_423  0.24411766231060028)
(X_424  0.3343137204647064)
(X_425  0.3970588147640228)
(X_426  0.49705883860588074)
(X_427  0.4696078598499298)
(X_428  0.34215685725212097)
(X_429  0.3225490152835846)
(X_430  0.29509803652763367)
(X_431  0.27941176295280457)
(X_432  0.3754902184009552)
(X_433  0.3754902184009552)
(X_434  0.3715686500072479)
(X_435  0.26372548937797546)
(X_436  0.4068627655506134)
(X_437  0.4264706075191498)
(X_438  0.4225490391254425)
(X_439  0.3950980603694916)
(X_440  0.387254923582077)
(X_441  0.4107843339443207)
(X_442  0.3343137204647064)
(X_443  0.3382352888584137)
(X_444  0.3656862676143646)
(X_445  0.40882351994514465)
(X_446  0.4598039388656616)
(X_447  0.5794118046760559)
(X_448  0.29313725233078003)
(X_449  0.2813725471496582)
(X_450  0.32058826088905334)
(X_451  0.4068627655506134)
(X_452  0.36176469922065735)
(X_453  0.3499999940395355)
(X_454  0.41862747073173523)
(X_455  0.4068627655506134)
(X_456  0.21666668355464935)
(X_457  0.31666669249534607)
(X_458  0.33235296607017517)
(X_459  0.21274511516094208)
(X_460  0.27352941036224365)
(X_461  0.30098041892051697)
(X_462  0.33235296607017517)
(X_463  0.3088235557079315)
(X_464  0.21274511516094208)
(X_465  0.2558823525905609)
(X_466  0.2872548997402191)
(X_467  0.3754902184009552)
(X_468  0.3558823764324188)
(X_469  0.3637255132198334)
(X_470  0.387254923582077)
(X_471  0.40294119715690613)
(X_472  0.4421568810939789)
(X_473  0.457843154668808)
(X_474  0.49313727021217346)
(X_475  0.5245097875595093)
(X_476  0.18921568989753723)
(X_477  0.20098040997982025)
(X_478  0.24803923070430756)
(X_479  0.4107843339443207)
(X_480  0.3186274468898773)
(X_481  0.27156862616539)
(X_482  0.22843138873577118)
(X_483  0.22058825194835663)
(X_484  0.2617647051811218)
(X_485  0.25784313678741455)
(X_486  0.2696078419685364)
(X_487  0.15784314274787903)
(X_488  0.1303921639919281)
(X_489  0.15784314274787903)
(X_490  0.18529412150382996)
(X_491  0.15784314274787903)
(X_492  0.15784314274787903)
(X_493  0.1931372582912445)
(X_494  0.2088235467672348)
(X_495  0.2970588207244873)
(X_496  0.2852941155433655)
(X_497  0.30098041892051697)
(X_498  0.3284313976764679)
(X_499  0.240196093916893)
(X_500  0.25196078419685364)
(X_501  0.2558823525905609)
(X_502  0.27941176295280457)
(X_503  0.3029411733150482)
(X_504  0.27156862616539)
(X_505  0.3754902184009552)
(X_506  0.3950980603694916)
(X_507  0.40294119715690613)
(X_508  0.24803923070430756)
(X_509  0.16568627953529358)
(X_510  0.12647059559822083)
(X_511  0.2343137264251709)
(X_512  0.11078432202339172)
(X_513  0.09117648005485535)
(X_514  0.0990196168422699)
(X_515  0.0990196168422699)
(X_516  0.0833333432674408)
(X_517  0.11078432202339172)
(X_518  0.13431373238563538)
(X_519  0.10294118523597717)
(X_520  0.09509804844856262)
(X_521  0.114705890417099)
(X_522  0.12254902720451355)
(X_523  0.11862745881080627)
(X_524  0.12647059559822083)
(X_525  0.15784314274787903)
(X_526  0.2852941155433655)
(X_527  0.29313725233078003)
(X_528  0.23235295712947845)
(X_529  0.2245098203420639)
(X_530  0.240196093916893)
(X_531  0.26764705777168274)
(X_532  0.40294119715690613)
(X_533  0.3794117867946625)
(X_534  0.3598039448261261)
(X_535  0.33627453446388245)
(X_536  0.27352941036224365)
(X_537  0.10294118523597717)
(X_538  0.09117648005485535)
(X_539  0.12254902720451355)
(X_540  0.09117648005485535)
(X_541  0.15980392694473267)
(X_542  0.16372549533843994)
(X_543  0.1715686321258545)
(X_544  0.15980392694473267)
(X_545  0.0833333432674408)
(X_546  0.09509804844856262)
(X_547  0.05980392172932625)
(X_548  0.1558823585510254)
(X_549  0.1715686321258545)
(X_550  0.0833333432674408)
(X_551  0.09117648005485535)
(X_552  0.2186274528503418)
(X_553  0.2539215683937073)
(X_554  0.27352941036224365)
(X_555  0.16960784792900085)
(X_556  0.24607843160629272)
(X_557  0.13431373238563538)
(X_558  0.24215686321258545)
(X_559  0.2813725471496582)
(X_560  0.21666668355464935)
(X_561  0.18137255311012268)
(X_562  0.15784314274787903)
(X_563  0.15392157435417175)
(X_564  0.1303921639919281)
(X_565  0.09509804844856262)
(X_566  0.0990196168422699)
(X_567  0.12647059559822083)
(X_568  0.08725491166114807)
(X_569  0.04803921654820442)
(X_570  0.15196079015731812)
(X_571  0.06372549384832382)
(X_572  0.04803921654820442)
(X_573  0.05588235333561897)
(X_574  0.16372549533843994)
(X_575  0.03235294297337532)
(X_576  0.04411764815449715)
(X_577  0.05980392172932625)
(X_578  0.07549020648002625)
(X_579  0.1872549057006836)
(X_580  0.21078431606292725)
(X_581  0.13823530077934265)
(X_582  0.2343137264251709)
(X_583  0.21470588445663452)
(X_584  0.0519607849419117)
(X_585  0.04019607976078987)
(X_586  0.0519607849419117)
(X_587  0.08725491166114807)
(X_588  0.2539215683937073)
(X_589  0.11862745881080627)
(X_590  0.11078432202339172)
(X_591  0.1303921639919281)
(X_592  0.12647059559822083)
(X_593  0.09117648005485535)
(X_594  0.16372549533843994)
(X_595  0.16764706373214722)
(X_596  0.1715686321258545)
(X_597  0.03235294297337532)
(X_598  0.04019607976078987)
(X_599  0.05588235333561897)
(X_600  0.03235294297337532)
(X_601  0.028431374579668045)
(X_602  0.136274516582489)
(X_603  0.01666666939854622)
(X_604  0.136274516582489)
(X_605  0.1558823585510254)
(X_606  0.16764706373214722)
(X_607  0.16764706373214722)
(X_608  0.17549020051956177)
(X_609  0.18333333730697632)
(X_610  0.0676470622420311)
(X_611  0.04411764815449715)
(X_612  0.04803921654820442)
(X_613  0.04019607976078987)
(X_614  0.14803922176361084)
(X_615  0.1715686321258545)
(X_616  0.22647058963775635)
(X_617  0.19509804248809814)
(X_618  0.09117648005485535)
(X_619  0.10686275362968445)
(X_620  0.0990196168422699)
(X_621  0.1558823585510254)
(X_622  0.12843137979507446)
(X_623  0.12843137979507446)
(X_624  0.14803922176361084)
(X_625  0.11666666716337204)
(X_626  0.13235294818878174)
(X_627  0.15196079015731812)
(X_628  0.020588237792253494)
(X_629  0.008823529817163944)
(X_630  0.02450980618596077)
(X_631  0.11666666716337204)
(X_632  0.12450980395078659)
(X_633  0.14411765336990356)
(X_634  0.0519607849419117)
(X_635  0.04411764815449715)
(X_636  0.1401960849761963)
(X_637  0.1401960849761963)
(X_638  0.13235294818878174)
(X_639  0.11666666716337204)
(X_640  0.12843137979507446)
(X_641  0.12450980395078659)
(X_642  0.13235294818878174)
(X_643  0.14803922176361084)
(X_644  0.16764706373214722)
(X_645  0.04019607976078987)
(X_646  0.13235294818878174)
(X_647  0.14803922176361084)
(X_648  0.14411765336990356)
(X_649  0.020588237792253494)
(X_650  0.12843137979507446)
(X_651  0.1558823585510254)
(X_652  0.03235294297337532)
(X_653  0.004901961423456669)
(X_654  0.03235294297337532)
(X_655  0.05588235333561897)
(X_656  0.020588237792253494)
(X_657  0.0009803927969187498)
(X_658  0.02450980618596077)
(X_659  0.028431374579668045)
(X_660  0.11666666716337204)
(X_661  0.136274516582489)
(X_662  0.14411765336990356)
(X_663  0.12843137979507446)
(X_664  0.02450980618596077)
(X_665  0.03235294297337532)
(X_666  0.04019607976078987)
(X_667  0.03235294297337532)
(X_668  0.03235294297337532)
(X_669  0.03235294297337532)
(X_670  0.04803921654820442)
(X_671  0.05980392172932625)
(X_672  0.11666666716337204)
(X_673  0.020588237792253494)
(X_674  0.02450980618596077)
(X_675  0.02450980618596077)
(X_676  0.12450980395078659)
(X_677  0.12450980395078659)
(X_678  0.12058823555707932)
(X_679  0.11666666716337204)
(X_680  0.01666666939854622)
(X_681  0.11666666716337204)
(X_682  0.11666666716337204)
(X_683  0.11274509876966476)
(X_684  0.11274509876966476)
(X_685  0.012745101936161518)
(X_686  0.008823529817163944)
(X_687  0.008823529817163944)
(X_688  0.11274509876966476)
(X_689  0.11274509876966476)
(X_690  0.11274509876966476)
(X_691  0.11274509876966476)
(X_692  0.11274509876966476)
(X_693  0.11274509876966476)
(X_694  0.012745101936161518)
(X_695  0.012745101936161518)
(X_696  0.12058823555707932)
(X_697  0.12450980395078659)
(X_698  0.12450980395078659)
(X_699  0.12450980395078659)
(X_700  0.10882353037595749)
(X_701  0.012745101936161518)
(X_702  0.012745101936161518)
(X_703  0.11666666716337204)
(X_704  0.01666666939854622)
(X_705  0.012745101936161518)
(X_706  0.012745101936161518)
(X_707  0.008823529817163944)
(X_708  0.008823529817163944)
(X_709  0.008823529817163944)
(X_710  0.008823529817163944)
(X_711  0.10490196198225021)
(X_712  0.10490196198225021)
(X_713  0.10490196198225021)
(X_714  0.0009803927969187498)
(X_715  0.0009803927969187498)
(X_716  0.004901961423456669)
(X_717  0.004901961423456669)
(X_718  0.004901961423456669)
(X_719  0.004901961423456669)
(X_720  0.004901961423456669)
(X_721  0.004901961423456669)
(X_722  0.004901961423456669)
(X_723  0.004901961423456669)
(X_724  0.10882353037595749)
(X_725  0.10882353037595749)
(X_726  0.11274509876966476)
(X_727  0.11274509876966476)
(X_728  0.10098039358854294)
(X_729  0.0009803927969187498)
(X_730  0.10490196198225021)
(X_731  0.10490196198225021)
(X_732  0.10490196198225021)
(X_733  0.10490196198225021)
(X_734  0.10098039358854294)
(X_735  0.10098039358854294)
(X_736  0.0009803927969187498)
(X_737  0.0009803927969187498)
(X_738  -0.0029411755967885256)
(X_739  -0.0029411755967885256)
(X_740  -0.0029411755967885256)
(X_741  0.09313725680112839)
(X_742  -0.006862743757665157)
(X_743  0.09313725680112839)
(X_744  -0.0029411755967885256)
(X_745  -0.0029411755967885256)
(X_746  -0.0029411755967885256)
(X_747  -0.0029411755967885256)
(X_748  0.09705882519483566)
(X_749  0.09705882519483566)
(X_750  -0.0029411755967885256)
(X_751  -0.0029411755967885256)
(X_752  0.09705882519483566)
(X_753  0.09705882519483566)
(X_754  0.09705882519483566)
(X_755  0.09705882519483566)
(X_756  0.09705882519483566)
(X_757  -0.0029411755967885256)
(X_758  0.0009803927969187498)
(X_759  0.0009803927969187498)
(X_760  0.0009803927969187498)
(X_761  0.10098039358854294)
(X_762  0.09705882519483566)
(X_763  0.09705882519483566)
(X_764  0.09705882519483566)
(X_765  0.09705882519483566)
(X_766  0.09705882519483566)
(X_767  -0.0029411755967885256)
(X_768  0.09313725680112839)
(X_769  -0.006862743757665157)
(X_770  -0.010784312151372433)
(X_771  -0.010784312151372433)
(X_772  -0.006862743757665157)
(X_773  -0.006862743757665157)
(X_774  -0.006862743757665157)
(X_775  -0.006862743757665157)
(X_776  -0.006862743757665157)
(X_777  -0.006862743757665157)
(X_778  -0.006862743757665157)
(X_779  -0.006862743757665157)
(X_780  -0.010784312151372433)
(X_781  -0.010784312151372433)
(X_782  -0.010784312151372433)
(X_783  -0.010784312151372433)
(Y_0 -15.874323844909668)
(Y_1 22.98276138305664)
(Y_2 -12.099366188049316)
(Y_3 5.749385356903076))