((X_0  0.5127450823783875)
(X_1  0.4166666567325592)
(X_2  0.42450979351997375)
(X_3  0.5362744927406311)
(X_4  0.4480392038822174)
(X_5  0.4598039388656616)
(X_6  0.5676470994949341)
(X_7  0.5754902362823486)
(X_8  0.6107843518257141)
(X_9  0.6186274886131287)
(X_10  0.5264706015586853)
(X_11  0.638235330581665)
(X_12  0.6578431725502014)
(X_13  0.6735294461250305)
(X_14  0.5892156958580017)
(X_15  0.5970588326454163)
(X_16  0.5970588326454163)
(X_17  0.6049019694328308)
(X_18  0.6166666746139526)
(X_19  0.6323529481887817)
(X_20  0.6441176533699036)
(X_21  0.6558823585510254)
(X_22  0.7598039507865906)
(X_23  0.7637255191802979)
(X_24  0.6911764740943909)
(X_25  0.6872549057006836)
(X_26  0.6872549057006836)
(X_27  0.7872549295425415)
(X_28  0.02450980618596077)
(X_29  0.02450980618596077)
(X_30  0.02450980618596077)
(X_31  0.12450980395078659)
(X_32  0.12450980395078659)
(X_33  0.028431374579668045)
(X_34  0.12843137979507446)
(X_35  0.12843137979507446)
(X_36  0.012745101936161518)
(X_37  0.012745101936161518)
(X_38  0.012745101936161518)
(X_39  0.11666666716337204)
(X_40  0.12058823555707932)
(X_41  0.12843137979507446)
(X_42  0.13235294818878174)
(X_43  0.136274516582489)
(X_44  0.136274516582489)
(X_45  0.1401960849761963)
(X_46  0.04803921654820442)
(X_47  0.1558823585510254)
(X_48  0.16372549533843994)
(X_49  0.1715686321258545)
(X_50  0.1715686321258545)
(X_51  0.1715686321258545)
(X_52  0.16764706373214722)
(X_53  0.16764706373214722)
(X_54  0.16764706373214722)
(X_55  0.16372549533843994)
(X_56  0.13235294818878174)
(X_57  0.12843137979507446)
(X_58  0.02450980618596077)
(X_59  0.12058823555707932)
(X_60  0.01666666939854622)
(X_61  0.012745101936161518)
(X_62  0.008823529817163944)
(X_63  0.008823529817163944)
(X_64  0.036274511367082596)
(X_65  0.13235294818878174)
(X_66  0.12843137979507446)
(X_67  0.12450980395078659)
(X_68  0.12450980395078659)
(X_69  0.12450980395078659)
(X_70  0.12450980395078659)
(X_71  0.12450980395078659)
(X_72  0.020588237792253494)
(X_73  0.02450980618596077)
(X_74  0.028431374579668045)
(X_75  0.03235294297337532)
(X_76  0.03235294297337532)
(X_77  0.13235294818878174)
(X_78  0.12843137979507446)
(X_79  0.12843137979507446)
(X_80  0.12843137979507446)
(X_81  0.12843137979507446)
(X_82  0.12450980395078659)
(X_83  0.12450980395078659)
(X_84  0.01666666939854622)
(X_85  0.01666666939854622)
(X_86  0.01666666939854622)
(X_87  0.01666666939854622)
(X_88  0.11666666716337204)
(X_89  0.020588237792253494)
(X_90  0.020588237792253494)
(X_91  0.12058823555707932)
(X_92  0.02450980618596077)
(X_93  0.12450980395078659)
(X_94  0.020588237792253494)
(X_95  0.020588237792253494)
(X_96  0.12450980395078659)
(X_97  0.12843137979507446)
(X_98  0.13235294818878174)
(X_99  0.13235294818878174)
(X_100  0.028431374579668045)
(X_101  0.12843137979507446)
(X_102  0.13235294818878174)
(X_103  0.03235294297337532)
(X_104  0.13235294818878174)
(X_105  0.13235294818878174)
(X_106  0.12843137979507446)
(X_107  0.12450980395078659)
(X_108  0.04019607976078987)
(X_109  0.04019607976078987)
(X_110  0.1401960849761963)
(X_111  0.136274516582489)
(X_112  0.11666666716337204)
(X_113  0.11666666716337204)
(X_114  0.12058823555707932)
(X_115  0.12450980395078659)
(X_116  0.12843137979507446)
(X_117  0.028431374579668045)
(X_118  0.03235294297337532)
(X_119  0.03235294297337532)
(X_120  0.012745101936161518)
(X_121  0.11274509876966476)
(X_122  0.11274509876966476)
(X_123  0.11274509876966476)
(X_124  0.11666666716337204)
(X_125  0.020588237792253494)
(X_126  0.02450980618596077)
(X_127  0.028431374579668045)
(X_128  0.01666666939854622)
(X_129  0.12058823555707932)
(X_130  0.12450980395078659)
(X_131  0.028431374579668045)
(X_132  0.028431374579668045)
(X_133  0.028431374579668045)
(X_134  0.028431374579668045)
(X_135  0.028431374579668045)
(X_136  0.03235294297337532)
(X_137  0.03235294297337532)
(X_138  0.13235294818878174)
(X_139  0.03235294297337532)
(X_140  0.10882353037595749)
(X_141  0.10882353037595749)
(X_142  0.008823529817163944)
(X_143  0.10882353037595749)
(X_144  0.10490196198225021)
(X_145  0.10490196198225021)
(X_146  0.004901961423456669)
(X_147  0.004901961423456669)
(X_148  0.12843137979507446)
(X_149  0.12450980395078659)
(X_150  0.12058823555707932)
(X_151  0.11666666716337204)
(X_152  0.11274509876966476)
(X_153  0.11274509876966476)
(X_154  0.11274509876966476)
(X_155  0.11274509876966476)
(X_156  0.004901961423456669)
(X_157  0.10882353037595749)
(X_158  0.012745101936161518)
(X_159  0.01666666939854622)
(X_160  0.020588237792253494)
(X_161  0.020588237792253494)
(X_162  0.12058823555707932)
(X_163  0.12058823555707932)
(X_164  0.12450980395078659)
(X_165  0.12450980395078659)
(X_166  0.12450980395078659)
(X_167  0.12843137979507446)
(X_168  0.02450980618596077)
(X_169  0.02450980618596077)
(X_170  0.02450980618596077)
(X_171  0.02450980618596077)
(X_172  0.020588237792253494)
(X_173  0.020588237792253494)
(X_174  0.01666666939854622)
(X_175  0.01666666939854622)
(X_176  0.03235294297337532)
(X_177  0.028431374579668045)
(X_178  0.12450980395078659)
(X_179  0.11666666716337204)
(X_180  0.11274509876966476)
(X_181  0.10882353037595749)
(X_182  0.10490196198225021)
(X_183  0.10490196198225021)
(X_184  0.004901961423456669)
(X_185  0.004901961423456669)
(X_186  0.008823529817163944)
(X_187  0.012745101936161518)
(X_188  0.012745101936161518)
(X_189  0.012745101936161518)
(X_190  0.012745101936161518)
(X_191  0.10882353037595749)
(X_192  0.020588237792253494)
(X_193  0.020588237792253494)
(X_194  0.020588237792253494)
(X_195  0.12450980395078659)
(X_196  0.10490196198225021)
(X_197  0.10882353037595749)
(X_198  0.10882353037595749)
(X_199  0.10882353037595749)
(X_200  0.012745101936161518)
(X_201  0.012745101936161518)
(X_202  0.01666666939854622)
(X_203  0.01666666939854622)
(X_204  0.028431374579668045)
(X_205  0.02450980618596077)
(X_206  0.12058823555707932)
(X_207  0.11666666716337204)
(X_208  0.01666666939854622)
(X_209  0.012745101936161518)
(X_210  0.01666666939854622)
(X_211  0.11666666716337204)
(X_212  0.12058823555707932)
(X_213  0.12450980395078659)
(X_214  0.12450980395078659)
(X_215  0.12450980395078659)
(X_216  0.02450980618596077)
(X_217  0.020588237792253494)
(X_218  0.11666666716337204)
(X_219  0.11274509876966476)
(X_220  0.11666666716337204)
(X_221  0.01666666939854622)
(X_222  0.01666666939854622)
(X_223  0.020588237792253494)
(X_224  0.12058823555707932)
(X_225  0.10882353037595749)
(X_226  0.0009803927969187498)
(X_227  0.09705882519483566)
(X_228  0.008823529817163944)
(X_229  0.02450980618596077)
(X_230  0.03235294297337532)
(X_231  0.036274511367082596)
(X_232  0.036274511367082596)
(X_233  0.12450980395078659)
(X_234  0.11274509876966476)
(X_235  0.11274509876966476)
(X_236  0.12058823555707932)
(X_237  0.12058823555707932)
(X_238  0.11274509876966476)
(X_239  0.10098039358854294)
(X_240  0.10882353037595749)
(X_241  0.11666666716337204)
(X_242  0.12450980395078659)
(X_243  0.12450980395078659)
(X_244  0.12058823555707932)
(X_245  0.01666666939854622)
(X_246  0.020588237792253494)
(X_247  0.02450980618596077)
(X_248  0.02450980618596077)
(X_249  0.03235294297337532)
(X_250  0.04411764815449715)
(X_251  0.0519607849419117)
(X_252  0.10490196198225021)
(X_253  0.10882353037595749)
(X_254  0.020588237792253494)
(X_255  0.12843137979507446)
(X_256  0.12843137979507446)
(X_257  0.11274509876966476)
(X_258  0.08529412001371384)
(X_259  -0.038235295563936234)
(X_260  0.08137255162000656)
(X_261  0.08137255162000656)
(X_262  0.08529412001371384)
(X_263  0.09705882519483566)
(X_264  0.10882353037595749)
(X_265  0.11666666716337204)
(X_266  0.11666666716337204)
(X_267  0.11666666716337204)
(X_268  0.020588237792253494)
(X_269  0.020588237792253494)
(X_270  0.01666666939854622)
(X_271  0.020588237792253494)
(X_272  0.04019607976078987)
(X_273  0.0833333432674408)
(X_274  0.23823529481887817)
(X_275  0.1774509847164154)
(X_276  0.27156862616539)
(X_277  0.3911764919757843)
(X_278  0.4225490391254425)
(X_279  0.4539215862751007)
(X_280  0.03235294297337532)
(X_281  0.02450980618596077)
(X_282  0.01666666939854622)
(X_283  0.01666666939854622)
(X_284  0.02450980618596077)
(X_285  0.028431374579668045)
(X_286  0.03235294297337532)
(X_287  0.028431374579668045)
(X_288  0.12843137979507446)
(X_289  0.13235294818878174)
(X_290  0.136274516582489)
(X_291  0.12843137979507446)
(X_292  0.12058823555707932)
(X_293  0.11274509876966476)
(X_294  0.012745101936161518)
(X_295  0.11274509876966476)
(X_296  0.10490196198225021)
(X_297  0.15980392694473267)
(X_298  0.2343137264251709)
(X_299  0.20098040997982025)
(X_300  0.25196078419685364)
(X_301  0.39901962876319885)
(X_302  0.44607844948768616)
(X_303  0.37745097279548645)
(X_304  0.4107843339443207)
(X_305  0.3186274468898773)
(X_306  0.3343137204647064)
(X_307  0.34215685725212097)
(X_308  0.004901961423456669)
(X_309  -0.0029411755967885256)
(X_310  -0.014705880545079708)
(X_311  -0.010784312151372433)
(X_312  -0.0029411755967885256)
(X_313  0.008823529817163944)
(X_314  0.01666666939854622)
(X_315  0.020588237792253494)
(X_316  0.012745101936161518)
(X_317  0.01666666939854622)
(X_318  0.012745101936161518)
(X_319  0.0009803927969187498)
(X_320  0.08921568840742111)
(X_321  0.09313725680112839)
(X_322  0.10882353037595749)
(X_323  0.12843137979507446)
(X_324  0.13823530077934265)
(X_325  0.30098041892051697)
(X_326  0.3754902184009552)
(X_327  0.3225490152835846)
(X_328  0.32647058367729187)
(X_329  0.3029411733150482)
(X_330  0.2872548997402191)
(X_331  0.28333333134651184)
(X_332  0.3343137204647064)
(X_333  0.3225490152835846)
(X_334  0.3068627417087555)
(X_335  0.3911764919757843)
(X_336  0.05980392172932625)
(X_337  0.17941176891326904)
(X_338  0.11078432202339172)
(X_339  0.2343137264251709)
(X_340  0.2343137264251709)
(X_341  0.19901961088180542)
(X_342  0.04803921654820442)
(X_343  0.012745101936161518)
(X_344  0.10490196198225021)
(X_345  0.10882353037595749)
(X_346  0.012745101936161518)
(X_347  0.012745101936161518)
(X_348  0.12843137979507446)
(X_349  0.15980392694473267)
(X_350  0.21078431606292725)
(X_351  0.24607843160629272)
(X_352  0.33235296607017517)
(X_353  0.3480392396450043)
(X_354  0.3598039448261261)
(X_355  0.3558823764324188)
(X_356  0.24803923070430756)
(X_357  0.25196078419685364)
(X_358  0.27156862616539)
(X_359  0.29509803652763367)
(X_360  0.21666668355464935)
(X_361  0.21666668355464935)
(X_362  0.22058825194835663)
(X_363  0.2245098203420639)
(X_364  0.20098040997982025)
(X_365  0.21274511516094208)
(X_366  0.23627452552318573)
(X_367  0.2598039209842682)
(X_368  0.2598039209842682)
(X_369  0.33627453446388245)
(X_370  0.2970588207244873)
(X_371  0.2696078419685364)
(X_372  0.11862745881080627)
(X_373  0.10686275362968445)
(X_374  0.09117648005485535)
(X_375  0.18333333730697632)
(X_376  0.1872549057006836)
(X_377  0.2186274528503418)
(X_378  0.2539215683937073)
(X_379  0.2852941155433655)
(X_380  0.3088235557079315)
(X_381  0.30098041892051697)
(X_382  0.18529412150382996)
(X_383  0.2696078419685364)
(X_384  0.2656862735748291)
(X_385  0.2774509787559509)
(X_386  0.20098040997982025)
(X_387  0.22058825194835663)
(X_388  0.36764708161354065)
(X_389  0.2872548997402191)
(X_390  0.3186274468898773)
(X_391  0.34607842564582825)
(X_392  0.3127451241016388)
(X_393  0.30490198731422424)
(X_394  0.20098040997982025)
(X_395  0.20490197837352753)
(X_396  0.21666668355464935)
(X_397  0.2245098203420639)
(X_398  0.2245098203420639)
(X_399  0.32058826088905334)
(X_400  0.16960784792900085)
(X_401  0.15392157435417175)
(X_402  0.13431373238563538)
(X_403  0.1303921639919281)
(X_404  0.14215686917304993)
(X_405  0.1617647111415863)
(X_406  0.2813725471496582)
(X_407  0.29313725233078003)
(X_408  0.1774509847164154)
(X_409  0.20490197837352753)
(X_410  0.26372548937797546)
(X_411  0.34215685725212097)
(X_412  0.4205882251262665)
(X_413  0.4754902124404907)
(X_414  0.5068627595901489)
(X_415  0.6147059202194214)
(X_416  0.48725491762161255)
(X_417  0.4950980544090271)
(X_418  0.6107843518257141)
(X_419  0.6186274886131287)
(X_420  0.18921568989753723)
(X_421  0.29313725233078003)
(X_422  0.30490198731422424)
(X_423  0.3127451241016388)
(X_424  0.3127451241016388)
(X_425  0.29313725233078003)
(X_426  0.2617647051811218)
(X_427  0.23823529481887817)
(X_428  0.2617647051811218)
(X_429  0.2617647051811218)
(X_430  0.1774509847164154)
(X_431  0.22058825194835663)
(X_432  0.38333335518836975)
(X_433  0.4382353127002716)
(X_434  0.4735294282436371)
(X_435  0.4852941334247589)
(X_436  0.45588237047195435)
(X_437  0.44019606709480286)
(X_438  0.42450979351997375)
(X_439  0.4166666567325592)
(X_440  0.5049019455909729)
(X_441  0.4696078598499298)
(X_442  0.3186274468898773)
(X_443  0.28333333134651184)
(X_444  0.23627452552318573)
(X_445  0.32058826088905334)
(X_446  0.19705882668495178)
(X_447  0.1774509847164154)
(X_448  0.12647059559822083)
(X_449  0.14215686917304993)
(X_450  0.1617647111415863)
(X_451  0.28921568393707275)
(X_452  0.21274511516094208)
(X_453  0.23235295712947845)
(X_454  0.344117671251297)
(X_455  0.3480392396450043)
(X_456  0.40294119715690613)
(X_457  0.4107843339443207)
(X_458  0.3225490152835846)
(X_459  0.32647058367729187)
(X_460  0.4225490391254425)
(X_461  0.4068627655506134)
(X_462  0.387254923582077)
(X_463  0.3715686500072479)
(X_464  0.31666669249534607)
(X_465  0.2852941155433655)
(X_466  0.25)
(X_467  0.13823530077934265)
(X_468  0.14215686917304993)
(X_469  0.23823529481887817)
(X_470  0.11862745881080627)
(X_471  0.19509804248809814)
(X_472  0.19509804248809814)
(X_473  0.2029411792755127)
(X_474  0.21078431606292725)
(X_475  0.2186274528503418)
(X_476  0.26764705777168274)
(X_477  0.26764705777168274)
(X_478  0.27156862616539)
(X_479  0.27156862616539)
(X_480  0.26764705777168274)
(X_481  0.26372548937797546)
(X_482  0.3558823764324188)
(X_483  0.25196078419685364)
(X_484  0.23235295712947845)
(X_485  0.22058825194835663)
(X_486  0.20098040997982025)
(X_487  0.17352941632270813)
(X_488  0.14215686917304993)
(X_489  0.20686274766921997)
(X_490  0.17941176891326904)
(X_491  0.16764706373214722)
(X_492  0.07941177487373352)
(X_493  0.07156863063573837)
(X_494  0.06372549384832382)
(X_495  0.07156863063573837)
(X_496  0.0833333432674408)
(X_497  0.08725491166114807)
(X_498  0.07156863063573837)
(X_499  0.0519607849419117)
(X_500  0.07549020648002625)
(X_501  0.07941177487373352)
(X_502  0.0833333432674408)
(X_503  0.08725491166114807)
(X_504  0.1931372582912445)
(X_505  0.18921568989753723)
(X_506  0.1774509847164154)
(X_507  0.2656862735748291)
(X_508  0.24607843160629272)
(X_509  0.22647058963775635)
(X_510  0.21078431606292725)
(X_511  0.10294118523597717)
(X_512  0.13431373238563538)
(X_513  0.11862745881080627)
(X_514  0.09509804844856262)
(X_515  0.06372549384832382)
(X_516  0.04019607976078987)
(X_517  0.02450980618596077)
(X_518  0.012745101936161518)
(X_519  0.008823529817163944)
(X_520  0.0009803927969187498)
(X_521  0.012745101936161518)
(X_522  0.036274511367082596)
(X_523  0.05588235333561897)
(X_524  0.16372549533843994)
(X_525  0.05980392172932625)
(X_526  0.0519607849419117)
(X_527  0.04411764815449715)
(X_528  0.07156863063573837)
(X_529  0.16764706373214722)
(X_530  0.0676470622420311)
(X_531  0.0676470622420311)
(X_532  0.07156863063573837)
(X_533  0.07156863063573837)
(X_534  0.0676470622420311)
(X_535  0.15980392694473267)
(X_536  0.1558823585510254)
(X_537  0.14803922176361084)
(X_538  0.1401960849761963)
(X_539  0.1401960849761963)
(X_540  0.06372549384832382)
(X_541  0.05980392172932625)
(X_542  0.0519607849419117)
(X_543  0.04411764815449715)
(X_544  0.04411764815449715)
(X_545  0.0519607849419117)
(X_546  0.05980392172932625)
(X_547  0.16372549533843994)
(X_548  0.11666666716337204)
(X_549  0.136274516582489)
(X_550  0.16372549533843994)
(X_551  0.1715686321258545)
(X_552  0.0676470622420311)
(X_553  0.05588235333561897)
(X_554  0.04803921654820442)
(X_555  0.04803921654820442)
(X_556  0.05588235333561897)
(X_557  0.0519607849419117)
(X_558  0.04411764815449715)
(X_559  0.04019607976078987)
(X_560  0.13235294818878174)
(X_561  0.13235294818878174)
(X_562  0.036274511367082596)
(X_563  0.036274511367082596)
(X_564  0.04019607976078987)
(X_565  0.04411764815449715)
(X_566  0.04803921654820442)
(X_567  0.0519607849419117)
(X_568  0.12843137979507446)
(X_569  0.028431374579668045)
(X_570  0.03235294297337532)
(X_571  0.03235294297337532)
(X_572  0.03235294297337532)
(X_573  0.03235294297337532)
(X_574  0.03235294297337532)
(X_575  0.03235294297337532)
(X_576  0.02450980618596077)
(X_577  0.14411765336990356)
(X_578  0.1558823585510254)
(X_579  0.15196079015731812)
(X_580  0.136274516582489)
(X_581  0.12450980395078659)
(X_582  0.02450980618596077)
(X_583  0.03235294297337532)
(X_584  0.020588237792253494)
(X_585  0.01666666939854622)
(X_586  0.008823529817163944)
(X_587  0.004901961423456669)
(X_588  0.012745101936161518)
(X_589  0.008823529817163944)
(X_590  0.008823529817163944)
(X_591  0.004901961423456669)
(X_592  0.004901961423456669)
(X_593  0.004901961423456669)
(X_594  0.10882353037595749)
(X_595  0.11274509876966476)
(X_596  0.008823529817163944)
(X_597  0.01666666939854622)
(X_598  0.02450980618596077)
(X_599  0.12843137979507446)
(X_600  0.12450980395078659)
(X_601  0.12058823555707932)
(X_602  0.10882353037595749)
(X_603  0.10490196198225021)
(X_604  0.10882353037595749)
(X_605  0.01666666939854622)
(X_606  0.12450980395078659)
(X_607  0.11666666716337204)
(X_608  0.10490196198225021)
(X_609  0.09705882519483566)
(X_610  0.10490196198225021)
(X_611  0.012745101936161518)
(X_612  0.10882353037595749)
(X_613  0.10490196198225021)
(X_614  0.0009803927969187498)
(X_615  0.0009803927969187498)
(X_616  0.02450980618596077)
(X_617  0.12058823555707932)
(X_618  0.11274509876966476)
(X_619  0.10882353037595749)
(X_620  0.004901961423456669)
(X_621  0.004901961423456669)
(X_622  0.10882353037595749)
(X_623  0.10882353037595749)
(X_624  0.0009803927969187498)
(X_625  0.004901961423456669)
(X_626  0.01666666939854622)
(X_627  0.020588237792253494)
(X_628  0.12450980395078659)
(X_629  0.12058823555707932)
(X_630  0.11666666716337204)
(X_631  0.11274509876966476)
(X_632  -0.0029411755967885256)
(X_633  0.0009803927969187498)
(X_634  0.004901961423456669)
(X_635  0.004901961423456669)
(X_636  0.0009803927969187498)
(X_637  0.09705882519483566)
(X_638  0.09705882519483566)
(X_639  0.10098039358854294)
(X_640  0.10490196198225021)
(X_641  0.10490196198225021)
(X_642  0.10882353037595749)
(X_643  0.10882353037595749)
(X_644  0.10098039358854294)
(X_645  0.0009803927969187498)
(X_646  -0.0029411755967885256)
(X_647  -0.006862743757665157)
(X_648  0.09705882519483566)
(X_649  0.10098039358854294)
(X_650  0.10882353037595749)
(X_651  0.11274509876966476)
(X_652  0.0009803927969187498)
(X_653  0.10098039358854294)
(X_654  0.0009803927969187498)
(X_655  -0.0029411755967885256)
(X_656  0.09705882519483566)
(X_657  0.09313725680112839)
(X_658  0.08921568840742111)
(X_659  0.08529412001371384)
(X_660  0.08921568840742111)
(X_661  -0.006862743757665157)
(X_662  -0.0029411755967885256)
(X_663  0.0009803927969187498)
(X_664  0.0009803927969187498)
(X_665  -0.0029411755967885256)
(X_666  -0.014705880545079708)
(X_667  -0.018627449870109558)
(X_668  -0.014705880545079708)
(X_669  -0.010784312151372433)
(X_670  0.09313725680112839)
(X_671  0.09705882519483566)
(X_672  -0.010784312151372433)
(X_673  0.08921568840742111)
(X_674  -0.006862743757665157)
(X_675  0.09313725680112839)
(X_676  0.09313725680112839)
(X_677  0.09705882519483566)
(X_678  0.09705882519483566)
(X_679  0.09705882519483566)
(X_680  0.08921568840742111)
(X_681  0.08921568840742111)
(X_682  0.08921568840742111)
(X_683  -0.010784312151372433)
(X_684  0.08921568840742111)
(X_685  0.08921568840742111)
(X_686  0.08921568840742111)
(X_687  -0.010784312151372433)
(X_688  0.08921568840742111)
(X_689  0.08921568840742111)
(X_690  -0.006862743757665157)
(X_691  -0.006862743757665157)
(X_692  -0.006862743757665157)
(X_693  -0.010784312151372433)
(X_694  0.08529412001371384)
(X_695  0.08529412001371384)
(X_696  0.08529412001371384)
(X_697  -0.014705880545079708)
(X_698  0.08529412001371384)
(X_699  0.08529412001371384)
(X_700  0.08529412001371384)
(X_701  0.08529412001371384)
(X_702  -0.010784312151372433)
(X_703  0.08921568840742111)
(X_704  0.09313725680112839)
(X_705  -0.006862743757665157)
(X_706  0.09313725680112839)
(X_707  -0.006862743757665157)
(X_708  -0.010784312151372433)
(X_709  -0.010784312151372433)
(X_710  -0.010784312151372433)
(X_711  -0.010784312151372433)
(X_712  -0.010784312151372433)
(X_713  0.08921568840742111)
(X_714  0.08921568840742111)
(X_715  0.08921568840742111)
(X_716  -0.014705880545079708)
(X_717  -0.010784312151372433)
(X_718  -0.010784312151372433)
(X_719  -0.006862743757665157)
(X_720  -0.006862743757665157)
(X_721  -0.010784312151372433)
(X_722  -0.014705880545079708)
(X_723  -0.014705880545079708)
(X_724  0.08529412001371384)
(X_725  -0.014705880545079708)
(X_726  -0.014705880545079708)
(X_727  0.08529412001371384)
(X_728  -0.018627449870109558)
(X_729  -0.018627449870109558)
(X_730  -0.014705880545079708)
(X_731  0.08529412001371384)
(X_732  0.08529412001371384)
(X_733  0.08921568840742111)
(X_734  0.08921568840742111)
(X_735  0.08921568840742111)
(X_736  -0.010784312151372433)
(X_737  -0.010784312151372433)
(X_738  -0.010784312151372433)
(X_739  -0.010784312151372433)
(X_740  -0.010784312151372433)
(X_741  0.08921568840742111)
(X_742  -0.010784312151372433)
(X_743  -0.010784312151372433)
(X_744  0.08529412001371384)
(X_745  -0.014705880545079708)
(X_746  -0.010784312151372433)
(X_747  -0.010784312151372433)
(X_748  -0.010784312151372433)
(X_749  0.08921568840742111)
(X_750  0.08529412001371384)
(X_751  0.08529412001371384)
(X_752  0.08529412001371384)
(X_753  0.08529412001371384)
(X_754  0.08529412001371384)
(X_755  0.08529412001371384)
(X_756  -0.022549020126461983)
(X_757  -0.022549020126461983)
(X_758  -0.022549020126461983)
(X_759  0.08137255162000656)
(X_760  0.08137255162000656)
(X_761  0.08529412001371384)
(X_762  0.08529412001371384)
(X_763  0.08529412001371384)
(X_764  -0.014705880545079708)
(X_765  -0.014705880545079708)
(X_766  0.08529412001371384)
(X_767  0.08529412001371384)
(X_768  0.08529412001371384)
(X_769  0.08529412001371384)
(X_770  -0.014705880545079708)
(X_771  -0.014705880545079708)
(X_772  -0.018627449870109558)
(X_773  -0.018627449870109558)
(X_774  -0.014705880545079708)
(X_775  -0.010784312151372433)
(X_776  -0.010784312151372433)
(X_777  -0.010784312151372433)
(X_778  -0.010784312151372433)
(X_779  0.08529412001371384)
(X_780  0.08529412001371384)
(X_781  -0.014705880545079708)
(X_782  0.08529412001371384)
(X_783  -0.014705880545079708)
(Y_0 16.039794921875)
(Y_1 7.6818461418151855)
(Y_2 4.9730610847473145)
(Y_3 -29.822141647338867))