((X_0  1.0499999523162842)
(X_1  0.949999988079071)
(X_2  0.949999988079071)
(X_3  0.949999988079071)
(X_4  0.949999988079071)
(X_5  0.949999988079071)
(X_6  0.9460784196853638)
(X_7  1.0421568155288696)
(X_8  1.0499999523162842)
(X_9  1.0421568155288696)
(X_10  1.0382353067398071)
(X_11  1.0421568155288696)
(X_12  1.0499999523162842)
(X_13  1.0499999523162842)
(X_14  1.0499999523162842)
(X_15  0.949999988079071)
(X_16  0.9421568512916565)
(X_17  0.9421568512916565)
(X_18  0.9382352828979492)
(X_19  0.9382352828979492)
(X_20  0.9382352828979492)
(X_21  1.0421568155288696)
(X_22  1.0421568155288696)
(X_23  1.0460784435272217)
(X_24  1.0460784435272217)
(X_25  0.9460784196853638)
(X_26  0.9460784196853638)
(X_27  0.9460784196853638)
(X_28  1.034313678741455)
(X_29  1.0382353067398071)
(X_30  0.9382352828979492)
(X_31  0.9382352828979492)
(X_32  0.9382352828979492)
(X_33  0.9460784196853638)
(X_34  0.949999988079071)
(X_35  0.949999988079071)
(X_36  0.949999988079071)
(X_37  0.9460784196853638)
(X_38  0.9421568512916565)
(X_39  0.9421568512916565)
(X_40  1.0499999523162842)
(X_41  1.0499999523162842)
(X_42  1.0499999523162842)
(X_43  1.0421568155288696)
(X_44  1.0499999523162842)
(X_45  1.0499999523162842)
(X_46  1.0499999523162842)
(X_47  1.0499999523162842)
(X_48  1.0499999523162842)
(X_49  0.949999988079071)
(X_50  0.949999988079071)
(X_51  0.949999988079071)
(X_52  1.0499999523162842)
(X_53  1.0499999523162842)
(X_54  0.949999988079071)
(X_55  1.0499999523162842)
(X_56  0.7127451300621033)
(X_57  0.6245098114013672)
(X_58  0.636274516582489)
(X_59  0.6323529481887817)
(X_60  0.6205882430076599)
(X_61  0.6127451062202454)
(X_62  0.6166666746139526)
(X_63  0.6245098114013672)
(X_64  0.6166666746139526)
(X_65  0.6127451062202454)
(X_66  0.6088235378265381)
(X_67  0.7127451300621033)
(X_68  0.7166666984558105)
(X_69  0.7166666984558105)
(X_70  0.708823561668396)
(X_71  0.6009804010391235)
(X_72  0.593137264251709)
(X_73  0.5892156958580017)
(X_74  0.5852941274642944)
(X_75  0.5774509906768799)
(X_76  0.5735294222831726)
(X_77  0.6696078777313232)
(X_78  0.6696078777313232)
(X_79  0.6696078777313232)
(X_80  0.665686309337616)
(X_81  0.665686309337616)
(X_82  0.5656862854957581)
(X_83  0.665686309337616)
(X_84  0.12450980395078659)
(X_85  0.14411765336990356)
(X_86  0.16764706373214722)
(X_87  0.1715686321258545)
(X_88  0.1558823585510254)
(X_89  0.136274516582489)
(X_90  0.12843137979507446)
(X_91  0.028431374579668045)
(X_92  0.1401960849761963)
(X_93  0.04019607976078987)
(X_94  0.04019607976078987)
(X_95  0.04411764815449715)
(X_96  0.15196079015731812)
(X_97  0.15196079015731812)
(X_98  0.14411765336990356)
(X_99  0.136274516582489)
(X_100  0.14803922176361084)
(X_101  0.14411765336990356)
(X_102  0.1401960849761963)
(X_103  0.136274516582489)
(X_104  0.03235294297337532)
(X_105  0.03235294297337532)
(X_106  0.03235294297337532)
(X_107  0.03235294297337532)
(X_108  0.036274511367082596)
(X_109  0.036274511367082596)
(X_110  0.036274511367082596)
(X_111  0.036274511367082596)
(X_112  0.10490196198225021)
(X_113  0.11666666716337204)
(X_114  0.13235294818878174)
(X_115  0.13235294818878174)
(X_116  0.028431374579668045)
(X_117  0.02450980618596077)
(X_118  0.03235294297337532)
(X_119  0.04019607976078987)
(X_120  -0.0029411755967885256)
(X_121  -0.006862743757665157)
(X_122  -0.006862743757665157)
(X_123  0.0009803927969187498)
(X_124  0.11274509876966476)
(X_125  0.11666666716337204)
(X_126  0.012745101936161518)
(X_127  0.008823529817163944)
(X_128  0.12450980395078659)
(X_129  0.12450980395078659)
(X_130  0.12058823555707932)
(X_131  0.12058823555707932)
(X_132  0.12450980395078659)
(X_133  0.12843137979507446)
(X_134  0.03235294297337532)
(X_135  0.136274516582489)
(X_136  0.136274516582489)
(X_137  0.136274516582489)
(X_138  0.136274516582489)
(X_139  0.136274516582489)
(X_140  0.05980392172932625)
(X_141  0.15196079015731812)
(X_142  0.136274516582489)
(X_143  0.12843137979507446)
(X_144  0.12843137979507446)
(X_145  0.136274516582489)
(X_146  0.04411764815449715)
(X_147  0.15196079015731812)
(X_148  0.13235294818878174)
(X_149  0.12450980395078659)
(X_150  0.020588237792253494)
(X_151  0.02450980618596077)
(X_152  0.13235294818878174)
(X_153  0.1401960849761963)
(X_154  0.1401960849761963)
(X_155  0.1401960849761963)
(X_156  0.020588237792253494)
(X_157  0.12058823555707932)
(X_158  0.12058823555707932)
(X_159  0.12450980395078659)
(X_160  0.12843137979507446)
(X_161  0.136274516582489)
(X_162  0.1401960849761963)
(X_163  0.14411765336990356)
(X_164  0.13235294818878174)
(X_165  0.13235294818878174)
(X_166  0.13235294818878174)
(X_167  0.13235294818878174)
(X_168  0.11274509876966476)
(X_169  0.11274509876966476)
(X_170  0.12058823555707932)
(X_171  0.04019607976078987)
(X_172  0.05980392172932625)
(X_173  0.05588235333561897)
(X_174  0.036274511367082596)
(X_175  0.012745101936161518)
(X_176  0.03235294297337532)
(X_177  0.020588237792253494)
(X_178  0.004901961423456669)
(X_179  0.10098039358854294)
(X_180  0.10490196198225021)
(X_181  0.10882353037595749)
(X_182  0.012745101936161518)
(X_183  0.012745101936161518)
(X_184  0.11274509876966476)
(X_185  0.11274509876966476)
(X_186  0.11274509876966476)
(X_187  0.11274509876966476)
(X_188  0.11666666716337204)
(X_189  0.020588237792253494)
(X_190  0.02450980618596077)
(X_191  0.12843137979507446)
(X_192  0.11666666716337204)
(X_193  0.11666666716337204)
(X_194  0.11666666716337204)
(X_195  0.11666666716337204)
(X_196  0.08725491166114807)
(X_197  0.22254902124404907)
(X_198  0.28921568393707275)
(X_199  0.3754902184009552)
(X_200  0.33039215207099915)
(X_201  0.32647058367729187)
(X_202  0.2754901945590973)
(X_203  0.2245098203420639)
(X_204  0.0833333432674408)
(X_205  0.06372549384832382)
(X_206  0.04019607976078987)
(X_207  0.12450980395078659)
(X_208  0.02450980618596077)
(X_209  0.028431374579668045)
(X_210  0.03235294297337532)
(X_211  0.13235294818878174)
(X_212  0.12450980395078659)
(X_213  0.12058823555707932)
(X_214  0.12058823555707932)
(X_215  0.11666666716337204)
(X_216  0.11666666716337204)
(X_217  0.11666666716337204)
(X_218  0.12058823555707932)
(X_219  0.12058823555707932)
(X_220  0.12450980395078659)
(X_221  0.12450980395078659)
(X_222  0.02450980618596077)
(X_223  0.12450980395078659)
(X_224  0.3225490152835846)
(X_225  0.34215685725212097)
(X_226  0.4539215862751007)
(X_227  0.44607844948768616)
(X_228  0.3382352888584137)
(X_229  0.3343137204647064)
(X_230  0.3343137204647064)
(X_231  0.3343137204647064)
(X_232  0.43431374430656433)
(X_233  0.30490198731422424)
(X_234  0.15980392694473267)
(X_235  0.08921568840742111)
(X_236  0.08921568840742111)
(X_237  0.10490196198225021)
(X_238  0.12058823555707932)
(X_239  0.13235294818878174)
(X_240  0.008823529817163944)
(X_241  0.11666666716337204)
(X_242  0.12450980395078659)
(X_243  0.12058823555707932)
(X_244  0.11274509876966476)
(X_245  0.11274509876966476)
(X_246  0.12450980395078659)
(X_247  0.036274511367082596)
(X_248  0.008823529817163944)
(X_249  0.012745101936161518)
(X_250  0.01666666939854622)
(X_251  0.11666666716337204)
(X_252  0.3696078360080719)
(X_253  0.3578431308269501)
(X_254  0.3343137204647064)
(X_255  0.4068627655506134)
(X_256  0.41862747073173523)
(X_257  0.46176472306251526)
(X_258  0.5009803771972656)
(X_259  0.5245097875595093)
(X_260  0.45588237047195435)
(X_261  0.33039215207099915)
(X_262  0.27352941036224365)
(X_263  0.1715686321258545)
(X_264  0.14411765336990356)
(X_265  0.14411765336990356)
(X_266  0.12058823555707932)
(X_267  0.08921568840742111)
(X_268  0.11274509876966476)
(X_269  0.12058823555707932)
(X_270  0.12843137979507446)
(X_271  0.02450980618596077)
(X_272  0.020588237792253494)
(X_273  0.020588237792253494)
(X_274  0.13235294818878174)
(X_275  0.04019607976078987)
(X_276  0.05980392172932625)
(X_277  0.06372549384832382)
(X_278  0.07156863063573837)
(X_279  0.07941177487373352)
(X_280  0.25196078419685364)
(X_281  0.3950980603694916)
(X_282  0.34215685725212097)
(X_283  0.385294109582901)
(X_284  0.4362744987010956)
(X_285  0.595098078250885)
(X_286  0.6264706254005432)
(X_287  0.6303921937942505)
(X_288  0.5068627595901489)
(X_289  0.42450979351997375)
(X_290  0.27941176295280457)
(X_291  0.24607843160629272)
(X_292  0.19509804248809814)
(X_293  0.09117648005485535)
(X_294  0.06372549384832382)
(X_295  0.01666666939854622)
(X_296  0.16764706373214722)
(X_297  0.1872549057006836)
(X_298  0.12254902720451355)
(X_299  0.1617647111415863)
(X_300  0.19705882668495178)
(X_301  0.33627453446388245)
(X_302  0.27156862616539)
(X_303  0.2911764681339264)
(X_304  0.3656862676143646)
(X_305  0.3696078360080719)
(X_306  0.37745097279548645)
(X_307  0.3813725411891937)
(X_308  0.3911764919757843)
(X_309  0.4696078598499298)
(X_310  0.5441176295280457)
(X_311  0.4637255072593689)
(X_312  0.4480392038822174)
(X_313  0.42450979351997375)
(X_314  0.385294109582901)
(X_315  0.34215685725212097)
(X_316  0.34215685725212097)
(X_317  0.3578431308269501)
(X_318  0.31470587849617004)
(X_319  0.32058826088905334)
(X_320  0.2774509787559509)
(X_321  0.2088235467672348)
(X_322  0.23627452552318573)
(X_323  0.22843138873577118)
(X_324  0.26764705777168274)
(X_325  0.2754901945590973)
(X_326  0.2872548997402191)
(X_327  0.39901962876319885)
(X_328  0.4107843339443207)
(X_329  0.3186274468898773)
(X_330  0.32647058367729187)
(X_331  0.3343137204647064)
(X_332  0.41470590233802795)
(X_333  0.31470587849617004)
(X_334  0.3186274468898773)
(X_335  0.3186274468898773)
(X_336  0.3813725411891937)
(X_337  0.5441176295280457)
(X_338  0.5637255311012268)
(X_339  0.49313727021217346)
(X_340  0.3950980603694916)
(X_341  0.33627453446388245)
(X_342  0.20098040997982025)
(X_343  0.17352941632270813)
(X_344  0.2696078419685364)
(X_345  0.38333335518836975)
(X_346  0.34607842564582825)
(X_347  0.2872548997402191)
(X_348  0.2088235467672348)
(X_349  0.19705882668495178)
(X_350  0.32058826088905334)
(X_351  0.3284313976764679)
(X_352  0.39901962876319885)
(X_353  0.39901962876319885)
(X_354  0.3950980603694916)
(X_355  0.3911764919757843)
(X_356  0.387254923582077)
(X_357  0.3794117867946625)
(X_358  0.36764708161354065)
(X_359  0.3598039448261261)
(X_360  0.2754901945590973)
(X_361  0.2754901945590973)
(X_362  0.27941176295280457)
(X_363  0.28333333134651184)
(X_364  0.32647058367729187)
(X_365  0.3970588147640228)
(X_366  0.41274508833885193)
(X_367  0.43431374430656433)
(X_368  0.344117671251297)
(X_369  0.30490198731422424)
(X_370  0.28921568393707275)
(X_371  0.2696078419685364)
(X_372  0.09117648005485535)
(X_373  0.23627452552318573)
(X_374  0.46568629145622253)
(X_375  0.4696078598499298)
(X_376  0.39901962876319885)
(X_377  0.344117671251297)
(X_378  0.3284313976764679)
(X_379  0.3284313976764679)
(X_380  0.2852941155433655)
(X_381  0.29313725233078003)
(X_382  0.3127451241016388)
(X_383  0.240196093916893)
(X_384  0.27156862616539)
(X_385  0.2911764681339264)
(X_386  0.29901960492134094)
(X_387  0.29901960492134094)
(X_388  0.2754901945590973)
(X_389  0.3794117867946625)
(X_390  0.2872548997402191)
(X_391  0.29509803652763367)
(X_392  0.3715686500072479)
(X_393  0.4382353127002716)
(X_394  0.46176472306251526)
(X_395  0.3950980603694916)
(X_396  0.3284313976764679)
(X_397  0.2970588207244873)
(X_398  0.2539215683937073)
(X_399  0.19901961088180542)
(X_400  0.1558823585510254)
(X_401  0.25)
(X_402  0.3754902184009552)
(X_403  0.4539215862751007)
(X_404  0.4735294282436371)
(X_405  0.3656862676143646)
(X_406  0.36176469922065735)
(X_407  0.3656862676143646)
(X_408  0.385294109582901)
(X_409  0.385294109582901)
(X_410  0.39313724637031555)
(X_411  0.5127450823783875)
(X_412  0.5323529243469238)
(X_413  0.44019606709480286)
(X_414  0.5362744927406311)
(X_415  0.5245097875595093)
(X_416  0.42450979351997375)
(X_417  0.42843136191368103)
(X_418  0.4362744987010956)
(X_419  0.44411763548851013)
(X_420  0.1774509847164154)
(X_421  0.22058825194835663)
(X_422  0.2245098203420639)
(X_423  0.17352941632270813)
(X_424  0.15000000596046448)
(X_425  0.1617647111415863)
(X_426  0.13823530077934265)
(X_427  0.18333333730697632)
(X_428  0.10294118523597717)
(X_429  0.19901961088180542)
(X_430  0.12647059559822083)
(X_431  0.18137255311012268)
(X_432  0.21666668355464935)
(X_433  0.3127451241016388)
(X_434  0.2970588207244873)
(X_435  0.18921568989753723)
(X_436  0.22058825194835663)
(X_437  0.22058825194835663)
(X_438  0.32058826088905334)
(X_439  0.33235296607017517)
(X_440  0.344117671251297)
(X_441  0.24411766231060028)
(X_442  0.22843138873577118)
(X_443  0.21666668355464935)
(X_444  0.20098040997982025)
(X_445  0.20098040997982025)
(X_446  0.20490197837352753)
(X_447  0.3088235557079315)
(X_448  0.23823529481887817)
(X_449  0.1774509847164154)
(X_450  0.18137255311012268)
(X_451  0.23039215803146362)
(X_452  0.19509804248809814)
(X_453  0.0990196168422699)
(X_454  0.19509804248809814)
(X_455  0.1715686321258545)
(X_456  0.1558823585510254)
(X_457  0.16372549533843994)
(X_458  0.1872549057006836)
(X_459  0.22647058963775635)
(X_460  0.25784313678741455)
(X_461  0.2656862735748291)
(X_462  0.2539215683937073)
(X_463  0.23823529481887817)
(X_464  0.2343137264251709)
(X_465  0.23823529481887817)
(X_466  0.24215686321258545)
(X_467  0.24607843160629272)
(X_468  0.2539215683937073)
(X_469  0.25784313678741455)
(X_470  0.2656862735748291)
(X_471  0.2656862735748291)
(X_472  0.2617647051811218)
(X_473  0.2617647051811218)
(X_474  0.2539215683937073)
(X_475  0.25)
(X_476  0.0990196168422699)
(X_477  0.13823530077934265)
(X_478  0.14215686917304993)
(X_479  0.0990196168422699)
(X_480  0.07156863063573837)
(X_481  0.07941177487373352)
(X_482  0.07941177487373352)
(X_483  0.05980392172932625)
(X_484  0.1401960849761963)
(X_485  0.15196079015731812)
(X_486  0.07941177487373352)
(X_487  0.10686275362968445)
(X_488  0.1303921639919281)
(X_489  0.13431373238563538)
(X_490  0.12647059559822083)
(X_491  0.114705890417099)
(X_492  0.12647059559822083)
(X_493  0.1303921639919281)
(X_494  0.13431373238563538)
(X_495  0.13823530077934265)
(X_496  0.24215686321258545)
(X_497  0.24607843160629272)
(X_498  0.25)
(X_499  0.25)
(X_500  0.24215686321258545)
(X_501  0.13823530077934265)
(X_502  0.13431373238563538)
(X_503  0.1303921639919281)
(X_504  0.15196079015731812)
(X_505  0.1872549057006836)
(X_506  0.19117647409439087)
(X_507  0.16372549533843994)
(X_508  0.04411764815449715)
(X_509  0.05588235333561897)
(X_510  0.05588235333561897)
(X_511  0.04019607976078987)
(X_512  0.01666666939854622)
(X_513  0.036274511367082596)
(X_514  0.05980392172932625)
(X_515  0.07941177487373352)
(X_516  0.08725491166114807)
(X_517  0.08725491166114807)
(X_518  0.08725491166114807)
(X_519  0.08725491166114807)
(X_520  0.10294118523597717)
(X_521  0.10294118523597717)
(X_522  0.10294118523597717)
(X_523  0.10686275362968445)
(X_524  0.10686275362968445)
(X_525  0.21078431606292725)
(X_526  0.11078432202339172)
(X_527  0.11078432202339172)
(X_528  0.09509804844856262)
(X_529  0.09509804844856262)
(X_530  0.09509804844856262)
(X_531  0.09117648005485535)
(X_532  0.12843137979507446)
(X_533  0.15196079015731812)
(X_534  0.1558823585510254)
(X_535  0.136274516582489)
(X_536  0.12450980395078659)
(X_537  0.03235294297337532)
(X_538  0.03235294297337532)
(X_539  0.02450980618596077)
(X_540  0.0009803927969187498)
(X_541  0.02450980618596077)
(X_542  0.04803921654820442)
(X_543  0.05588235333561897)
(X_544  0.0519607849419117)
(X_545  0.04803921654820442)
(X_546  0.0519607849419117)
(X_547  0.05980392172932625)
(X_548  0.16372549533843994)
(X_549  0.16372549533843994)
(X_550  0.06372549384832382)
(X_551  0.15980392694473267)
(X_552  0.15980392694473267)
(X_553  0.15980392694473267)
(X_554  0.15980392694473267)
(X_555  0.05980392172932625)
(X_556  0.14803922176361084)
(X_557  0.04803921654820442)
(X_558  0.04803921654820442)
(X_559  0.04803921654820442)
(X_560  0.12450980395078659)
(X_561  0.036274511367082596)
(X_562  0.04019607976078987)
(X_563  0.028431374579668045)
(X_564  0.020588237792253494)
(X_565  0.020588237792253494)
(X_566  0.01666666939854622)
(X_567  0.008823529817163944)
(X_568  0.10098039358854294)
(X_569  0.01666666939854622)
(X_570  0.136274516582489)
(X_571  0.036274511367082596)
(X_572  0.028431374579668045)
(X_573  0.02450980618596077)
(X_574  0.028431374579668045)
(X_575  0.04019607976078987)
(X_576  0.03235294297337532)
(X_577  0.03235294297337532)
(X_578  0.03235294297337532)
(X_579  0.13235294818878174)
(X_580  0.12843137979507446)
(X_581  0.12843137979507446)
(X_582  0.12843137979507446)
(X_583  0.12843137979507446)
(X_584  0.12450980395078659)
(X_585  0.02450980618596077)
(X_586  0.02450980618596077)
(X_587  0.02450980618596077)
(X_588  0.12450980395078659)
(X_589  0.02450980618596077)
(X_590  0.02450980618596077)
(X_591  0.020588237792253494)
(X_592  0.11666666716337204)
(X_593  0.10882353037595749)
(X_594  0.10490196198225021)
(X_595  0.10098039358854294)
(X_596  0.10490196198225021)
(X_597  0.012745101936161518)
(X_598  0.020588237792253494)
(X_599  0.020588237792253494)
(X_600  0.01666666939854622)
(X_601  0.01666666939854622)
(X_602  0.020588237792253494)
(X_603  0.02450980618596077)
(X_604  0.020588237792253494)
(X_605  0.020588237792253494)
(X_606  0.12058823555707932)
(X_607  0.12058823555707932)
(X_608  0.11666666716337204)
(X_609  0.11666666716337204)
(X_610  0.11666666716337204)
(X_611  0.11666666716337204)
(X_612  0.12058823555707932)
(X_613  0.020588237792253494)
(X_614  0.12058823555707932)
(X_615  0.12058823555707932)
(X_616  0.10882353037595749)
(X_617  0.10490196198225021)
(X_618  0.004901961423456669)
(X_619  0.008823529817163944)
(X_620  0.10882353037595749)
(X_621  0.10098039358854294)
(X_622  -0.0029411755967885256)
(X_623  -0.006862743757665157)
(X_624  0.10882353037595749)
(X_625  0.10490196198225021)
(X_626  0.10098039358854294)
(X_627  0.004901961423456669)
(X_628  0.012745101936161518)
(X_629  0.01666666939854622)
(X_630  0.012745101936161518)
(X_631  0.008823529817163944)
(X_632  0.004901961423456669)
(X_633  0.004901961423456669)
(X_634  0.008823529817163944)
(X_635  0.008823529817163944)
(X_636  0.10882353037595749)
(X_637  0.10882353037595749)
(X_638  0.10882353037595749)
(X_639  0.10882353037595749)
(X_640  0.11666666716337204)
(X_641  0.11666666716337204)
(X_642  0.11666666716337204)
(X_643  0.11274509876966476)
(X_644  0.09313725680112839)
(X_645  0.08529412001371384)
(X_646  0.08529412001371384)
(X_647  0.09705882519483566)
(X_648  0.10098039358854294)
(X_649  0.09705882519483566)
(X_650  0.08921568840742111)
(X_651  0.08921568840742111)
(X_652  0.012745101936161518)
(X_653  0.0009803927969187498)
(X_654  -0.010784312151372433)
(X_655  -0.006862743757665157)
(X_656  0.008823529817163944)
(X_657  0.01666666939854622)
(X_658  0.012745101936161518)
(X_659  0.0009803927969187498)
(X_660  0.08921568840742111)
(X_661  0.09313725680112839)
(X_662  0.09313725680112839)
(X_663  -0.006862743757665157)
(X_664  -0.0029411755967885256)
(X_665  -0.0029411755967885256)
(X_666  0.0009803927969187498)
(X_667  0.0009803927969187498)
(X_668  0.004901961423456669)
(X_669  0.004901961423456669)
(X_670  0.10098039358854294)
(X_671  0.10098039358854294)
(X_672  0.09705882519483566)
(X_673  -0.0029411755967885256)
(X_674  -0.0029411755967885256)
(X_675  0.09705882519483566)
(X_676  0.09705882519483566)
(X_677  0.09705882519483566)
(X_678  0.09705882519483566)
(X_679  0.09705882519483566)
(X_680  -0.0029411755967885256)
(X_681  0.09705882519483566)
(X_682  -0.0029411755967885256)
(X_683  -0.0029411755967885256)
(X_684  0.09705882519483566)
(X_685  -0.0029411755967885256)
(X_686  -0.0029411755967885256)
(X_687  -0.0029411755967885256)
(X_688  0.09705882519483566)
(X_689  0.09705882519483566)
(X_690  -0.0029411755967885256)
(X_691  -0.0029411755967885256)
(X_692  -0.0029411755967885256)
(X_693  0.09705882519483566)
(X_694  0.09705882519483566)
(X_695  0.09705882519483566)
(X_696  0.09705882519483566)
(X_697  0.09705882519483566)
(X_698  0.09705882519483566)
(X_699  0.09705882519483566)
(X_700  0.09313725680112839)
(X_701  0.09313725680112839)
(X_702  0.09313725680112839)
(X_703  0.09313725680112839)
(X_704  -0.006862743757665157)
(X_705  -0.006862743757665157)
(X_706  -0.006862743757665157)
(X_707  -0.006862743757665157)
(X_708  -0.0029411755967885256)
(X_709  -0.0029411755967885256)
(X_710  -0.0029411755967885256)
(X_711  0.09705882519483566)
(X_712  0.09705882519483566)
(X_713  -0.0029411755967885256)
(X_714  -0.0029411755967885256)
(X_715  -0.0029411755967885256)
(X_716  -0.006862743757665157)
(X_717  -0.006862743757665157)
(X_718  -0.006862743757665157)
(X_719  -0.006862743757665157)
(X_720  -0.006862743757665157)
(X_721  -0.006862743757665157)
(X_722  -0.006862743757665157)
(X_723  0.09313725680112839)
(X_724  0.09313725680112839)
(X_725  0.09313725680112839)
(X_726  0.09313725680112839)
(X_727  0.09313725680112839)
(X_728  0.08921568840742111)
(X_729  0.08921568840742111)
(X_730  0.08921568840742111)
(X_731  0.08921568840742111)
(X_732  0.08921568840742111)
(X_733  0.08921568840742111)
(X_734  0.08921568840742111)
(X_735  0.08921568840742111)
(X_736  -0.0029411755967885256)
(X_737  -0.0029411755967885256)
(X_738  -0.0029411755967885256)
(X_739  -0.0029411755967885256)
(X_740  -0.0029411755967885256)
(X_741  -0.0029411755967885256)
(X_742  -0.0029411755967885256)
(X_743  -0.0029411755967885256)
(X_744  0.08921568840742111)
(X_745  0.08921568840742111)
(X_746  -0.010784312151372433)
(X_747  -0.010784312151372433)
(X_748  0.08921568840742111)
(X_749  0.08921568840742111)
(X_750  0.08921568840742111)
(X_751  0.08921568840742111)
(X_752  0.08921568840742111)
(X_753  0.08921568840742111)
(X_754  0.08921568840742111)
(X_755  0.08921568840742111)
(X_756  0.08529412001371384)
(X_757  -0.014705880545079708)
(X_758  -0.014705880545079708)
(X_759  -0.014705880545079708)
(X_760  -0.014705880545079708)
(X_761  -0.014705880545079708)
(X_762  0.08529412001371384)
(X_763  0.08529412001371384)
(X_764  0.09313725680112839)
(X_765  0.09313725680112839)
(X_766  -0.006862743757665157)
(X_767  -0.006862743757665157)
(X_768  0.09313725680112839)
(X_769  -0.006862743757665157)
(X_770  -0.006862743757665157)
(X_771  -0.006862743757665157)
(X_772  -0.014705880545079708)
(X_773  -0.014705880545079708)
(X_774  -0.014705880545079708)
(X_775  -0.014705880545079708)
(X_776  -0.014705880545079708)
(X_777  -0.014705880545079708)
(X_778  -0.014705880545079708)
(X_779  -0.014705880545079708)
(X_780  -0.014705880545079708)
(X_781  -0.014705880545079708)
(X_782  -0.014705880545079708)
(X_783  -0.014705880545079708)
(Y_0 -11.07530689239502)
(Y_1 14.765420913696289)
(Y_2 -7.557803153991699)
(Y_3 4.960954666137695))