((X_0  1.0499999523162842)
(X_1  0.949999988079071)
(X_2  0.949999988079071)
(X_3  1.0499999523162842)
(X_4  1.0499999523162842)
(X_5  1.0499999523162842)
(X_6  0.949999988079071)
(X_7  0.949999988079071)
(X_8  1.0382353067398071)
(X_9  1.0382353067398071)
(X_10  1.0421568155288696)
(X_11  1.0499999523162842)
(X_12  1.0499999523162842)
(X_13  1.0499999523162842)
(X_14  1.0499999523162842)
(X_15  0.949999988079071)
(X_16  0.949999988079071)
(X_17  0.949999988079071)
(X_18  0.949999988079071)
(X_19  0.949999988079071)
(X_20  1.0499999523162842)
(X_21  1.0499999523162842)
(X_22  1.0499999523162842)
(X_23  0.949999988079071)
(X_24  1.034313678741455)
(X_25  1.0382353067398071)
(X_26  0.9421568512916565)
(X_27  1.0460784435272217)
(X_28  1.0460784435272217)
(X_29  1.0460784435272217)
(X_30  0.9421568512916565)
(X_31  0.9460784196853638)
(X_32  0.9460784196853638)
(X_33  0.949999988079071)
(X_34  0.949999988079071)
(X_35  1.0499999523162842)
(X_36  1.0499999523162842)
(X_37  1.0499999523162842)
(X_38  0.949999988079071)
(X_39  0.9460784196853638)
(X_40  0.9343137145042419)
(X_41  0.9264705777168274)
(X_42  1.018627405166626)
(X_43  0.9147058725357056)
(X_44  1.0421568155288696)
(X_45  0.9421568512916565)
(X_46  0.9421568512916565)
(X_47  0.9421568512916565)
(X_48  0.9382352828979492)
(X_49  0.9382352828979492)
(X_50  0.9343137145042419)
(X_51  0.9343137145042419)
(X_52  1.0499999523162842)
(X_53  1.0499999523162842)
(X_54  0.9421568512916565)
(X_55  1.0303921699523926)
(X_56  0.9754902124404907)
(X_57  0.8676470518112183)
(X_58  0.8558823466300964)
(X_59  0.8441176414489746)
(X_60  0.8323529362678528)
(X_61  0.8245097994804382)
(X_62  0.820588231086731)
(X_63  0.8166666626930237)
(X_64  0.865686297416687)
(X_65  0.7578431367874146)
(X_66  0.7460784316062927)
(X_67  0.8303921818733215)
(X_68  0.8147059082984924)
(X_69  0.6990196108818054)
(X_70  0.6833333373069763)
(X_71  0.679411768913269)
(X_72  0.6127451062202454)
(X_73  0.6009804010391235)
(X_74  0.5774509906768799)
(X_75  0.5460784435272217)
(X_76  0.6147059202194214)
(X_77  0.5872549414634705)
(X_78  0.5637255311012268)
(X_79  0.5480391979217529)
(X_80  0.4852941334247589)
(X_81  0.4735294282436371)
(X_82  0.3539215624332428)
(X_83  0.4382353127002716)
(X_84  0.33627453446388245)
(X_85  0.3284313976764679)
(X_86  0.31666669249534607)
(X_87  0.2970588207244873)
(X_88  0.2813725471496582)
(X_89  0.16960784792900085)
(X_90  0.2617647051811218)
(X_91  0.2539215683937073)
(X_92  0.22647058963775635)
(X_93  0.12254902720451355)
(X_94  0.114705890417099)
(X_95  0.10686275362968445)
(X_96  0.19509804248809814)
(X_97  0.1872549057006836)
(X_98  0.17941176891326904)
(X_99  0.17549020051956177)
(X_100  0.19117647409439087)
(X_101  0.1872549057006836)
(X_102  0.1872549057006836)
(X_103  0.17941176891326904)
(X_104  0.07549020648002625)
(X_105  0.07156863063573837)
(X_106  0.0676470622420311)
(X_107  0.06372549384832382)
(X_108  0.10294118523597717)
(X_109  0.0990196168422699)
(X_110  0.09117648005485535)
(X_111  0.18333333730697632)
(X_112  0.07941177487373352)
(X_113  0.17941176891326904)
(X_114  0.17549020051956177)
(X_115  0.17549020051956177)
(X_116  0.07549020648002625)
(X_117  0.07549020648002625)
(X_118  0.07941177487373352)
(X_119  0.07941177487373352)
(X_120  0.0833333432674408)
(X_121  0.0833333432674408)
(X_122  0.0833333432674408)
(X_123  0.0833333432674408)
(X_124  0.0833333432674408)
(X_125  0.0833333432674408)
(X_126  0.0833333432674408)
(X_127  0.0833333432674408)
(X_128  0.16764706373214722)
(X_129  0.1715686321258545)
(X_130  0.17549020051956177)
(X_131  0.1872549057006836)
(X_132  0.19509804248809814)
(X_133  0.2029411792755127)
(X_134  0.21078431606292725)
(X_135  0.21078431606292725)
(X_136  0.16764706373214722)
(X_137  0.07156863063573837)
(X_138  0.17549020051956177)
(X_139  0.18333333730697632)
(X_140  0.18333333730697632)
(X_141  0.17941176891326904)
(X_142  0.17941176891326904)
(X_143  0.17549020051956177)
(X_144  0.07941177487373352)
(X_145  0.07941177487373352)
(X_146  0.0833333432674408)
(X_147  0.1872549057006836)
(X_148  0.17941176891326904)
(X_149  0.17941176891326904)
(X_150  0.18333333730697632)
(X_151  0.0833333432674408)
(X_152  0.18333333730697632)
(X_153  0.18333333730697632)
(X_154  0.1872549057006836)
(X_155  0.1872549057006836)
(X_156  0.07156863063573837)
(X_157  0.1715686321258545)
(X_158  0.16764706373214722)
(X_159  0.16372549533843994)
(X_160  0.15980392694473267)
(X_161  0.0519607849419117)
(X_162  0.0519607849419117)
(X_163  0.14803922176361084)
(X_164  0.0676470622420311)
(X_165  0.07549020648002625)
(X_166  0.08725491166114807)
(X_167  0.19117647409439087)
(X_168  0.07941177487373352)
(X_169  0.17549020051956177)
(X_170  0.07156863063573837)
(X_171  0.16372549533843994)
(X_172  0.15980392694473267)
(X_173  0.05588235333561897)
(X_174  0.05588235333561897)
(X_175  0.05588235333561897)
(X_176  0.16372549533843994)
(X_177  0.16372549533843994)
(X_178  0.16372549533843994)
(X_179  0.06372549384832382)
(X_180  0.16372549533843994)
(X_181  0.0676470622420311)
(X_182  0.0676470622420311)
(X_183  0.0676470622420311)
(X_184  0.14411765336990356)
(X_185  0.15196079015731812)
(X_186  0.15980392694473267)
(X_187  0.1715686321258545)
(X_188  0.1872549057006836)
(X_189  0.0990196168422699)
(X_190  0.21078431606292725)
(X_191  0.21470588445663452)
(X_192  0.16372549533843994)
(X_193  0.16764706373214722)
(X_194  0.07549020648002625)
(X_195  0.07549020648002625)
(X_196  0.0676470622420311)
(X_197  0.16764706373214722)
(X_198  0.16764706373214722)
(X_199  0.0676470622420311)
(X_200  0.07549020648002625)
(X_201  0.07941177487373352)
(X_202  0.08725491166114807)
(X_203  0.09117648005485535)
(X_204  0.0676470622420311)
(X_205  0.0676470622420311)
(X_206  0.16764706373214722)
(X_207  0.1715686321258545)
(X_208  0.07549020648002625)
(X_209  0.07941177487373352)
(X_210  0.0833333432674408)
(X_211  0.18333333730697632)
(X_212  0.17549020051956177)
(X_213  0.17549020051956177)
(X_214  0.07156863063573837)
(X_215  0.0676470622420311)
(X_216  0.06372549384832382)
(X_217  0.05980392172932625)
(X_218  0.1558823585510254)
(X_219  0.1558823585510254)
(X_220  0.16372549533843994)
(X_221  0.06372549384832382)
(X_222  0.06372549384832382)
(X_223  0.16764706373214722)
(X_224  0.0519607849419117)
(X_225  0.06372549384832382)
(X_226  0.17549020051956177)
(X_227  0.1715686321258545)
(X_228  0.05980392172932625)
(X_229  0.0519607849419117)
(X_230  0.05980392172932625)
(X_231  0.07156863063573837)
(X_232  0.1558823585510254)
(X_233  0.06372549384832382)
(X_234  0.17549020051956177)
(X_235  0.17549020051956177)
(X_236  0.07156863063573837)
(X_237  0.06372549384832382)
(X_238  0.05588235333561897)
(X_239  0.05588235333561897)
(X_240  0.05588235333561897)
(X_241  0.05980392172932625)
(X_242  0.16372549533843994)
(X_243  0.15980392694473267)
(X_244  0.14803922176361084)
(X_245  0.14411765336990356)
(X_246  0.14803922176361084)
(X_247  0.1558823585510254)
(X_248  0.0833333432674408)
(X_249  0.17549020051956177)
(X_250  0.06372549384832382)
(X_251  0.1558823585510254)
(X_252  0.05588235333561897)
(X_253  0.036274511367082596)
(X_254  0.02450980618596077)
(X_255  0.13235294818878174)
(X_256  0.15196079015731812)
(X_257  0.16372549533843994)
(X_258  0.15196079015731812)
(X_259  0.13235294818878174)
(X_260  0.06372549384832382)
(X_261  0.06372549384832382)
(X_262  0.06372549384832382)
(X_263  0.15980392694473267)
(X_264  0.16372549533843994)
(X_265  0.17549020051956177)
(X_266  0.19117647409439087)
(X_267  0.2029411792755127)
(X_268  0.07156863063573837)
(X_269  0.1715686321258545)
(X_270  0.1715686321258545)
(X_271  0.0676470622420311)
(X_272  0.06372549384832382)
(X_273  0.15980392694473267)
(X_274  0.1558823585510254)
(X_275  0.05588235333561897)
(X_276  0.1715686321258545)
(X_277  0.07156863063573837)
(X_278  0.07156863063573837)
(X_279  0.07549020648002625)
(X_280  0.344117671251297)
(X_281  0.30098041892051697)
(X_282  0.14215686917304993)
(X_283  0.0990196168422699)
(X_284  0.0833333432674408)
(X_285  0.17549020051956177)
(X_286  0.16372549533843994)
(X_287  0.1558823585510254)
(X_288  0.06372549384832382)
(X_289  0.07156863063573837)
(X_290  0.07941177487373352)
(X_291  0.0833333432674408)
(X_292  0.07549020648002625)
(X_293  0.06372549384832382)
(X_294  0.04803921654820442)
(X_295  0.036274511367082596)
(X_296  0.17549020051956177)
(X_297  0.1715686321258545)
(X_298  0.0676470622420311)
(X_299  0.0676470622420311)
(X_300  0.1715686321258545)
(X_301  0.16764706373214722)
(X_302  0.15980392694473267)
(X_303  0.0519607849419117)
(X_304  0.05588235333561897)
(X_305  0.05980392172932625)
(X_306  0.05980392172932625)
(X_307  0.05980392172932625)
(X_308  0.5323529243469238)
(X_309  0.5127450823783875)
(X_310  0.3696078360080719)
(X_311  0.29901960492134094)
(X_312  0.21666668355464935)
(X_313  0.15000000596046448)
(X_314  0.114705890417099)
(X_315  0.10294118523597717)
(X_316  0.1401960849761963)
(X_317  0.1401960849761963)
(X_318  0.14411765336990356)
(X_319  0.15196079015731812)
(X_320  0.06372549384832382)
(X_321  0.0676470622420311)
(X_322  0.0676470622420311)
(X_323  0.0676470622420311)
(X_324  0.07156863063573837)
(X_325  0.0676470622420311)
(X_326  0.06372549384832382)
(X_327  0.0676470622420311)
(X_328  0.17549020051956177)
(X_329  0.17941176891326904)
(X_330  0.1715686321258545)
(X_331  0.15980392694473267)
(X_332  0.0676470622420311)
(X_333  0.07156863063573837)
(X_334  0.0833333432674408)
(X_335  0.09117648005485535)
(X_336  0.4107843339443207)
(X_337  0.41862747073173523)
(X_338  0.43039217591285706)
(X_339  0.4421568810939789)
(X_340  0.4382353127002716)
(X_341  0.41470590233802795)
(X_342  0.28333333134651184)
(X_343  0.2598039209842682)
(X_344  0.3088235557079315)
(X_345  0.2696078419685364)
(X_346  0.11078432202339172)
(X_347  0.06372549384832382)
(X_348  0.04803921654820442)
(X_349  0.04803921654820442)
(X_350  0.05588235333561897)
(X_351  0.16372549533843994)
(X_352  0.15980392694473267)
(X_353  0.1558823585510254)
(X_354  0.1558823585510254)
(X_355  0.05980392172932625)
(X_356  0.16764706373214722)
(X_357  0.17549020051956177)
(X_358  0.17941176891326904)
(X_359  0.17549020051956177)
(X_360  0.136274516582489)
(X_361  0.15196079015731812)
(X_362  0.0833333432674408)
(X_363  0.11078432202339172)
(X_364  0.37745097279548645)
(X_365  0.31078431010246277)
(X_366  0.24411766231060028)
(X_367  0.33627453446388245)
(X_368  0.38333335518836975)
(X_369  0.4264706075191498)
(X_370  0.3225490152835846)
(X_371  0.39901962876319885)
(X_372  0.3225490152835846)
(X_373  0.29509803652763367)
(X_374  0.35196080803871155)
(X_375  0.3088235557079315)
(X_376  0.16960784792900085)
(X_377  0.12254902720451355)
(X_378  0.07156863063573837)
(X_379  0.036274511367082596)
(X_380  0.15980392694473267)
(X_381  0.15980392694473267)
(X_382  0.15980392694473267)
(X_383  0.1558823585510254)
(X_384  0.05588235333561897)
(X_385  0.06372549384832382)
(X_386  0.0833333432674408)
(X_387  0.0990196168422699)
(X_388  0.2813725471496582)
(X_389  0.30098041892051697)
(X_390  0.22843138873577118)
(X_391  0.2598039209842682)
(X_392  0.7205882668495178)
(X_393  0.6421568989753723)
(X_394  0.5323529243469238)
(X_395  0.45000001788139343)
(X_396  0.4107843339443207)
(X_397  0.3911764919757843)
(X_398  0.3754902184009552)
(X_399  0.2558823525905609)
(X_400  0.26764705777168274)
(X_401  0.27156862616539)
(X_402  0.38333335518836975)
(X_403  0.40294119715690613)
(X_404  0.4068627655506134)
(X_405  0.27941176295280457)
(X_406  0.2245098203420639)
(X_407  0.2852941155433655)
(X_408  0.24607843160629272)
(X_409  0.2539215683937073)
(X_410  0.25)
(X_411  0.2343137264251709)
(X_412  0.21470588445663452)
(X_413  0.2186274528503418)
(X_414  0.25)
(X_415  0.2813725471496582)
(X_416  0.23235295712947845)
(X_417  0.24411766231060028)
(X_418  0.26764705777168274)
(X_419  0.2911764681339264)
(X_420  0.4990196228027344)
(X_421  0.5578431487083435)
(X_422  0.6127451062202454)
(X_423  0.6049019694328308)
(X_424  0.5460784435272217)
(X_425  0.4833333492279053)
(X_426  0.5598039627075195)
(X_427  0.5598039627075195)
(X_428  0.37745097279548645)
(X_429  0.34607842564582825)
(X_430  0.3029411733150482)
(X_431  0.28333333134651184)
(X_432  0.28333333134651184)
(X_433  0.38333335518836975)
(X_434  0.2754901945590973)
(X_435  0.26372548937797546)
(X_436  0.3715686500072479)
(X_437  0.38333335518836975)
(X_438  0.3794117867946625)
(X_439  0.3480392396450043)
(X_440  0.21666668355464935)
(X_441  0.22058825194835663)
(X_442  0.2598039209842682)
(X_443  0.29901960492134094)
(X_444  0.3578431308269501)
(X_445  0.37745097279548645)
(X_446  0.4009803831577301)
(X_447  0.5323529243469238)
(X_448  0.5715686678886414)
(X_449  0.6107843518257141)
(X_450  0.5029411911964417)
(X_451  0.4911764860153198)
(X_452  0.5343137383460999)
(X_453  0.5656862854957581)
(X_454  0.6813725829124451)
(X_455  0.7127451300621033)
(X_456  0.7637255191802979)
(X_457  0.6931372880935669)
(X_458  0.6186274886131287)
(X_459  0.595098078250885)
(X_460  0.6068627834320068)
(X_461  0.4911764860153198)
(X_462  0.42843136191368103)
(X_463  0.3656862676143646)
(X_464  0.4009803831577301)
(X_465  0.42450979351997375)
(X_466  0.45196080207824707)
(X_467  0.5676470994949341)
(X_468  0.5637255311012268)
(X_469  0.5637255311012268)
(X_470  0.5676470994949341)
(X_471  0.5754902362823486)
(X_472  0.5911765098571777)
(X_473  0.595098078250885)
(X_474  0.6068627834320068)
(X_475  0.6147059202194214)
(X_476  0.3735294044017792)
(X_477  0.4205882251262665)
(X_478  0.520588219165802)
(X_479  0.5127450823783875)
(X_480  0.4480392038822174)
(X_481  0.4598039388656616)
(X_482  0.45588237047195435)
(X_483  0.4754902124404907)
(X_484  0.5794118046760559)
(X_485  0.5676470994949341)
(X_486  0.5676470994949341)
(X_487  0.4911764860153198)
(X_488  0.5343137383460999)
(X_489  0.5696078538894653)
(X_490  0.5774509906768799)
(X_491  0.5735294222831726)
(X_492  0.5970588326454163)
(X_493  0.5578431487083435)
(X_494  0.6029412150382996)
(X_495  0.551960825920105)
(X_496  0.5127450823783875)
(X_497  0.48137256503105164)
(X_498  0.45000001788139343)
(X_499  0.3343137204647064)
(X_500  0.5009803771972656)
(X_501  0.4049019515514374)
(X_502  0.40882351994514465)
(X_503  0.4166666567325592)
(X_504  0.26372548937797546)
(X_505  0.41470590233802795)
(X_506  0.4264706075191498)
(X_507  0.4225490391254425)
(X_508  0.44607844948768616)
(X_509  0.3382352888584137)
(X_510  0.31470587849617004)
(X_511  0.3186274468898773)
(X_512  0.3656862676143646)
(X_513  0.3813725411891937)
(X_514  0.3892156779766083)
(X_515  0.37745097279548645)
(X_516  0.3539215624332428)
(X_517  0.34607842564582825)
(X_518  0.36176469922065735)
(X_519  0.37745097279548645)
(X_520  0.44019606709480286)
(X_521  0.3970588147640228)
(X_522  0.3539215624332428)
(X_523  0.34607842564582825)
(X_524  0.3696078360080719)
(X_525  0.48137256503105164)
(X_526  0.46568629145622253)
(X_527  0.4382353127002716)
(X_528  0.36176469922065735)
(X_529  0.36176469922065735)
(X_530  0.3578431308269501)
(X_531  0.3578431308269501)
(X_532  0.29313725233078003)
(X_533  0.3480392396450043)
(X_534  0.3558823764324188)
(X_535  0.35196080803871155)
(X_536  0.36764708161354065)
(X_537  0.2558823525905609)
(X_538  0.3245098292827606)
(X_539  0.3245098292827606)
(X_540  0.2598039209842682)
(X_541  0.2872548997402191)
(X_542  0.39901962876319885)
(X_543  0.3715686500072479)
(X_544  0.32058826088905334)
(X_545  0.19705882668495178)
(X_546  0.2088235467672348)
(X_547  0.23627452552318573)
(X_548  0.3401961028575897)
(X_549  0.3245098292827606)
(X_550  0.22843138873577118)
(X_551  0.3598039448261261)
(X_552  0.4068627655506134)
(X_553  0.4225490391254425)
(X_554  0.2911764681339264)
(X_555  0.25196078419685364)
(X_556  0.36764708161354065)
(X_557  0.3598039448261261)
(X_558  0.3480392396450043)
(X_559  0.240196093916893)
(X_560  0.24215686321258545)
(X_561  0.18921568989753723)
(X_562  0.18921568989753723)
(X_563  0.1774509847164154)
(X_564  0.19705882668495178)
(X_565  0.18921568989753723)
(X_566  0.16568627953529358)
(X_567  0.17352941632270813)
(X_568  0.16960784792900085)
(X_569  0.1931372582912445)
(X_570  0.3127451241016388)
(X_571  0.20098040997982025)
(X_572  0.17352941632270813)
(X_573  0.1617647111415863)
(X_574  0.1774509847164154)
(X_575  0.20098040997982025)
(X_576  0.15784314274787903)
(X_577  0.16568627953529358)
(X_578  0.18529412150382996)
(X_579  0.3127451241016388)
(X_580  0.33627453446388245)
(X_581  0.22843138873577118)
(X_582  0.19705882668495178)
(X_583  0.2656862735748291)
(X_584  0.18921568989753723)
(X_585  0.1774509847164154)
(X_586  0.1617647111415863)
(X_587  0.1460784375667572)
(X_588  0.18333333730697632)
(X_589  0.12647059559822083)
(X_590  0.11862745881080627)
(X_591  0.0990196168422699)
(X_592  0.11862745881080627)
(X_593  0.11862745881080627)
(X_594  0.20686274766921997)
(X_595  0.22254902124404907)
(X_596  0.2343137264251709)
(X_597  0.24215686321258545)
(X_598  0.1460784375667572)
(X_599  0.1303921639919281)
(X_600  0.10686275362968445)
(X_601  0.08725491166114807)
(X_602  0.08725491166114807)
(X_603  0.09117648005485535)
(X_604  0.17941176891326904)
(X_605  0.19117647409439087)
(X_606  0.21078431606292725)
(X_607  0.23823529481887817)
(X_608  0.25784313678741455)
(X_609  0.2696078419685364)
(X_610  0.27352941036224365)
(X_611  0.27352941036224365)
(X_612  0.15784314274787903)
(X_613  0.15000000596046448)
(X_614  0.2343137264251709)
(X_615  0.2186274528503418)
(X_616  0.1401960849761963)
(X_617  0.17941176891326904)
(X_618  0.0676470622420311)
(X_619  0.04803921654820442)
(X_620  0.06372549384832382)
(X_621  0.16764706373214722)
(X_622  0.1558823585510254)
(X_623  0.17549020051956177)
(X_624  0.1715686321258545)
(X_625  0.1872549057006836)
(X_626  0.19901961088180542)
(X_627  0.19901961088180542)
(X_628  0.08725491166114807)
(X_629  0.0833333432674408)
(X_630  0.08725491166114807)
(X_631  0.19509804248809814)
(X_632  0.07549020648002625)
(X_633  0.07549020648002625)
(X_634  0.07549020648002625)
(X_635  0.07941177487373352)
(X_636  0.1872549057006836)
(X_637  0.19509804248809814)
(X_638  0.19509804248809814)
(X_639  0.19509804248809814)
(X_640  0.18333333730697632)
(X_641  0.17941176891326904)
(X_642  0.1715686321258545)
(X_643  0.16372549533843994)
(X_644  0.12450980395078659)
(X_645  0.0676470622420311)
(X_646  0.1558823585510254)
(X_647  0.13235294818878174)
(X_648  0.14803922176361084)
(X_649  0.14803922176361084)
(X_650  0.136274516582489)
(X_651  0.14803922176361084)
(X_652  0.12843137979507446)
(X_653  0.04803921654820442)
(X_654  0.06372549384832382)
(X_655  0.05980392172932625)
(X_656  0.04019607976078987)
(X_657  0.028431374579668045)
(X_658  0.036274511367082596)
(X_659  0.04803921654820442)
(X_660  0.14803922176361084)
(X_661  0.1401960849761963)
(X_662  0.14411765336990356)
(X_663  0.15980392694473267)
(X_664  0.07941177487373352)
(X_665  0.1872549057006836)
(X_666  0.1715686321258545)
(X_667  0.05588235333561897)
(X_668  0.05980392172932625)
(X_669  0.05980392172932625)
(X_670  0.05588235333561897)
(X_671  0.05588235333561897)
(X_672  0.1401960849761963)
(X_673  0.04019607976078987)
(X_674  0.04019607976078987)
(X_675  0.036274511367082596)
(X_676  0.036274511367082596)
(X_677  0.136274516582489)
(X_678  0.13235294818878174)
(X_679  0.03235294297337532)
(X_680  0.03235294297337532)
(X_681  0.13235294818878174)
(X_682  0.13235294818878174)
(X_683  0.13235294818878174)
(X_684  0.13235294818878174)
(X_685  0.03235294297337532)
(X_686  0.03235294297337532)
(X_687  0.03235294297337532)
(X_688  0.13235294818878174)
(X_689  0.13235294818878174)
(X_690  0.036274511367082596)
(X_691  0.04019607976078987)
(X_692  0.14411765336990356)
(X_693  0.14803922176361084)
(X_694  0.04803921654820442)
(X_695  0.15196079015731812)
(X_696  0.136274516582489)
(X_697  0.136274516582489)
(X_698  0.136274516582489)
(X_699  0.136274516582489)
(X_700  0.136274516582489)
(X_701  0.036274511367082596)
(X_702  0.136274516582489)
(X_703  0.13235294818878174)
(X_704  0.13235294818878174)
(X_705  0.03235294297337532)
(X_706  0.028431374579668045)
(X_707  0.028431374579668045)
(X_708  0.028431374579668045)
(X_709  0.028431374579668045)
(X_710  0.12843137979507446)
(X_711  0.12843137979507446)
(X_712  0.12843137979507446)
(X_713  0.028431374579668045)
(X_714  0.028431374579668045)
(X_715  0.028431374579668045)
(X_716  0.12450980395078659)
(X_717  0.12450980395078659)
(X_718  0.028431374579668045)
(X_719  0.03235294297337532)
(X_720  0.03235294297337532)
(X_721  0.036274511367082596)
(X_722  0.04019607976078987)
(X_723  0.1401960849761963)
(X_724  0.12843137979507446)
(X_725  0.12843137979507446)
(X_726  0.12843137979507446)
(X_727  0.12843137979507446)
(X_728  0.13235294818878174)
(X_729  0.03235294297337532)
(X_730  0.12843137979507446)
(X_731  0.12843137979507446)
(X_732  0.12843137979507446)
(X_733  0.12450980395078659)
(X_734  0.12450980395078659)
(X_735  0.12450980395078659)
(X_736  0.12450980395078659)
(X_737  0.12450980395078659)
(X_738  0.02450980618596077)
(X_739  0.02450980618596077)
(X_740  0.02450980618596077)
(X_741  0.02450980618596077)
(X_742  0.02450980618596077)
(X_743  0.02450980618596077)
(X_744  0.01666666939854622)
(X_745  0.01666666939854622)
(X_746  0.01666666939854622)
(X_747  0.020588237792253494)
(X_748  0.02450980618596077)
(X_749  0.028431374579668045)
(X_750  0.028431374579668045)
(X_751  0.028431374579668045)
(X_752  0.12058823555707932)
(X_753  0.12058823555707932)
(X_754  0.12058823555707932)
(X_755  0.12058823555707932)
(X_756  0.12450980395078659)
(X_757  0.02450980618596077)
(X_758  0.02450980618596077)
(X_759  0.12058823555707932)
(X_760  0.020588237792253494)
(X_761  0.020588237792253494)
(X_762  0.11666666716337204)
(X_763  0.11666666716337204)
(X_764  0.12058823555707932)
(X_765  0.12058823555707932)
(X_766  0.12058823555707932)
(X_767  0.020588237792253494)
(X_768  0.020588237792253494)
(X_769  0.020588237792253494)
(X_770  0.020588237792253494)
(X_771  0.020588237792253494)
(X_772  0.012745101936161518)
(X_773  0.012745101936161518)
(X_774  0.01666666939854622)
(X_775  0.01666666939854622)
(X_776  0.12058823555707932)
(X_777  0.12058823555707932)
(X_778  0.12450980395078659)
(X_779  0.12450980395078659)
(X_780  0.01666666939854622)
(X_781  0.01666666939854622)
(X_782  0.01666666939854622)
(X_783  0.01666666939854622)
(Y_0 -18.892684936523438)
(Y_1 9.864543914794922)
(Y_2 -14.312806129455566)
(Y_3 23.351850509643555))