((X_0  1.0499999523162842)
(X_1  0.949999988079071)
(X_2  0.949999988079071)
(X_3  0.949999988079071)
(X_4  0.9421568512916565)
(X_5  0.9421568512916565)
(X_6  1.0382353067398071)
(X_7  1.0382353067398071)
(X_8  1.0499999523162842)
(X_9  1.0499999523162842)
(X_10  1.0460784435272217)
(X_11  1.0421568155288696)
(X_12  1.0382353067398071)
(X_13  0.9382352828979492)
(X_14  0.9421568512916565)
(X_15  0.9421568512916565)
(X_16  1.0499999523162842)
(X_17  0.949999988079071)
(X_18  0.9421568512916565)
(X_19  1.0382353067398071)
(X_20  1.034313678741455)
(X_21  1.0382353067398071)
(X_22  1.0421568155288696)
(X_23  1.0460784435272217)
(X_24  0.9421568512916565)
(X_25  0.9382352828979492)
(X_26  0.9303921461105347)
(X_27  0.9264705777168274)
(X_28  0.6343137621879578)
(X_29  0.6303921937942505)
(X_30  0.6225490570068359)
(X_31  0.6186274886131287)
(X_32  0.5107843279838562)
(X_33  0.5107843279838562)
(X_34  0.5068627595901489)
(X_35  0.5068627595901489)
(X_36  0.48725491762161255)
(X_37  0.5794118046760559)
(X_38  0.5715686678886414)
(X_39  0.5598039627075195)
(X_40  0.551960825920105)
(X_41  0.5480391979217529)
(X_42  0.5480391979217529)
(X_43  0.5480391979217529)
(X_44  0.5441176295280457)
(X_45  0.44019606709480286)
(X_46  0.4323529303073883)
(X_47  0.42450979351997375)
(X_48  0.4166666567325592)
(X_49  0.4166666567325592)
(X_50  0.4166666567325592)
(X_51  0.4166666567325592)
(X_52  0.5127450823783875)
(X_53  0.5088235139846802)
(X_54  0.3970588147640228)
(X_55  0.3892156779766083)
(X_56  0.19901961088180542)
(X_57  0.09509804844856262)
(X_58  0.08725491166114807)
(X_59  0.0833333432674408)
(X_60  0.17941176891326904)
(X_61  0.17549020051956177)
(X_62  0.17549020051956177)
(X_63  0.07549020648002625)
(X_64  0.10686275362968445)
(X_65  0.10294118523597717)
(X_66  0.19509804248809814)
(X_67  0.1872549057006836)
(X_68  0.18333333730697632)
(X_69  0.17941176891326904)
(X_70  0.17941176891326904)
(X_71  0.17941176891326904)
(X_72  0.20686274766921997)
(X_73  0.2029411792755127)
(X_74  0.0990196168422699)
(X_75  0.09509804844856262)
(X_76  0.09117648005485535)
(X_77  0.19117647409439087)
(X_78  0.19117647409439087)
(X_79  0.19117647409439087)
(X_80  0.19901961088180542)
(X_81  0.19509804248809814)
(X_82  0.19117647409439087)
(X_83  0.0833333432674408)
(X_84  0.114705890417099)
(X_85  0.11078432202339172)
(X_86  0.10686275362968445)
(X_87  0.10294118523597717)
(X_88  0.19901961088180542)
(X_89  0.19509804248809814)
(X_90  0.19509804248809814)
(X_91  0.19509804248809814)
(X_92  0.20686274766921997)
(X_93  0.20686274766921997)
(X_94  0.20686274766921997)
(X_95  0.11078432202339172)
(X_96  0.114705890417099)
(X_97  0.11862745881080627)
(X_98  0.12254902720451355)
(X_99  0.12254902720451355)
(X_100  0.07549020648002625)
(X_101  0.07549020648002625)
(X_102  0.07941177487373352)
(X_103  0.18333333730697632)
(X_104  0.1872549057006836)
(X_105  0.19509804248809814)
(X_106  0.0990196168422699)
(X_107  0.2029411792755127)
(X_108  0.0990196168422699)
(X_109  0.0990196168422699)
(X_110  0.10294118523597717)
(X_111  0.10686275362968445)
(X_112  0.1872549057006836)
(X_113  0.18333333730697632)
(X_114  0.17941176891326904)
(X_115  0.1715686321258545)
(X_116  0.1715686321258545)
(X_117  0.07156863063573837)
(X_118  0.07156863063573837)
(X_119  0.07156863063573837)
(X_120  0.0519607849419117)
(X_121  0.0519607849419117)
(X_122  0.05588235333561897)
(X_123  0.05980392172932625)
(X_124  0.06372549384832382)
(X_125  0.0676470622420311)
(X_126  0.07156863063573837)
(X_127  0.07156863063573837)
(X_128  0.16372549533843994)
(X_129  0.16764706373214722)
(X_130  0.07156863063573837)
(X_131  0.07941177487373352)
(X_132  0.0833333432674408)
(X_133  0.09117648005485535)
(X_134  0.09117648005485535)
(X_135  0.09509804844856262)
(X_136  0.17941176891326904)
(X_137  0.17941176891326904)
(X_138  0.1872549057006836)
(X_139  0.09117648005485535)
(X_140  0.17941176891326904)
(X_141  0.07549020648002625)
(X_142  0.07156863063573837)
(X_143  0.0676470622420311)
(X_144  0.16764706373214722)
(X_145  0.16764706373214722)
(X_146  0.16764706373214722)
(X_147  0.07156863063573837)
(X_148  0.18333333730697632)
(X_149  0.0833333432674408)
(X_150  0.08725491166114807)
(X_151  0.1872549057006836)
(X_152  0.18333333730697632)
(X_153  0.17941176891326904)
(X_154  0.07549020648002625)
(X_155  0.1715686321258545)
(X_156  0.16372549533843994)
(X_157  0.16764706373214722)
(X_158  0.16764706373214722)
(X_159  0.07156863063573837)
(X_160  0.16764706373214722)
(X_161  0.16764706373214722)
(X_162  0.16372549533843994)
(X_163  0.15980392694473267)
(X_164  0.15980392694473267)
(X_165  0.16372549533843994)
(X_166  0.16372549533843994)
(X_167  0.16764706373214722)
(X_168  0.16372549533843994)
(X_169  0.16372549533843994)
(X_170  0.05980392172932625)
(X_171  0.05588235333561897)
(X_172  0.05588235333561897)
(X_173  0.1558823585510254)
(X_174  0.1558823585510254)
(X_175  0.1558823585510254)
(X_176  0.0519607849419117)
(X_177  0.05588235333561897)
(X_178  0.05588235333561897)
(X_179  0.1558823585510254)
(X_180  0.15196079015731812)
(X_181  0.14411765336990356)
(X_182  0.1401960849761963)
(X_183  0.136274516582489)
(X_184  0.07941177487373352)
(X_185  0.07941177487373352)
(X_186  0.0833333432674408)
(X_187  0.0833333432674408)
(X_188  0.0833333432674408)
(X_189  0.07941177487373352)
(X_190  0.07156863063573837)
(X_191  0.16764706373214722)
(X_192  0.17549020051956177)
(X_193  0.17941176891326904)
(X_194  0.17941176891326904)
(X_195  0.18333333730697632)
(X_196  0.16764706373214722)
(X_197  0.16764706373214722)
(X_198  0.16372549533843994)
(X_199  0.15980392694473267)
(X_200  0.15980392694473267)
(X_201  0.05980392172932625)
(X_202  0.05980392172932625)
(X_203  0.06372549384832382)
(X_204  0.04803921654820442)
(X_205  0.0519607849419117)
(X_206  0.05588235333561897)
(X_207  0.05980392172932625)
(X_208  0.06372549384832382)
(X_209  0.05980392172932625)
(X_210  0.05588235333561897)
(X_211  0.0519607849419117)
(X_212  0.136274516582489)
(X_213  0.1401960849761963)
(X_214  0.14803922176361084)
(X_215  0.1558823585510254)
(X_216  0.05980392172932625)
(X_217  0.05588235333561897)
(X_218  0.0519607849419117)
(X_219  0.0519607849419117)
(X_220  0.13235294818878174)
(X_221  0.136274516582489)
(X_222  0.04411764815449715)
(X_223  0.0519607849419117)
(X_224  0.0519607849419117)
(X_225  0.05980392172932625)
(X_226  0.05588235333561897)
(X_227  0.05588235333561897)
(X_228  0.0676470622420311)
(X_229  0.0833333432674408)
(X_230  0.07156863063573837)
(X_231  0.04803921654820442)
(X_232  0.15980392694473267)
(X_233  0.15980392694473267)
(X_234  0.15980392694473267)
(X_235  0.15196079015731812)
(X_236  0.15196079015731812)
(X_237  0.15196079015731812)
(X_238  0.15980392694473267)
(X_239  0.16372549533843994)
(X_240  0.06372549384832382)
(X_241  0.06372549384832382)
(X_242  0.06372549384832382)
(X_243  0.06372549384832382)
(X_244  0.15980392694473267)
(X_245  0.1558823585510254)
(X_246  0.15196079015731812)
(X_247  0.14803922176361084)
(X_248  0.05588235333561897)
(X_249  0.05588235333561897)
(X_250  0.0519607849419117)
(X_251  0.14803922176361084)
(X_252  0.19901961088180542)
(X_253  0.19117647409439087)
(X_254  0.16764706373214722)
(X_255  0.14803922176361084)
(X_256  0.15196079015731812)
(X_257  0.1715686321258545)
(X_258  0.17549020051956177)
(X_259  0.06372549384832382)
(X_260  0.1558823585510254)
(X_261  0.0519607849419117)
(X_262  0.0519607849419117)
(X_263  0.15980392694473267)
(X_264  0.17549020051956177)
(X_265  0.17549020051956177)
(X_266  0.1558823585510254)
(X_267  0.1401960849761963)
(X_268  0.05980392172932625)
(X_269  0.05980392172932625)
(X_270  0.06372549384832382)
(X_271  0.06372549384832382)
(X_272  0.07156863063573837)
(X_273  0.07941177487373352)
(X_274  0.08725491166114807)
(X_275  0.09117648005485535)
(X_276  0.0519607849419117)
(X_277  0.0519607849419117)
(X_278  0.15196079015731812)
(X_279  0.15196079015731812)
(X_280  0.2872548997402191)
(X_281  0.26764705777168274)
(X_282  0.22058825194835663)
(X_283  0.15784314274787903)
(X_284  0.11862745881080627)
(X_285  0.19901961088180542)
(X_286  0.1715686321258545)
(X_287  0.04411764815449715)
(X_288  0.07156863063573837)
(X_289  0.0519607849419117)
(X_290  0.036274511367082596)
(X_291  0.14803922176361084)
(X_292  0.17549020051956177)
(X_293  0.08725491166114807)
(X_294  0.07941177487373352)
(X_295  0.06372549384832382)
(X_296  0.1872549057006836)
(X_297  0.17941176891326904)
(X_298  0.16372549533843994)
(X_299  0.0519607849419117)
(X_300  0.036274511367082596)
(X_301  0.028431374579668045)
(X_302  0.020588237792253494)
(X_303  0.12058823555707932)
(X_304  0.14803922176361084)
(X_305  0.0519607849419117)
(X_306  0.0519607849419117)
(X_307  0.05588235333561897)
(X_308  0.45588237047195435)
(X_309  0.4637255072593689)
(X_310  0.45196080207824707)
(X_311  0.4166666567325592)
(X_312  0.385294109582901)
(X_313  0.3539215624332428)
(X_314  0.31470587849617004)
(X_315  0.27941176295280457)
(X_316  0.17352941632270813)
(X_317  0.1303921639919281)
(X_318  0.07156863063573837)
(X_319  0.028431374579668045)
(X_320  0.11274509876966476)
(X_321  0.11666666716337204)
(X_322  0.12058823555707932)
(X_323  0.12058823555707932)
(X_324  0.012745101936161518)
(X_325  0.020588237792253494)
(X_326  0.1401960849761963)
(X_327  0.15980392694473267)
(X_328  0.07941177487373352)
(X_329  0.09117648005485535)
(X_330  0.0990196168422699)
(X_331  0.10294118523597717)
(X_332  0.2186274528503418)
(X_333  0.22254902124404907)
(X_334  0.12254902720451355)
(X_335  0.22647058963775635)
(X_336  0.2598039209842682)
(X_337  0.2911764681339264)
(X_338  0.32647058367729187)
(X_339  0.44607844948768616)
(X_340  0.46568629145622253)
(X_341  0.4852941334247589)
(X_342  0.385294109582901)
(X_343  0.3735294044017792)
(X_344  0.4852941334247589)
(X_345  0.4539215862751007)
(X_346  0.3911764919757843)
(X_347  0.3127451241016388)
(X_348  0.24607843160629272)
(X_349  0.21078431606292725)
(X_350  0.21470588445663452)
(X_351  0.22647058963775635)
(X_352  0.16568627953529358)
(X_353  0.18529412150382996)
(X_354  0.22058825194835663)
(X_355  0.2598039209842682)
(X_356  0.28333333134651184)
(X_357  0.29901960492134094)
(X_358  0.29901960492134094)
(X_359  0.29901960492134094)
(X_360  0.3970588147640228)
(X_361  0.39313724637031555)
(X_362  0.49313727021217346)
(X_363  0.49313727021217346)
(X_364  0.22843138873577118)
(X_365  0.24803923070430756)
(X_366  0.2558823525905609)
(X_367  0.24803923070430756)
(X_368  0.3480392396450043)
(X_369  0.3637255132198334)
(X_370  0.27156862616539)
(X_371  0.36764708161354065)
(X_372  0.29509803652763367)
(X_373  0.3029411733150482)
(X_374  0.29901960492134094)
(X_375  0.27156862616539)
(X_376  0.33235296607017517)
(X_377  0.31666669249534607)
(X_378  0.3284313976764679)
(X_379  0.24803923070430756)
(X_380  0.4107843339443207)
(X_381  0.32647058367729187)
(X_382  0.34607842564582825)
(X_383  0.36176469922065735)
(X_384  0.3656862676143646)
(X_385  0.3539215624332428)
(X_386  0.3382352888584137)
(X_387  0.32647058367729187)
(X_388  0.45000001788139343)
(X_389  0.44607844948768616)
(X_390  0.44607844948768616)
(X_391  0.4382353127002716)
(X_392  0.33039215207099915)
(X_393  0.34607842564582825)
(X_394  0.4382353127002716)
(X_395  0.40294119715690613)
(X_396  0.3715686500072479)
(X_397  0.2558823525905609)
(X_398  0.3401961028575897)
(X_399  0.3284313976764679)
(X_400  0.2852941155433655)
(X_401  0.2970588207244873)
(X_402  0.3088235557079315)
(X_403  0.2088235467672348)
(X_404  0.20098040997982025)
(X_405  0.20098040997982025)
(X_406  0.3127451241016388)
(X_407  0.3284313976764679)
(X_408  0.3245098292827606)
(X_409  0.23627452552318573)
(X_410  0.2558823525905609)
(X_411  0.27156862616539)
(X_412  0.28333333134651184)
(X_413  0.3911764919757843)
(X_414  0.387254923582077)
(X_415  0.387254923582077)
(X_416  0.28333333134651184)
(X_417  0.3794117867946625)
(X_418  0.3754902184009552)
(X_419  0.3715686500072479)
(X_420  0.4637255072593689)
(X_421  0.5068627595901489)
(X_422  0.550000011920929)
(X_423  0.665686309337616)
(X_424  0.6696078777313232)
(X_425  0.6735294461250305)
(X_426  0.5656862854957581)
(X_427  0.550000011920929)
(X_428  0.5578431487083435)
(X_429  0.6303921937942505)
(X_430  0.5833333730697632)
(X_431  0.5362744927406311)
(X_432  0.49705883860588074)
(X_433  0.46568629145622253)
(X_434  0.45000001788139343)
(X_435  0.4421568810939789)
(X_436  0.34607842564582825)
(X_437  0.34215685725212097)
(X_438  0.33039215207099915)
(X_439  0.3225490152835846)
(X_440  0.31078431010246277)
(X_441  0.3029411733150482)
(X_442  0.29901960492134094)
(X_443  0.29509803652763367)
(X_444  0.40294119715690613)
(X_445  0.40294119715690613)
(X_446  0.39901962876319885)
(X_447  0.39901962876319885)
(X_448  0.26764705777168274)
(X_449  0.3558823764324188)
(X_450  0.36764708161354065)
(X_451  0.40294119715690613)
(X_452  0.4264706075191498)
(X_453  0.43431374430656433)
(X_454  0.457843154668808)
(X_455  0.385294109582901)
(X_456  0.44411763548851013)
(X_457  0.45588237047195435)
(X_458  0.5715686678886414)
(X_459  0.5872549414634705)
(X_460  0.6029412150382996)
(X_461  0.6264706254005432)
(X_462  0.6539216041564941)
(X_463  0.6696078777313232)
(X_464  0.6931372880935669)
(X_465  0.6735294461250305)
(X_466  0.550000011920929)
(X_467  0.5382353067398071)
(X_468  0.5382353067398071)
(X_469  0.5382353067398071)
(X_470  0.5343137383460999)
(X_471  0.5303921699523926)
(X_472  0.550000011920929)
(X_473  0.5460784435272217)
(X_474  0.5421568751335144)
(X_475  0.5382353067398071)
(X_476  0.1774509847164154)
(X_477  0.1617647111415863)
(X_478  0.1617647111415863)
(X_479  0.18137255311012268)
(X_480  0.18921568989753723)
(X_481  0.18137255311012268)
(X_482  0.1931372582912445)
(X_483  0.21274511516094208)
(X_484  0.22843138873577118)
(X_485  0.23235295712947845)
(X_486  0.240196093916893)
(X_487  0.3401961028575897)
(X_488  0.3401961028575897)
(X_489  0.3480392396450043)
(X_490  0.3598039448261261)
(X_491  0.3715686500072479)
(X_492  0.3911764919757843)
(X_493  0.3794117867946625)
(X_494  0.26764705777168274)
(X_495  0.36764708161354065)
(X_496  0.38333335518836975)
(X_497  0.39901962876319885)
(X_498  0.4068627655506134)
(X_499  0.4068627655506134)
(X_500  0.2598039209842682)
(X_501  0.26372548937797546)
(X_502  0.26372548937797546)
(X_503  0.26764705777168274)
(X_504  0.13823530077934265)
(X_505  0.22254902124404907)
(X_506  0.2186274528503418)
(X_507  0.22254902124404907)
(X_508  0.2186274528503418)
(X_509  0.10294118523597717)
(X_510  0.10294118523597717)
(X_511  0.114705890417099)
(X_512  0.25784313678741455)
(X_513  0.1617647111415863)
(X_514  0.15784314274787903)
(X_515  0.15000000596046448)
(X_516  0.23823529481887817)
(X_517  0.2343137264251709)
(X_518  0.23823529481887817)
(X_519  0.24215686321258545)
(X_520  0.2539215683937073)
(X_521  0.25)
(X_522  0.25)
(X_523  0.1617647111415863)
(X_524  0.18529412150382996)
(X_525  0.20490197837352753)
(X_526  0.21666668355464935)
(X_527  0.22058825194835663)
(X_528  0.2088235467672348)
(X_529  0.2088235467672348)
(X_530  0.21274511516094208)
(X_531  0.22058825194835663)
(X_532  0.11862745881080627)
(X_533  0.114705890417099)
(X_534  0.11078432202339172)
(X_535  0.114705890417099)
(X_536  0.114705890417099)
(X_537  0.11078432202339172)
(X_538  0.11078432202339172)
(X_539  0.114705890417099)
(X_540  0.12254902720451355)
(X_541  0.12647059559822083)
(X_542  0.1303921639919281)
(X_543  0.22647058963775635)
(X_544  0.2186274528503418)
(X_545  0.114705890417099)
(X_546  0.11862745881080627)
(X_547  0.22647058963775635)
(X_548  0.23039215803146362)
(X_549  0.23039215803146362)
(X_550  0.1303921639919281)
(X_551  0.13823530077934265)
(X_552  0.15000000596046448)
(X_553  0.15784314274787903)
(X_554  0.16568627953529358)
(X_555  0.2656862735748291)
(X_556  0.13431373238563538)
(X_557  0.2343137264251709)
(X_558  0.13431373238563538)
(X_559  0.1303921639919281)
(X_560  0.05980392172932625)
(X_561  0.06372549384832382)
(X_562  0.0676470622420311)
(X_563  0.1715686321258545)
(X_564  0.17549020051956177)
(X_565  0.07941177487373352)
(X_566  0.0833333432674408)
(X_567  0.07941177487373352)
(X_568  0.16764706373214722)
(X_569  0.07549020648002625)
(X_570  0.0833333432674408)
(X_571  0.0833333432674408)
(X_572  0.0833333432674408)
(X_573  0.0833333432674408)
(X_574  0.08725491166114807)
(X_575  0.09509804844856262)
(X_576  0.19509804248809814)
(X_577  0.19901961088180542)
(X_578  0.0990196168422699)
(X_579  0.0990196168422699)
(X_580  0.0990196168422699)
(X_581  0.09509804844856262)
(X_582  0.09509804844856262)
(X_583  0.09509804844856262)
(X_584  0.10686275362968445)
(X_585  0.20686274766921997)
(X_586  0.10294118523597717)
(X_587  0.19901961088180542)
(X_588  0.12843137979507446)
(X_589  0.1401960849761963)
(X_590  0.14411765336990356)
(X_591  0.036274511367082596)
(X_592  0.036274511367082596)
(X_593  0.04803921654820442)
(X_594  0.04411764815449715)
(X_595  0.03235294297337532)
(X_596  0.0519607849419117)
(X_597  0.05980392172932625)
(X_598  0.16764706373214722)
(X_599  0.16764706373214722)
(X_600  0.16372549533843994)
(X_601  0.15980392694473267)
(X_602  0.16372549533843994)
(X_603  0.16764706373214722)
(X_604  0.06372549384832382)
(X_605  0.07549020648002625)
(X_606  0.18333333730697632)
(X_607  0.18333333730697632)
(X_608  0.17549020051956177)
(X_609  0.16764706373214722)
(X_610  0.0676470622420311)
(X_611  0.16764706373214722)
(X_612  0.13235294818878174)
(X_613  0.13235294818878174)
(X_614  0.13235294818878174)
(X_615  0.13235294818878174)
(X_616  0.02450980618596077)
(X_617  0.14411765336990356)
(X_618  0.14411765336990356)
(X_619  0.13235294818878174)
(X_620  0.12843137979507446)
(X_621  0.04019607976078987)
(X_622  0.03235294297337532)
(X_623  0.01666666939854622)
(X_624  0.11666666716337204)
(X_625  0.12450980395078659)
(X_626  0.13235294818878174)
(X_627  0.12843137979507446)
(X_628  0.12058823555707932)
(X_629  0.11274509876966476)
(X_630  0.11274509876966476)
(X_631  0.11666666716337204)
(X_632  0.11274509876966476)
(X_633  0.12843137979507446)
(X_634  0.14411765336990356)
(X_635  0.14411765336990356)
(X_636  0.136274516582489)
(X_637  0.02450980618596077)
(X_638  0.12058823555707932)
(X_639  0.12450980395078659)
(X_640  0.1401960849761963)
(X_641  0.14411765336990356)
(X_642  0.04411764815449715)
(X_643  0.04803921654820442)
(X_644  0.10490196198225021)
(X_645  0.12450980395078659)
(X_646  0.028431374579668045)
(X_647  0.01666666939854622)
(X_648  0.012745101936161518)
(X_649  0.02450980618596077)
(X_650  0.12058823555707932)
(X_651  -0.0029411755967885256)
(X_652  0.008823529817163944)
(X_653  0.020588237792253494)
(X_654  0.028431374579668045)
(X_655  0.028431374579668045)
(X_656  0.12058823555707932)
(X_657  0.11274509876966476)
(X_658  0.11274509876966476)
(X_659  0.11274509876966476)
(X_660  0.11274509876966476)
(X_661  0.12843137979507446)
(X_662  0.04411764815449715)
(X_663  0.04411764815449715)
(X_664  0.03235294297337532)
(X_665  0.01666666939854622)
(X_666  0.012745101936161518)
(X_667  0.012745101936161518)
(X_668  0.02450980618596077)
(X_669  0.02450980618596077)
(X_670  0.02450980618596077)
(X_671  0.12450980395078659)
(X_672  0.012745101936161518)
(X_673  0.12058823555707932)
(X_674  0.12843137979507446)
(X_675  0.12843137979507446)
(X_676  0.12058823555707932)
(X_677  0.11274509876966476)
(X_678  0.10882353037595749)
(X_679  0.10882353037595749)
(X_680  0.11274509876966476)
(X_681  0.11666666716337204)
(X_682  0.12058823555707932)
(X_683  0.020588237792253494)
(X_684  0.020588237792253494)
(X_685  0.020588237792253494)
(X_686  0.11666666716337204)
(X_687  0.11274509876966476)
(X_688  0.12450980395078659)
(X_689  0.12450980395078659)
(X_690  0.12058823555707932)
(X_691  0.11666666716337204)
(X_692  0.11274509876966476)
(X_693  0.11274509876966476)
(X_694  0.11274509876966476)
(X_695  0.11666666716337204)
(X_696  0.10882353037595749)
(X_697  0.012745101936161518)
(X_698  0.01666666939854622)
(X_699  0.020588237792253494)
(X_700  0.008823529817163944)
(X_701  0.11666666716337204)
(X_702  0.12450980395078659)
(X_703  0.12450980395078659)
(X_704  0.11666666716337204)
(X_705  0.10882353037595749)
(X_706  0.004901961423456669)
(X_707  0.008823529817163944)
(X_708  0.012745101936161518)
(X_709  0.012745101936161518)
(X_710  0.012745101936161518)
(X_711  0.01666666939854622)
(X_712  0.01666666939854622)
(X_713  0.012745101936161518)
(X_714  0.012745101936161518)
(X_715  0.11274509876966476)
(X_716  0.020588237792253494)
(X_717  0.020588237792253494)
(X_718  0.01666666939854622)
(X_719  0.012745101936161518)
(X_720  0.008823529817163944)
(X_721  0.008823529817163944)
(X_722  0.012745101936161518)
(X_723  0.012745101936161518)
(X_724  0.008823529817163944)
(X_725  0.012745101936161518)
(X_726  0.01666666939854622)
(X_727  0.01666666939854622)
(X_728  0.10490196198225021)
(X_729  0.11274509876966476)
(X_730  0.11666666716337204)
(X_731  0.11666666716337204)
(X_732  0.10882353037595749)
(X_733  0.10490196198225021)
(X_734  0.10490196198225021)
(X_735  0.10882353037595749)
(X_736  0.008823529817163944)
(X_737  0.008823529817163944)
(X_738  0.008823529817163944)
(X_739  0.008823529817163944)
(X_740  0.008823529817163944)
(X_741  0.008823529817163944)
(X_742  0.008823529817163944)
(X_743  0.008823529817163944)
(X_744  0.11666666716337204)
(X_745  0.012745101936161518)
(X_746  0.008823529817163944)
(X_747  0.004901961423456669)
(X_748  0.004901961423456669)
(X_749  0.10490196198225021)
(X_750  0.10882353037595749)
(X_751  0.10882353037595749)
(X_752  0.10882353037595749)
(X_753  0.10882353037595749)
(X_754  0.11274509876966476)
(X_755  0.11666666716337204)
(X_756  0.0009803927969187498)
(X_757  0.004901961423456669)
(X_758  0.012745101936161518)
(X_759  0.10882353037595749)
(X_760  0.10490196198225021)
(X_761  0.10098039358854294)
(X_762  0.10098039358854294)
(X_763  0.10882353037595749)
(X_764  0.10490196198225021)
(X_765  0.0009803927969187498)
(X_766  0.10098039358854294)
(X_767  0.10098039358854294)
(X_768  0.10098039358854294)
(X_769  0.10098039358854294)
(X_770  0.10098039358854294)
(X_771  0.10490196198225021)
(X_772  0.10882353037595749)
(X_773  0.008823529817163944)
(X_774  0.004901961423456669)
(X_775  0.0009803927969187498)
(X_776  0.0009803927969187498)
(X_777  0.004901961423456669)
(X_778  0.10490196198225021)
(X_779  0.10882353037595749)
(X_780  0.10490196198225021)
(X_781  0.008823529817163944)
(X_782  0.012745101936161518)
(X_783  0.01666666939854622)
(Y_0 26.34081268310547)
(Y_1 -12.427756309509277)
(Y_2 16.205257415771484)
(Y_3 -33.223411560058594))