((X_0  0.15980392694473267)
(X_1  0.1558823585510254)
(X_2  0.05588235333561897)
(X_3  0.05588235333561897)
(X_4  0.05588235333561897)
(X_5  0.15196079015731812)
(X_6  0.0519607849419117)
(X_7  0.0519607849419117)
(X_8  0.05588235333561897)
(X_9  0.05588235333561897)
(X_10  0.14411765336990356)
(X_11  0.13235294818878174)
(X_12  0.1401960849761963)
(X_13  0.1558823585510254)
(X_14  0.15196079015731812)
(X_15  0.13235294818878174)
(X_16  0.0676470622420311)
(X_17  0.0519607849419117)
(X_18  0.0519607849419117)
(X_19  0.0676470622420311)
(X_20  0.16764706373214722)
(X_21  0.14411765336990356)
(X_22  0.04019607976078987)
(X_23  0.0519607849419117)
(X_24  0.16372549533843994)
(X_25  0.14411765336990356)
(X_26  0.12450980395078659)
(X_27  0.12450980395078659)
(X_28  0.12450980395078659)
(X_29  0.12843137979507446)
(X_30  0.03235294297337532)
(X_31  0.036274511367082596)
(X_32  0.04019607976078987)
(X_33  0.04411764815449715)
(X_34  0.04803921654820442)
(X_35  0.04803921654820442)
(X_36  0.07156863063573837)
(X_37  0.0519607849419117)
(X_38  0.02450980618596077)
(X_39  0.012745101936161518)
(X_40  0.04019607976078987)
(X_41  0.07941177487373352)
(X_42  0.09117648005485535)
(X_43  0.0833333432674408)
(X_44  0.06372549384832382)
(X_45  0.0519607849419117)
(X_46  0.05588235333561897)
(X_47  0.06372549384832382)
(X_48  0.05980392172932625)
(X_49  0.04411764815449715)
(X_50  0.05588235333561897)
(X_51  0.07941177487373352)
(X_52  0.1401960849761963)
(X_53  0.14411765336990356)
(X_54  0.15196079015731812)
(X_55  0.1558823585510254)
(X_56  0.14803922176361084)
(X_57  0.04803921654820442)
(X_58  0.0519607849419117)
(X_59  0.05588235333561897)
(X_60  0.05980392172932625)
(X_61  0.0676470622420311)
(X_62  0.0676470622420311)
(X_63  0.07156863063573837)
(X_64  0.020588237792253494)
(X_65  0.05588235333561897)
(X_66  0.07549020648002625)
(X_67  0.05980392172932625)
(X_68  0.036274511367082596)
(X_69  0.04019607976078987)
(X_70  0.0519607849419117)
(X_71  0.05980392172932625)
(X_72  0.08725491166114807)
(X_73  0.0676470622420311)
(X_74  0.14411765336990356)
(X_75  0.12450980395078659)
(X_76  0.10882353037595749)
(X_77  0.10882353037595749)
(X_78  0.1401960849761963)
(X_79  0.17941176891326904)
(X_80  0.10098039358854294)
(X_81  0.12450980395078659)
(X_82  0.14803922176361084)
(X_83  0.15196079015731812)
(X_84  0.14803922176361084)
(X_85  0.04803921654820442)
(X_86  0.04803921654820442)
(X_87  0.14803922176361084)
(X_88  0.14411765336990356)
(X_89  0.14411765336990356)
(X_90  0.04411764815449715)
(X_91  0.04019607976078987)
(X_92  0.14411765336990356)
(X_93  0.0519607849419117)
(X_94  0.05588235333561897)
(X_95  0.0676470622420311)
(X_96  0.22254902124404907)
(X_97  0.3088235557079315)
(X_98  0.3794117867946625)
(X_99  0.41470590233802795)
(X_100  0.4225490391254425)
(X_101  0.3950980603694916)
(X_102  0.35196080803871155)
(X_103  0.30490198731422424)
(X_104  0.24607843160629272)
(X_105  0.09117648005485535)
(X_106  0.04411764815449715)
(X_107  0.020588237792253494)
(X_108  0.136274516582489)
(X_109  0.04411764815449715)
(X_110  0.0519607849419117)
(X_111  0.14803922176361084)
(X_112  0.05588235333561897)
(X_113  0.05588235333561897)
(X_114  0.05588235333561897)
(X_115  0.15196079015731812)
(X_116  0.15196079015731812)
(X_117  0.15196079015731812)
(X_118  0.14803922176361084)
(X_119  0.14803922176361084)
(X_120  0.04019607976078987)
(X_121  0.04411764815449715)
(X_122  0.07941177487373352)
(X_123  0.17352941632270813)
(X_124  0.3029411733150482)
(X_125  0.3892156779766083)
(X_126  0.37745097279548645)
(X_127  0.3225490152835846)
(X_128  0.457843154668808)
(X_129  0.4539215862751007)
(X_130  0.45000001788139343)
(X_131  0.44607844948768616)
(X_132  0.43039217591285706)
(X_133  0.3794117867946625)
(X_134  0.20098040997982025)
(X_135  0.23823529481887817)
(X_136  0.11078432202339172)
(X_137  0.0833333432674408)
(X_138  0.14803922176361084)
(X_139  0.12450980395078659)
(X_140  0.14803922176361084)
(X_141  0.14803922176361084)
(X_142  0.15196079015731812)
(X_143  0.1558823585510254)
(X_144  0.05980392172932625)
(X_145  0.06372549384832382)
(X_146  0.0676470622420311)
(X_147  0.1715686321258545)
(X_148  0.15196079015731812)
(X_149  0.23039215803146362)
(X_150  0.22058825194835663)
(X_151  0.387254923582077)
(X_152  0.4225490391254425)
(X_153  0.43431374430656433)
(X_154  0.41470590233802795)
(X_155  0.3911764919757843)
(X_156  0.3225490152835846)
(X_157  0.3068627417087555)
(X_158  0.28333333134651184)
(X_159  0.38333335518836975)
(X_160  0.4107843339443207)
(X_161  0.3499999940395355)
(X_162  0.3539215624332428)
(X_163  0.43431374430656433)
(X_164  0.2558823525905609)
(X_165  0.21666668355464935)
(X_166  0.2617647051811218)
(X_167  0.22647058963775635)
(X_168  0.09509804844856262)
(X_169  0.09509804844856262)
(X_170  0.0990196168422699)
(X_171  0.2029411792755127)
(X_172  0.20686274766921997)
(X_173  0.21078431606292725)
(X_174  0.21470588445663452)
(X_175  0.2186274528503418)
(X_176  0.3088235557079315)
(X_177  0.3598039448261261)
(X_178  0.387254923582077)
(X_179  0.3754902184009552)
(X_180  0.3715686500072479)
(X_181  0.43431374430656433)
(X_182  0.5362744927406311)
(X_183  0.6186274886131287)
(X_184  0.5715686678886414)
(X_185  0.551960825920105)
(X_186  0.49313727021217346)
(X_187  0.4264706075191498)
(X_188  0.29509803652763367)
(X_189  0.3068627417087555)
(X_190  0.3225490152835846)
(X_191  0.4225490391254425)
(X_192  0.4539215862751007)
(X_193  0.4382353127002716)
(X_194  0.41862747073173523)
(X_195  0.39901962876319885)
(X_196  0.2872548997402191)
(X_197  0.387254923582077)
(X_198  0.387254923582077)
(X_199  0.387254923582077)
(X_200  0.38333335518836975)
(X_201  0.38333335518836975)
(X_202  0.38333335518836975)
(X_203  0.3794117867946625)
(X_204  0.29901960492134094)
(X_205  0.38333335518836975)
(X_206  0.3794117867946625)
(X_207  0.41470590233802795)
(X_208  0.385294109582901)
(X_209  0.42450979351997375)
(X_210  0.39313724637031555)
(X_211  0.3343137204647064)
(X_212  0.5088235139846802)
(X_213  0.5558823943138123)
(X_214  0.5794118046760559)
(X_215  0.5362744927406311)
(X_216  0.3656862676143646)
(X_217  0.4068627655506134)
(X_218  0.3558823764324188)
(X_219  0.32058826088905334)
(X_220  0.33627453446388245)
(X_221  0.2558823525905609)
(X_222  0.27941176295280457)
(X_223  0.387254923582077)
(X_224  0.26372548937797546)
(X_225  0.27156862616539)
(X_226  0.26764705777168274)
(X_227  0.2558823525905609)
(X_228  0.25196078419685364)
(X_229  0.25196078419685364)
(X_230  0.23235295712947845)
(X_231  0.20490197837352753)
(X_232  0.3637255132198334)
(X_233  0.31470587849617004)
(X_234  0.36176469922065735)
(X_235  0.3892156779766083)
(X_236  0.41274508833885193)
(X_237  0.3970588147640228)
(X_238  0.29509803652763367)
(X_239  0.18529412150382996)
(X_240  0.26764705777168274)
(X_241  0.25196078419685364)
(X_242  0.3794117867946625)
(X_243  0.4696078598499298)
(X_244  0.551960825920105)
(X_245  0.5715686678886414)
(X_246  0.5323529243469238)
(X_247  0.49313727021217346)
(X_248  0.32647058367729187)
(X_249  0.28333333134651184)
(X_250  0.240196093916893)
(X_251  0.2245098203420639)
(X_252  0.27352941036224365)
(X_253  0.18137255311012268)
(X_254  0.18137255311012268)
(X_255  0.1774509847164154)
(X_256  0.2852941155433655)
(X_257  0.29313725233078003)
(X_258  0.2852941155433655)
(X_259  0.16568627953529358)
(X_260  0.1931372582912445)
(X_261  0.2754901945590973)
(X_262  0.3343137204647064)
(X_263  0.3225490152835846)
(X_264  0.2872548997402191)
(X_265  0.26764705777168274)
(X_266  0.3401961028575897)
(X_267  0.3088235557079315)
(X_268  0.2656862735748291)
(X_269  0.2343137264251709)
(X_270  0.23823529481887817)
(X_271  0.30098041892051697)
(X_272  0.3794117867946625)
(X_273  0.4264706075191498)
(X_274  0.3343137204647064)
(X_275  0.33039215207099915)
(X_276  0.5598039627075195)
(X_277  0.5558823943138123)
(X_278  0.45196080207824707)
(X_279  0.45588237047195435)
(X_280  0.33235296607017517)
(X_281  0.3401961028575897)
(X_282  0.240196093916893)
(X_283  0.23235295712947845)
(X_284  0.240196093916893)
(X_285  0.3598039448261261)
(X_286  0.3558823764324188)
(X_287  0.3401961028575897)
(X_288  0.27156862616539)
(X_289  0.3186274468898773)
(X_290  0.33039215207099915)
(X_291  0.36764708161354065)
(X_292  0.2970588207244873)
(X_293  0.1774509847164154)
(X_294  0.1774509847164154)
(X_295  0.1774509847164154)
(X_296  0.23039215803146362)
(X_297  0.19509804248809814)
(X_298  0.17549020051956177)
(X_299  0.0990196168422699)
(X_300  0.23823529481887817)
(X_301  0.2696078419685364)
(X_302  0.28921568393707275)
(X_303  0.20490197837352753)
(X_304  0.34215685725212097)
(X_305  0.46568629145622253)
(X_306  0.3892156779766083)
(X_307  0.385294109582901)
(X_308  0.5127450823783875)
(X_309  0.5127450823783875)
(X_310  0.4049019515514374)
(X_311  0.3892156779766083)
(X_312  0.39313724637031555)
(X_313  0.4049019515514374)
(X_314  0.4049019515514374)
(X_315  0.385294109582901)
(X_316  0.3499999940395355)
(X_317  0.41470590233802795)
(X_318  0.3480392396450043)
(X_319  0.2813725471496582)
(X_320  0.2539215683937073)
(X_321  0.15000000596046448)
(X_322  0.12647059559822083)
(X_323  0.09509804844856262)
(X_324  0.21470588445663452)
(X_325  0.09509804844856262)
(X_326  0.1872549057006836)
(X_327  0.0990196168422699)
(X_328  0.2029411792755127)
(X_329  0.19901961088180542)
(X_330  0.19901961088180542)
(X_331  0.21078431606292725)
(X_332  0.18921568989753723)
(X_333  0.3088235557079315)
(X_334  0.22843138873577118)
(X_335  0.22058825194835663)
(X_336  0.27941176295280457)
(X_337  0.3794117867946625)
(X_338  0.3715686500072479)
(X_339  0.35196080803871155)
(X_340  0.35196080803871155)
(X_341  0.3637255132198334)
(X_342  0.2558823525905609)
(X_343  0.240196093916893)
(X_344  0.344117671251297)
(X_345  0.18529412150382996)
(X_346  0.11078432202339172)
(X_347  0.07549020648002625)
(X_348  0.08725491166114807)
(X_349  0.10686275362968445)
(X_350  0.09117648005485535)
(X_351  0.1558823585510254)
(X_352  0.15196079015731812)
(X_353  0.14803922176361084)
(X_354  0.15980392694473267)
(X_355  0.17549020051956177)
(X_356  0.17941176891326904)
(X_357  0.1715686321258545)
(X_358  0.17941176891326904)
(X_359  0.19509804248809814)
(X_360  0.24607843160629272)
(X_361  0.25)
(X_362  0.15784314274787903)
(X_363  0.1617647111415863)
(X_364  0.2088235467672348)
(X_365  0.21274511516094208)
(X_366  0.2088235467672348)
(X_367  0.30098041892051697)
(X_368  0.30490198731422424)
(X_369  0.31666669249534607)
(X_370  0.3127451241016388)
(X_371  0.1931372582912445)
(X_372  0.13431373238563538)
(X_373  0.11078432202339172)
(X_374  0.07549020648002625)
(X_375  0.0519607849419117)
(X_376  0.04803921654820442)
(X_377  0.05588235333561897)
(X_378  0.06372549384832382)
(X_379  0.0676470622420311)
(X_380  0.1401960849761963)
(X_381  0.12843137979507446)
(X_382  0.028431374579668045)
(X_383  0.036274511367082596)
(X_384  0.04019607976078987)
(X_385  0.04019607976078987)
(X_386  0.15980392694473267)
(X_387  0.18333333730697632)
(X_388  0.20686274766921997)
(X_389  0.19509804248809814)
(X_390  0.1872549057006836)
(X_391  0.19509804248809814)
(X_392  0.23039215803146362)
(X_393  0.24215686321258545)
(X_394  0.24215686321258545)
(X_395  0.13823530077934265)
(X_396  0.25)
(X_397  0.2617647051811218)
(X_398  0.2539215683937073)
(X_399  0.13431373238563538)
(X_400  0.11078432202339172)
(X_401  0.09509804844856262)
(X_402  0.07549020648002625)
(X_403  0.1558823585510254)
(X_404  0.1401960849761963)
(X_405  0.036274511367082596)
(X_406  0.04411764815449715)
(X_407  0.1558823585510254)
(X_408  0.05588235333561897)
(X_409  0.036274511367082596)
(X_410  0.12843137979507446)
(X_411  0.12843137979507446)
(X_412  0.12843137979507446)
(X_413  0.11666666716337204)
(X_414  0.12450980395078659)
(X_415  0.14411765336990356)
(X_416  0.07549020648002625)
(X_417  0.0676470622420311)
(X_418  0.05980392172932625)
(X_419  0.05588235333561897)
(X_420  0.09509804844856262)
(X_421  0.10686275362968445)
(X_422  0.11078432202339172)
(X_423  0.10686275362968445)
(X_424  0.114705890417099)
(X_425  0.12254902720451355)
(X_426  0.11078432202339172)
(X_427  0.08725491166114807)
(X_428  0.18333333730697632)
(X_429  0.04019607976078987)
(X_430  0.008823529817163944)
(X_431  0.008823529817163944)
(X_432  0.028431374579668045)
(X_433  0.136274516582489)
(X_434  0.12843137979507446)
(X_435  0.01666666939854622)
(X_436  0.12058823555707932)
(X_437  0.11274509876966476)
(X_438  0.11666666716337204)
(X_439  0.136274516582489)
(X_440  0.1401960849761963)
(X_441  0.12450980395078659)
(X_442  0.012745101936161518)
(X_443  0.012745101936161518)
(X_444  0.03235294297337532)
(X_445  0.036274511367082596)
(X_446  0.04411764815449715)
(X_447  0.14803922176361084)
(X_448  0.1558823585510254)
(X_449  0.1558823585510254)
(X_450  0.1558823585510254)
(X_451  0.1558823585510254)
(X_452  0.1558823585510254)
(X_453  0.1558823585510254)
(X_454  0.1558823585510254)
(X_455  0.1558823585510254)
(X_456  0.13235294818878174)
(X_457  0.13235294818878174)
(X_458  0.12843137979507446)
(X_459  0.028431374579668045)
(X_460  0.02450980618596077)
(X_461  0.12058823555707932)
(X_462  0.12058823555707932)
(X_463  0.12058823555707932)
(X_464  0.028431374579668045)
(X_465  0.02450980618596077)
(X_466  0.020588237792253494)
(X_467  0.11666666716337204)
(X_468  0.11274509876966476)
(X_469  0.11666666716337204)
(X_470  0.12450980395078659)
(X_471  0.12843137979507446)
(X_472  0.12450980395078659)
(X_473  0.12058823555707932)
(X_474  0.11666666716337204)
(X_475  0.11666666716337204)
(X_476  0.03235294297337532)
(X_477  0.03235294297337532)
(X_478  0.13235294818878174)
(X_479  0.13235294818878174)
(X_480  0.13235294818878174)
(X_481  0.03235294297337532)
(X_482  0.03235294297337532)
(X_483  0.03235294297337532)
(X_484  0.11666666716337204)
(X_485  0.11666666716337204)
(X_486  0.01666666939854622)
(X_487  0.01666666939854622)
(X_488  0.01666666939854622)
(X_489  0.01666666939854622)
(X_490  0.01666666939854622)
(X_491  0.01666666939854622)
(X_492  0.01666666939854622)
(X_493  0.01666666939854622)
(X_494  0.10882353037595749)
(X_495  0.10490196198225021)
(X_496  0.10098039358854294)
(X_497  0.10098039358854294)
(X_498  0.10098039358854294)
(X_499  0.0009803927969187498)
(X_500  0.02450980618596077)
(X_501  0.020588237792253494)
(X_502  0.01666666939854622)
(X_503  0.012745101936161518)
(X_504  0.11666666716337204)
(X_505  0.11666666716337204)
(X_506  0.01666666939854622)
(X_507  0.01666666939854622)
(X_508  0.01666666939854622)
(X_509  0.01666666939854622)
(X_510  0.01666666939854622)
(X_511  0.11666666716337204)
(X_512  0.008823529817163944)
(X_513  0.008823529817163944)
(X_514  0.008823529817163944)
(X_515  0.012745101936161518)
(X_516  0.012745101936161518)
(X_517  0.012745101936161518)
(X_518  0.012745101936161518)
(X_519  0.012745101936161518)
(X_520  0.020588237792253494)
(X_521  0.020588237792253494)
(X_522  0.020588237792253494)
(X_523  0.020588237792253494)
(X_524  0.020588237792253494)
(X_525  0.01666666939854622)
(X_526  0.012745101936161518)
(X_527  0.11274509876966476)
(X_528  0.012745101936161518)
(X_529  0.012745101936161518)
(X_530  0.008823529817163944)
(X_531  0.008823529817163944)
(X_532  0.11274509876966476)
(X_533  0.11274509876966476)
(X_534  0.11274509876966476)
(X_535  0.11274509876966476)
(X_536  0.11274509876966476)
(X_537  0.012745101936161518)
(X_538  0.012745101936161518)
(X_539  0.012745101936161518)
(X_540  0.012745101936161518)
(X_541  0.012745101936161518)
(X_542  0.11274509876966476)
(X_543  0.11274509876966476)
(X_544  0.11274509876966476)
(X_545  0.10882353037595749)
(X_546  0.008823529817163944)
(X_547  0.008823529817163944)
(X_548  0.08137255162000656)
(X_549  0.08529412001371384)
(X_550  0.09313725680112839)
(X_551  0.10098039358854294)
(X_552  0.10490196198225021)
(X_553  0.10098039358854294)
(X_554  0.10098039358854294)
(X_555  -0.0029411755967885256)
(X_556  0.07745098322629929)
(X_557  -0.018627449870109558)
(X_558  -0.014705880545079708)
(X_559  0.08921568840742111)
(X_560  0.11274509876966476)
(X_561  0.012745101936161518)
(X_562  0.11274509876966476)
(X_563  0.11274509876966476)
(X_564  0.11274509876966476)
(X_565  0.11274509876966476)
(X_566  0.11274509876966476)
(X_567  0.11274509876966476)
(X_568  0.012745101936161518)
(X_569  0.11274509876966476)
(X_570  0.10882353037595749)
(X_571  0.10490196198225021)
(X_572  0.0009803927969187498)
(X_573  0.0009803927969187498)
(X_574  -0.0029411755967885256)
(X_575  -0.006862743757665157)
(X_576  -0.0029411755967885256)
(X_577  0.0009803927969187498)
(X_578  0.008823529817163944)
(X_579  0.11274509876966476)
(X_580  0.11274509876966476)
(X_581  0.10882353037595749)
(X_582  0.10490196198225021)
(X_583  0.10098039358854294)
(X_584  0.10882353037595749)
(X_585  0.012745101936161518)
(X_586  0.01666666939854622)
(X_587  0.020588237792253494)
(X_588  0.10098039358854294)
(X_589  0.0009803927969187498)
(X_590  0.10098039358854294)
(X_591  0.10098039358854294)
(X_592  0.0009803927969187498)
(X_593  0.0009803927969187498)
(X_594  0.10098039358854294)
(X_595  0.10098039358854294)
(X_596  0.10490196198225021)
(X_597  0.10490196198225021)
(X_598  0.10098039358854294)
(X_599  0.0009803927969187498)
(X_600  -0.0029411755967885256)
(X_601  -0.006862743757665157)
(X_602  -0.010784312151372433)
(X_603  -0.010784312151372433)
(X_604  0.004901961423456669)
(X_605  0.10882353037595749)
(X_606  0.10882353037595749)
(X_607  0.10490196198225021)
(X_608  0.10098039358854294)
(X_609  0.09705882519483566)
(X_610  0.09313725680112839)
(X_611  0.08921568840742111)
(X_612  -0.0029411755967885256)
(X_613  0.0009803927969187498)
(X_614  0.0009803927969187498)
(X_615  0.10490196198225021)
(X_616  0.10098039358854294)
(X_617  0.0009803927969187498)
(X_618  0.0009803927969187498)
(X_619  0.0009803927969187498)
(X_620  0.0009803927969187498)
(X_621  0.10098039358854294)
(X_622  0.10098039358854294)
(X_623  0.10098039358854294)
(X_624  0.10098039358854294)
(X_625  0.10098039358854294)
(X_626  0.10490196198225021)
(X_627  0.10490196198225021)
(X_628  0.008823529817163944)
(X_629  0.008823529817163944)
(X_630  0.012745101936161518)
(X_631  0.11274509876966476)
(X_632  0.08137255162000656)
(X_633  -0.018627449870109558)
(X_634  -0.018627449870109558)
(X_635  -0.018627449870109558)
(X_636  -0.014705880545079708)
(X_637  0.08921568840742111)
(X_638  0.09313725680112839)
(X_639  0.09705882519483566)
(X_640  0.09313725680112839)
(X_641  0.09705882519483566)
(X_642  0.10882353037595749)
(X_643  0.11666666716337204)
(X_644  0.004901961423456669)
(X_645  0.004901961423456669)
(X_646  0.10490196198225021)
(X_647  0.10490196198225021)
(X_648  0.10490196198225021)
(X_649  0.004901961423456669)
(X_650  0.004901961423456669)
(X_651  0.10490196198225021)
(X_652  0.10882353037595749)
(X_653  0.10882353037595749)
(X_654  0.11666666716337204)
(X_655  0.020588237792253494)
(X_656  0.028431374579668045)
(X_657  0.036274511367082596)
(X_658  0.04411764815449715)
(X_659  0.04411764815449715)
(X_660  0.16764706373214722)
(X_661  0.16764706373214722)
(X_662  0.1715686321258545)
(X_663  0.18333333730697632)
(X_664  0.09509804844856262)
(X_665  0.114705890417099)
(X_666  0.1303921639919281)
(X_667  0.13823530077934265)
(X_668  0.16568627953529358)
(X_669  0.1774509847164154)
(X_670  0.1931372582912445)
(X_671  0.21274511516094208)
(X_672  0.6107843518257141)
(X_673  0.5186274647712708)
(X_674  0.5264706015586853)
(X_675  0.5421568751335144)
(X_676  0.5539215803146362)
(X_677  0.6696078777313232)
(X_678  0.6774510145187378)
(X_679  0.6852941513061523)
(X_680  0.7166666984558105)
(X_681  0.7245098352432251)
(X_682  0.7362745404243469)
(X_683  0.751960813999176)
(X_684  0.7715686559677124)
(X_685  0.7872549295425415)
(X_686  0.7029411792755127)
(X_687  0.70686274766922)
(X_688  0.8539215922355652)
(X_689  0.8617647290229797)
(X_690  0.7735294103622437)
(X_691  0.7892156839370728)
(X_692  0.908823549747467)
(X_693  0.9245098233222961)
(X_694  0.8401960730552673)
(X_695  0.8480392098426819)
(X_696  0.8911764621734619)
(X_697  0.9911764860153198)
(X_698  0.9911764860153198)
(X_699  0.9950980544090271)
(X_700  1.0421568155288696)
(X_701  0.9421568512916565)
(X_702  0.9460784196853638)
(X_703  0.9460784196853638)
(X_704  0.949999988079071)
(X_705  0.949999988079071)
(X_706  0.949999988079071)
(X_707  0.949999988079071)
(X_708  0.949999988079071)
(X_709  0.949999988079071)
(X_710  0.949999988079071)
(X_711  1.0499999523162842)
(X_712  1.0499999523162842)
(X_713  1.0499999523162842)
(X_714  0.949999988079071)
(X_715  0.949999988079071)
(X_716  0.9382352828979492)
(X_717  0.9382352828979492)
(X_718  0.9421568512916565)
(X_719  0.9460784196853638)
(X_720  0.949999988079071)
(X_721  1.0499999523162842)
(X_722  0.949999988079071)
(X_723  0.949999988079071)
(X_724  1.0421568155288696)
(X_725  1.0421568155288696)
(X_726  1.0421568155288696)
(X_727  1.0460784435272217)
(X_728  1.0499999523162842)
(X_729  0.949999988079071)
(X_730  1.0499999523162842)
(X_731  1.0460784435272217)
(X_732  0.9421568512916565)
(X_733  0.9382352828979492)
(X_734  0.9382352828979492)
(X_735  1.034313678741455)
(X_736  1.0382353067398071)
(X_737  1.0382353067398071)
(X_738  1.034313678741455)
(X_739  1.034313678741455)
(X_740  1.0303921699523926)
(X_741  1.0264705419540405)
(X_742  1.0264705419540405)
(X_743  1.022549033164978)
(X_744  0.949999988079071)
(X_745  1.0499999523162842)
(X_746  1.0499999523162842)
(X_747  0.949999988079071)
(X_748  0.9460784196853638)
(X_749  1.0460784435272217)
(X_750  0.9421568512916565)
(X_751  0.9421568512916565)
(X_752  1.0499999523162842)
(X_753  1.0499999523162842)
(X_754  1.0499999523162842)
(X_755  1.0499999523162842)
(X_756  1.0499999523162842)
(X_757  0.949999988079071)
(X_758  0.949999988079071)
(X_759  1.0499999523162842)
(X_760  0.949999988079071)
(X_761  1.0499999523162842)
(X_762  1.0499999523162842)
(X_763  1.0499999523162842)
(X_764  1.0499999523162842)
(X_765  1.0499999523162842)
(X_766  0.949999988079071)
(X_767  0.949999988079071)
(X_768  1.0499999523162842)
(X_769  0.949999988079071)
(X_770  0.949999988079071)
(X_771  0.949999988079071)
(X_772  0.9382352828979492)
(X_773  0.9382352828979492)
(X_774  0.9382352828979492)
(X_775  0.9382352828979492)
(X_776  0.9382352828979492)
(X_777  0.9382352828979492)
(X_778  0.9382352828979492)
(X_779  0.9382352828979492)
(X_780  0.9421568512916565)
(X_781  0.9421568512916565)
(X_782  0.9421568512916565)
(X_783  0.9421568512916565)
(Y_0 -28.93124771118164)
(Y_1 50.30698776245117)
(Y_2 -20.266138076782227)
(Y_3 0.4810328483581543))