((X_0  0.0990196168422699)
(X_1  0.0990196168422699)
(X_2  0.10294118523597717)
(X_3  0.20686274766921997)
(X_4  0.11078432202339172)
(X_5  0.11862745881080627)
(X_6  0.22647058963775635)
(X_7  0.23039215803146362)
(X_8  0.25)
(X_9  0.24607843160629272)
(X_10  0.24215686321258545)
(X_11  0.24215686321258545)
(X_12  0.24215686321258545)
(X_13  0.25)
(X_14  0.15392157435417175)
(X_15  0.15784314274787903)
(X_16  0.18921568989753723)
(X_17  0.18921568989753723)
(X_18  0.18529412150382996)
(X_19  0.18137255311012268)
(X_20  0.18137255311012268)
(X_21  0.18529412150382996)
(X_22  0.28921568393707275)
(X_23  0.28921568393707275)
(X_24  0.20098040997982025)
(X_25  0.20098040997982025)
(X_26  0.30490198731422424)
(X_27  0.3088235557079315)
(X_28  0.04411764815449715)
(X_29  0.04411764815449715)
(X_30  0.04411764815449715)
(X_31  0.14803922176361084)
(X_32  0.15196079015731812)
(X_33  0.05588235333561897)
(X_34  0.06372549384832382)
(X_35  0.06372549384832382)
(X_36  0.036274511367082596)
(X_37  0.03235294297337532)
(X_38  0.028431374579668045)
(X_39  0.12843137979507446)
(X_40  0.12843137979507446)
(X_41  0.13235294818878174)
(X_42  0.1401960849761963)
(X_43  0.14411765336990356)
(X_44  0.14803922176361084)
(X_45  0.04803921654820442)
(X_46  0.04411764815449715)
(X_47  0.04019607976078987)
(X_48  0.1401960849761963)
(X_49  0.14411765336990356)
(X_50  0.14803922176361084)
(X_51  0.14803922176361084)
(X_52  0.13235294818878174)
(X_53  0.136274516582489)
(X_54  0.1401960849761963)
(X_55  0.14411765336990356)
(X_56  0.12450980395078659)
(X_57  0.12450980395078659)
(X_58  0.02450980618596077)
(X_59  0.12450980395078659)
(X_60  0.12843137979507446)
(X_61  0.028431374579668045)
(X_62  0.03235294297337532)
(X_63  0.03235294297337532)
(X_64  0.136274516582489)
(X_65  0.136274516582489)
(X_66  0.136274516582489)
(X_67  0.13235294818878174)
(X_68  0.136274516582489)
(X_69  0.1401960849761963)
(X_70  0.14411765336990356)
(X_71  0.14803922176361084)
(X_72  0.136274516582489)
(X_73  0.03235294297337532)
(X_74  0.028431374579668045)
(X_75  0.028431374579668045)
(X_76  0.028431374579668045)
(X_77  0.12843137979507446)
(X_78  0.13235294818878174)
(X_79  0.136274516582489)
(X_80  0.136274516582489)
(X_81  0.136274516582489)
(X_82  0.1401960849761963)
(X_83  0.14411765336990356)
(X_84  0.036274511367082596)
(X_85  0.036274511367082596)
(X_86  0.036274511367082596)
(X_87  0.036274511367082596)
(X_88  0.136274516582489)
(X_89  0.136274516582489)
(X_90  0.13235294818878174)
(X_91  0.13235294818878174)
(X_92  0.13235294818878174)
(X_93  0.13235294818878174)
(X_94  0.03235294297337532)
(X_95  0.03235294297337532)
(X_96  0.13235294818878174)
(X_97  0.136274516582489)
(X_98  0.136274516582489)
(X_99  0.04019607976078987)
(X_100  0.03235294297337532)
(X_101  0.03235294297337532)
(X_102  0.028431374579668045)
(X_103  0.028431374579668045)
(X_104  0.028431374579668045)
(X_105  0.12843137979507446)
(X_106  0.03235294297337532)
(X_107  0.03235294297337532)
(X_108  0.05588235333561897)
(X_109  0.05980392172932625)
(X_110  0.06372549384832382)
(X_111  0.06372549384832382)
(X_112  0.12450980395078659)
(X_113  0.12843137979507446)
(X_114  0.12843137979507446)
(X_115  0.13235294818878174)
(X_116  0.03235294297337532)
(X_117  0.028431374579668045)
(X_118  0.020588237792253494)
(X_119  0.020588237792253494)
(X_120  0.008823529817163944)
(X_121  0.008823529817163944)
(X_122  0.012745101936161518)
(X_123  0.01666666939854622)
(X_124  0.11666666716337204)
(X_125  0.01666666939854622)
(X_126  0.01666666939854622)
(X_127  0.01666666939854622)
(X_128  0.020588237792253494)
(X_129  0.01666666939854622)
(X_130  0.01666666939854622)
(X_131  0.11274509876966476)
(X_132  0.11274509876966476)
(X_133  0.11666666716337204)
(X_134  0.01666666939854622)
(X_135  0.020588237792253494)
(X_136  0.02450980618596077)
(X_137  0.12843137979507446)
(X_138  0.13235294818878174)
(X_139  0.136274516582489)
(X_140  0.11666666716337204)
(X_141  0.12058823555707932)
(X_142  0.02450980618596077)
(X_143  0.12843137979507446)
(X_144  0.12843137979507446)
(X_145  0.12058823555707932)
(X_146  0.01666666939854622)
(X_147  0.012745101936161518)
(X_148  0.12450980395078659)
(X_149  0.12843137979507446)
(X_150  0.13235294818878174)
(X_151  0.136274516582489)
(X_152  0.136274516582489)
(X_153  0.136274516582489)
(X_154  0.036274511367082596)
(X_155  0.13235294818878174)
(X_156  0.036274511367082596)
(X_157  0.13235294818878174)
(X_158  0.12843137979507446)
(X_159  0.12843137979507446)
(X_160  0.12843137979507446)
(X_161  0.12843137979507446)
(X_162  0.13235294818878174)
(X_163  0.136274516582489)
(X_164  0.12843137979507446)
(X_165  0.12843137979507446)
(X_166  0.13235294818878174)
(X_167  0.136274516582489)
(X_168  0.01666666939854622)
(X_169  0.020588237792253494)
(X_170  0.028431374579668045)
(X_171  0.03235294297337532)
(X_172  0.036274511367082596)
(X_173  0.12843137979507446)
(X_174  0.12450980395078659)
(X_175  0.020588237792253494)
(X_176  0.008823529817163944)
(X_177  0.012745101936161518)
(X_178  0.01666666939854622)
(X_179  0.12450980395078659)
(X_180  0.12450980395078659)
(X_181  0.12450980395078659)
(X_182  0.12058823555707932)
(X_183  0.11666666716337204)
(X_184  0.01666666939854622)
(X_185  0.012745101936161518)
(X_186  0.012745101936161518)
(X_187  0.008823529817163944)
(X_188  0.008823529817163944)
(X_189  0.012745101936161518)
(X_190  0.012745101936161518)
(X_191  0.11666666716337204)
(X_192  0.02450980618596077)
(X_193  0.12450980395078659)
(X_194  0.12843137979507446)
(X_195  0.13235294818878174)
(X_196  0.10882353037595749)
(X_197  0.11274509876966476)
(X_198  0.12450980395078659)
(X_199  0.12843137979507446)
(X_200  0.03235294297337532)
(X_201  0.028431374579668045)
(X_202  0.020588237792253494)
(X_203  0.01666666939854622)
(X_204  0.020588237792253494)
(X_205  0.028431374579668045)
(X_206  0.03235294297337532)
(X_207  0.04019607976078987)
(X_208  0.04019607976078987)
(X_209  0.036274511367082596)
(X_210  0.03235294297337532)
(X_211  0.03235294297337532)
(X_212  0.13235294818878174)
(X_213  0.13235294818878174)
(X_214  0.028431374579668045)
(X_215  0.028431374579668045)
(X_216  0.028431374579668045)
(X_217  0.028431374579668045)
(X_218  0.13235294818878174)
(X_219  0.13235294818878174)
(X_220  0.15196079015731812)
(X_221  0.15196079015731812)
(X_222  0.05588235333561897)
(X_223  0.05980392172932625)
(X_224  0.04803921654820442)
(X_225  0.0519607849419117)
(X_226  0.0519607849419117)
(X_227  0.14803922176361084)
(X_228  0.04019607976078987)
(X_229  0.028431374579668045)
(X_230  0.012745101936161518)
(X_231  0.004901961423456669)
(X_232  0.12058823555707932)
(X_233  0.10882353037595749)
(X_234  0.10882353037595749)
(X_235  0.12450980395078659)
(X_236  0.14411765336990356)
(X_237  0.14803922176361084)
(X_238  0.13235294818878174)
(X_239  0.11274509876966476)
(X_240  0.12058823555707932)
(X_241  0.01666666939854622)
(X_242  0.008823529817163944)
(X_243  0.012745101936161518)
(X_244  0.12450980395078659)
(X_245  0.036274511367082596)
(X_246  0.04411764815449715)
(X_247  0.04803921654820442)
(X_248  0.0676470622420311)
(X_249  0.0676470622420311)
(X_250  0.04803921654820442)
(X_251  0.11666666716337204)
(X_252  0.3637255132198334)
(X_253  0.35196080803871155)
(X_254  0.33627453446388245)
(X_255  0.3088235557079315)
(X_256  0.2774509787559509)
(X_257  0.24215686321258545)
(X_258  0.21078431606292725)
(X_259  0.09509804844856262)
(X_260  0.136274516582489)
(X_261  0.11666666716337204)
(X_262  0.10098039358854294)
(X_263  0.10098039358854294)
(X_264  0.11666666716337204)
(X_265  0.12843137979507446)
(X_266  0.12843137979507446)
(X_267  0.12058823555707932)
(X_268  0.020588237792253494)
(X_269  0.020588237792253494)
(X_270  0.028431374579668045)
(X_271  0.04019607976078987)
(X_272  0.05980392172932625)
(X_273  0.07156863063573837)
(X_274  0.07941177487373352)
(X_275  0.0833333432674408)
(X_276  0.0990196168422699)
(X_277  0.11078432202339172)
(X_278  0.20686274766921997)
(X_279  0.19117647409439087)
(X_280  0.31470587849617004)
(X_281  0.31470587849617004)
(X_282  0.3068627417087555)
(X_283  0.29901960492134094)
(X_284  0.2872548997402191)
(X_285  0.27156862616539)
(X_286  0.2598039209842682)
(X_287  0.2558823525905609)
(X_288  0.19705882668495178)
(X_289  0.15784314274787903)
(X_290  0.19901961088180542)
(X_291  0.1558823585510254)
(X_292  0.136274516582489)
(X_293  0.02450980618596077)
(X_294  0.012745101936161518)
(X_295  0.004901961423456669)
(X_296  0.10490196198225021)
(X_297  0.13235294818878174)
(X_298  0.17941176891326904)
(X_299  0.13431373238563538)
(X_300  0.18529412150382996)
(X_301  0.22843138873577118)
(X_302  0.3598039448261261)
(X_303  0.2754901945590973)
(X_304  0.27941176295280457)
(X_305  0.29901960492134094)
(X_306  0.31078431010246277)
(X_307  0.4107843339443207)
(X_308  0.2245098203420639)
(X_309  0.22843138873577118)
(X_310  0.23627452552318573)
(X_311  0.24411766231060028)
(X_312  0.25196078419685364)
(X_313  0.2598039209842682)
(X_314  0.26764705777168274)
(X_315  0.3715686500072479)
(X_316  0.2558823525905609)
(X_317  0.2245098203420639)
(X_318  0.18137255311012268)
(X_319  0.15392157435417175)
(X_320  0.24607843160629272)
(X_321  0.2539215683937073)
(X_322  0.2656862735748291)
(X_323  0.2696078419685364)
(X_324  0.20098040997982025)
(X_325  0.32058826088905334)
(X_326  0.344117671251297)
(X_327  0.26372548937797546)
(X_328  0.27156862616539)
(X_329  0.2754901945590973)
(X_330  0.2754901945590973)
(X_331  0.2754901945590973)
(X_332  0.3598039448261261)
(X_333  0.3794117867946625)
(X_334  0.2872548997402191)
(X_335  0.38333335518836975)
(X_336  0.23235295712947845)
(X_337  0.3284313976764679)
(X_338  0.22058825194835663)
(X_339  0.3088235557079315)
(X_340  0.30490198731422424)
(X_341  0.30098041892051697)
(X_342  0.20098040997982025)
(X_343  0.20098040997982025)
(X_344  0.3284313976764679)
(X_345  0.3127451241016388)
(X_346  0.2852941155433655)
(X_347  0.2696078419685364)
(X_348  0.2696078419685364)
(X_349  0.2774509787559509)
(X_350  0.2852941155433655)
(X_351  0.29313725233078003)
(X_352  0.1303921639919281)
(X_353  0.2539215683937073)
(X_354  0.2852941155433655)
(X_355  0.21274511516094208)
(X_356  0.22843138873577118)
(X_357  0.240196093916893)
(X_358  0.25196078419685364)
(X_359  0.26372548937797546)
(X_360  0.30490198731422424)
(X_361  0.3127451241016388)
(X_362  0.20098040997982025)
(X_363  0.2813725471496582)
(X_364  0.5382353067398071)
(X_365  0.5343137383460999)
(X_366  0.5303921699523926)
(X_367  0.6264706254005432)
(X_368  0.6303921937942505)
(X_369  0.638235330581665)
(X_370  0.6460784673690796)
(X_371  0.6539216041564941)
(X_372  0.4911764860153198)
(X_373  0.479411780834198)
(X_374  0.45588237047195435)
(X_375  0.5362744927406311)
(X_376  0.5166666507720947)
(X_377  0.4049019515514374)
(X_378  0.3970588147640228)
(X_379  0.49705883860588074)
(X_380  0.5833333730697632)
(X_381  0.5872549414634705)
(X_382  0.479411780834198)
(X_383  0.551960825920105)
(X_384  0.5166666507720947)
(X_385  0.385294109582901)
(X_386  0.37745097279548645)
(X_387  0.37745097279548645)
(X_388  0.5009803771972656)
(X_389  0.49705883860588074)
(X_390  0.3735294044017792)
(X_391  0.4382353127002716)
(X_392  0.25196078419685364)
(X_393  0.2558823525905609)
(X_394  0.2598039209842682)
(X_395  0.3754902184009552)
(X_396  0.39901962876319885)
(X_397  0.43039217591285706)
(X_398  0.457843154668808)
(X_399  0.4735294282436371)
(X_400  0.39313724637031555)
(X_401  0.49313727021217346)
(X_402  0.49705883860588074)
(X_403  0.4009803831577301)
(X_404  0.4049019515514374)
(X_405  0.41274508833885193)
(X_406  0.5245097875595093)
(X_407  0.5323529243469238)
(X_408  0.4205882251262665)
(X_409  0.42843136191368103)
(X_410  0.4323529303073883)
(X_411  0.42450979351997375)
(X_412  0.41274508833885193)
(X_413  0.5166666507720947)
(X_414  0.5362744927406311)
(X_415  0.5598039627075195)
(X_416  0.4323529303073883)
(X_417  0.42843136191368103)
(X_418  0.5009803771972656)
(X_419  0.46568629145622253)
(X_420  0.1303921639919281)
(X_421  0.12647059559822083)
(X_422  0.22254902124404907)
(X_423  0.22254902124404907)
(X_424  0.2343137264251709)
(X_425  0.2539215683937073)
(X_426  0.2774509787559509)
(X_427  0.28921568393707275)
(X_428  0.1617647111415863)
(X_429  0.2617647051811218)
(X_430  0.15784314274787903)
(X_431  0.1460784375667572)
(X_432  0.23823529481887817)
(X_433  0.23823529481887817)
(X_434  0.24607843160629272)
(X_435  0.2539215683937073)
(X_436  0.18921568989753723)
(X_437  0.1931372582912445)
(X_438  0.18921568989753723)
(X_439  0.17352941632270813)
(X_440  0.25784313678741455)
(X_441  0.1617647111415863)
(X_442  0.1931372582912445)
(X_443  0.22058825194835663)
(X_444  0.31666669249534607)
(X_445  0.31666669249534607)
(X_446  0.2970588207244873)
(X_447  0.2696078419685364)
(X_448  0.05980392172932625)
(X_449  0.15980392694473267)
(X_450  0.16372549533843994)
(X_451  0.16372549533843994)
(X_452  0.06372549384832382)
(X_453  0.06372549384832382)
(X_454  0.15980392694473267)
(X_455  0.05980392172932625)
(X_456  0.07549020648002625)
(X_457  0.07156863063573837)
(X_458  0.0676470622420311)
(X_459  0.0676470622420311)
(X_460  0.0676470622420311)
(X_461  0.16764706373214722)
(X_462  0.1715686321258545)
(X_463  0.17549020051956177)
(X_464  0.19901961088180542)
(X_465  0.1872549057006836)
(X_466  0.0676470622420311)
(X_467  0.05588235333561897)
(X_468  0.05980392172932625)
(X_469  0.07941177487373352)
(X_470  0.10294118523597717)
(X_471  0.11862745881080627)
(X_472  0.2029411792755127)
(X_473  0.10294118523597717)
(X_474  0.10294118523597717)
(X_475  0.2029411792755127)
(X_476  0.0519607849419117)
(X_477  0.0519607849419117)
(X_478  0.05588235333561897)
(X_479  0.05588235333561897)
(X_480  0.05588235333561897)
(X_481  0.05588235333561897)
(X_482  0.0519607849419117)
(X_483  0.0519607849419117)
(X_484  0.04803921654820442)
(X_485  0.04803921654820442)
(X_486  0.04411764815449715)
(X_487  0.14411765336990356)
(X_488  0.14411765336990356)
(X_489  0.14411765336990356)
(X_490  0.14803922176361084)
(X_491  0.14803922176361084)
(X_492  0.16372549533843994)
(X_493  0.15196079015731812)
(X_494  0.04019607976078987)
(X_495  0.028431374579668045)
(X_496  0.13235294818878174)
(X_497  0.14803922176361084)
(X_498  0.16764706373214722)
(X_499  0.07941177487373352)
(X_500  0.07941177487373352)
(X_501  0.17941176891326904)
(X_502  0.07941177487373352)
(X_503  0.07941177487373352)
(X_504  0.036274511367082596)
(X_505  0.1401960849761963)
(X_506  0.14411765336990356)
(X_507  0.14411765336990356)
(X_508  0.14411765336990356)
(X_509  0.14411765336990356)
(X_510  0.1401960849761963)
(X_511  0.036274511367082596)
(X_512  0.12843137979507446)
(X_513  0.028431374579668045)
(X_514  0.02450980618596077)
(X_515  0.02450980618596077)
(X_516  0.12450980395078659)
(X_517  0.02450980618596077)
(X_518  0.028431374579668045)
(X_519  0.12843137979507446)
(X_520  0.12843137979507446)
(X_521  0.12058823555707932)
(X_522  0.11666666716337204)
(X_523  0.012745101936161518)
(X_524  0.012745101936161518)
(X_525  0.02450980618596077)
(X_526  0.03235294297337532)
(X_527  0.04019607976078987)
(X_528  0.04803921654820442)
(X_529  0.04803921654820442)
(X_530  0.04803921654820442)
(X_531  0.04803921654820442)
(X_532  0.02450980618596077)
(X_533  0.02450980618596077)
(X_534  0.028431374579668045)
(X_535  0.028431374579668045)
(X_536  0.12843137979507446)
(X_537  0.12843137979507446)
(X_538  0.12450980395078659)
(X_539  0.12450980395078659)
(X_540  0.02450980618596077)
(X_541  0.020588237792253494)
(X_542  0.01666666939854622)
(X_543  0.01666666939854622)
(X_544  0.01666666939854622)
(X_545  0.01666666939854622)
(X_546  0.020588237792253494)
(X_547  0.12450980395078659)
(X_548  0.11274509876966476)
(X_549  0.11274509876966476)
(X_550  0.11274509876966476)
(X_551  0.012745101936161518)
(X_552  0.01666666939854622)
(X_553  0.01666666939854622)
(X_554  0.020588237792253494)
(X_555  0.02450980618596077)
(X_556  0.020588237792253494)
(X_557  0.12058823555707932)
(X_558  0.12058823555707932)
(X_559  0.020588237792253494)
(X_560  0.008823529817163944)
(X_561  0.012745101936161518)
(X_562  0.01666666939854622)
(X_563  0.01666666939854622)
(X_564  0.01666666939854622)
(X_565  0.01666666939854622)
(X_566  0.012745101936161518)
(X_567  0.008823529817163944)
(X_568  0.01666666939854622)
(X_569  0.012745101936161518)
(X_570  0.012745101936161518)
(X_571  0.008823529817163944)
(X_572  0.008823529817163944)
(X_573  0.012745101936161518)
(X_574  0.012745101936161518)
(X_575  0.01666666939854622)
(X_576  0.008823529817163944)
(X_577  0.008823529817163944)
(X_578  0.11274509876966476)
(X_579  0.11666666716337204)
(X_580  0.01666666939854622)
(X_581  0.01666666939854622)
(X_582  0.01666666939854622)
(X_583  0.012745101936161518)
(X_584  0.008823529817163944)
(X_585  0.008823529817163944)
(X_586  0.008823529817163944)
(X_587  0.008823529817163944)
(X_588  0.0009803927969187498)
(X_589  0.10098039358854294)
(X_590  0.004901961423456669)
(X_591  0.008823529817163944)
(X_592  0.008823529817163944)
(X_593  0.004901961423456669)
(X_594  0.10098039358854294)
(X_595  0.10098039358854294)
(X_596  0.0009803927969187498)
(X_597  0.0009803927969187498)
(X_598  0.09705882519483566)
(X_599  0.09705882519483566)
(X_600  0.09705882519483566)
(X_601  0.09705882519483566)
(X_602  0.10098039358854294)
(X_603  0.10098039358854294)
(X_604  0.0009803927969187498)
(X_605  0.004901961423456669)
(X_606  0.10490196198225021)
(X_607  0.10882353037595749)
(X_608  0.10882353037595749)
(X_609  0.10882353037595749)
(X_610  0.004901961423456669)
(X_611  0.004901961423456669)
(X_612  0.0009803927969187498)
(X_613  0.10098039358854294)
(X_614  0.10098039358854294)
(X_615  0.10098039358854294)
(X_616  -0.0029411755967885256)
(X_617  0.09705882519483566)
(X_618  0.10098039358854294)
(X_619  0.10098039358854294)
(X_620  0.10098039358854294)
(X_621  0.0009803927969187498)
(X_622  -0.0029411755967885256)
(X_623  -0.0029411755967885256)
(X_624  0.09705882519483566)
(X_625  0.09313725680112839)
(X_626  0.09313725680112839)
(X_627  0.08921568840742111)
(X_628  0.08921568840742111)
(X_629  0.09313725680112839)
(X_630  0.09313725680112839)
(X_631  0.09705882519483566)
(X_632  0.10098039358854294)
(X_633  0.10098039358854294)
(X_634  0.10098039358854294)
(X_635  0.10098039358854294)
(X_636  0.10098039358854294)
(X_637  0.10098039358854294)
(X_638  0.09705882519483566)
(X_639  0.09705882519483566)
(X_640  0.10098039358854294)
(X_641  0.10098039358854294)
(X_642  0.10098039358854294)
(X_643  0.0009803927969187498)
(X_644  0.09313725680112839)
(X_645  0.09313725680112839)
(X_646  -0.0029411755967885256)
(X_647  0.0009803927969187498)
(X_648  0.0009803927969187498)
(X_649  0.09705882519483566)
(X_650  0.09313725680112839)
(X_651  0.09313725680112839)
(X_652  0.0009803927969187498)
(X_653  -0.0029411755967885256)
(X_654  -0.0029411755967885256)
(X_655  -0.006862743757665157)
(X_656  0.09313725680112839)
(X_657  0.09705882519483566)
(X_658  0.09705882519483566)
(X_659  0.10098039358854294)
(X_660  0.10490196198225021)
(X_661  0.004901961423456669)
(X_662  0.0009803927969187498)
(X_663  0.0009803927969187498)
(X_664  0.0009803927969187498)
(X_665  0.0009803927969187498)
(X_666  0.0009803927969187498)
(X_667  0.0009803927969187498)
(X_668  -0.0029411755967885256)
(X_669  -0.0029411755967885256)
(X_670  -0.0029411755967885256)
(X_671  0.09705882519483566)
(X_672  -0.0029411755967885256)
(X_673  0.09705882519483566)
(X_674  -0.0029411755967885256)
(X_675  0.09705882519483566)
(X_676  0.09705882519483566)
(X_677  0.09705882519483566)
(X_678  0.09705882519483566)
(X_679  0.09705882519483566)
(X_680  0.09705882519483566)
(X_681  0.09705882519483566)
(X_682  0.09705882519483566)
(X_683  0.09705882519483566)
(X_684  0.09705882519483566)
(X_685  0.09705882519483566)
(X_686  0.09705882519483566)
(X_687  0.09705882519483566)
(X_688  0.09313725680112839)
(X_689  0.09313725680112839)
(X_690  0.09313725680112839)
(X_691  0.09313725680112839)
(X_692  0.09313725680112839)
(X_693  0.09313725680112839)
(X_694  0.09313725680112839)
(X_695  0.09313725680112839)
(X_696  0.09705882519483566)
(X_697  -0.0029411755967885256)
(X_698  -0.0029411755967885256)
(X_699  0.09705882519483566)
(X_700  0.09313725680112839)
(X_701  0.09313725680112839)
(X_702  -0.006862743757665157)
(X_703  0.09313725680112839)
(X_704  0.09313725680112839)
(X_705  0.09313725680112839)
(X_706  0.09313725680112839)
(X_707  -0.006862743757665157)
(X_708  -0.006862743757665157)
(X_709  -0.006862743757665157)
(X_710  -0.006862743757665157)
(X_711  -0.006862743757665157)
(X_712  -0.006862743757665157)
(X_713  -0.006862743757665157)
(X_714  0.09313725680112839)
(X_715  0.09313725680112839)
(X_716  -0.006862743757665157)
(X_717  -0.006862743757665157)
(X_718  -0.006862743757665157)
(X_719  -0.006862743757665157)
(X_720  -0.006862743757665157)
(X_721  -0.006862743757665157)
(X_722  -0.006862743757665157)
(X_723  -0.006862743757665157)
(X_724  -0.0029411755967885256)
(X_725  -0.0029411755967885256)
(X_726  -0.0029411755967885256)
(X_727  -0.0029411755967885256)
(X_728  0.08921568840742111)
(X_729  0.08921568840742111)
(X_730  -0.010784312151372433)
(X_731  0.08921568840742111)
(X_732  0.08921568840742111)
(X_733  0.08921568840742111)
(X_734  0.08921568840742111)
(X_735  0.08921568840742111)
(X_736  -0.010784312151372433)
(X_737  -0.010784312151372433)
(X_738  -0.010784312151372433)
(X_739  -0.010784312151372433)
(X_740  -0.010784312151372433)
(X_741  -0.010784312151372433)
(X_742  -0.010784312151372433)
(X_743  -0.010784312151372433)
(X_744  -0.006862743757665157)
(X_745  -0.006862743757665157)
(X_746  -0.006862743757665157)
(X_747  -0.006862743757665157)
(X_748  -0.006862743757665157)
(X_749  -0.006862743757665157)
(X_750  0.09313725680112839)
(X_751  -0.006862743757665157)
(X_752  0.09705882519483566)
(X_753  0.09705882519483566)
(X_754  0.09705882519483566)
(X_755  0.09705882519483566)
(X_756  -0.014705880545079708)
(X_757  -0.014705880545079708)
(X_758  -0.014705880545079708)
(X_759  0.08529412001371384)
(X_760  0.08529412001371384)
(X_761  0.08529412001371384)
(X_762  0.08529412001371384)
(X_763  0.08529412001371384)
(X_764  0.08529412001371384)
(X_765  0.08529412001371384)
(X_766  0.08529412001371384)
(X_767  0.08529412001371384)
(X_768  0.08529412001371384)
(X_769  0.08529412001371384)
(X_770  0.08529412001371384)
(X_771  0.08529412001371384)
(X_772  0.08921568840742111)
(X_773  -0.010784312151372433)
(X_774  -0.010784312151372433)
(X_775  -0.010784312151372433)
(X_776  -0.010784312151372433)
(X_777  -0.010784312151372433)
(X_778  -0.010784312151372433)
(X_779  0.08921568840742111)
(X_780  0.09313725680112839)
(X_781  -0.006862743757665157)
(X_782  -0.006862743757665157)
(X_783  -0.006862743757665157)
(Y_0 22.989471435546875)
(Y_1 12.57870101928711)
(Y_2 2.927635431289673)
(Y_3 -40.445377349853516))