((X_0  0.9303921461105347)
(X_1  0.9460784196853638)
(X_2  0.949999988079071)
(X_3  0.949999988079071)
(X_4  0.949999988079071)
(X_5  0.9382352828979492)
(X_6  1.034313678741455)
(X_7  1.034313678741455)
(X_8  1.0499999523162842)
(X_9  1.0382353067398071)
(X_10  1.022549033164978)
(X_11  1.0264705419540405)
(X_12  1.0382353067398071)
(X_13  1.034313678741455)
(X_14  0.9147058725357056)
(X_15  0.8950980305671692)
(X_16  0.9186274409294128)
(X_17  0.9147058725357056)
(X_18  0.906862735748291)
(X_19  0.9029411673545837)
(X_20  0.8990195989608765)
(X_21  0.8950980305671692)
(X_22  0.9950980544090271)
(X_23  0.9950980544090271)
(X_24  0.8754901885986328)
(X_25  0.8754901885986328)
(X_26  0.8754901885986328)
(X_27  0.8794117569923401)
(X_28  0.4049019515514374)
(X_29  0.41274508833885193)
(X_30  0.4205882251262665)
(X_31  0.5127450823783875)
(X_32  0.49705883860588074)
(X_33  0.385294109582901)
(X_34  0.3813725411891937)
(X_35  0.3813725411891937)
(X_36  0.3656862676143646)
(X_37  0.45000001788139343)
(X_38  0.43431374430656433)
(X_39  0.43431374430656433)
(X_40  0.44607844948768616)
(X_41  0.44607844948768616)
(X_42  0.43431374430656433)
(X_43  0.41862747073173523)
(X_44  0.3754902184009552)
(X_45  0.3715686500072479)
(X_46  0.36764708161354065)
(X_47  0.3637255132198334)
(X_48  0.3637255132198334)
(X_49  0.3598039448261261)
(X_50  0.3598039448261261)
(X_51  0.3598039448261261)
(X_52  0.33235296607017517)
(X_53  0.33235296607017517)
(X_54  0.33235296607017517)
(X_55  0.33627453446388245)
(X_56  0.11666666716337204)
(X_57  0.12450980395078659)
(X_58  0.03235294297337532)
(X_59  0.13235294818878174)
(X_60  0.12843137979507446)
(X_61  0.12843137979507446)
(X_62  0.036274511367082596)
(X_63  0.04411764815449715)
(X_64  0.15980392694473267)
(X_65  0.14411765336990356)
(X_66  0.12843137979507446)
(X_67  0.12843137979507446)
(X_68  0.1401960849761963)
(X_69  0.14411765336990356)
(X_70  0.1401960849761963)
(X_71  0.13235294818878174)
(X_72  0.136274516582489)
(X_73  0.036274511367082596)
(X_74  0.036274511367082596)
(X_75  0.036274511367082596)
(X_76  0.036274511367082596)
(X_77  0.136274516582489)
(X_78  0.136274516582489)
(X_79  0.136274516582489)
(X_80  0.15196079015731812)
(X_81  0.15196079015731812)
(X_82  0.15196079015731812)
(X_83  0.1558823585510254)
(X_84  0.0009803927969187498)
(X_85  0.008823529817163944)
(X_86  0.01666666939854622)
(X_87  0.02450980618596077)
(X_88  0.028431374579668045)
(X_89  0.028431374579668045)
(X_90  0.13235294818878174)
(X_91  0.13235294818878174)
(X_92  0.15196079015731812)
(X_93  0.136274516582489)
(X_94  0.12450980395078659)
(X_95  0.020588237792253494)
(X_96  0.028431374579668045)
(X_97  0.04019607976078987)
(X_98  0.04411764815449715)
(X_99  0.04019607976078987)
(X_100  0.04411764815449715)
(X_101  0.04803921654820442)
(X_102  0.0519607849419117)
(X_103  0.15196079015731812)
(X_104  0.1558823585510254)
(X_105  0.1558823585510254)
(X_106  0.1558823585510254)
(X_107  0.1558823585510254)
(X_108  0.028431374579668045)
(X_109  0.028431374579668045)
(X_110  0.13235294818878174)
(X_111  0.03235294297337532)
(X_112  0.1401960849761963)
(X_113  0.14411765336990356)
(X_114  0.14803922176361084)
(X_115  0.15196079015731812)
(X_116  0.14803922176361084)
(X_117  0.1401960849761963)
(X_118  0.028431374579668045)
(X_119  0.020588237792253494)
(X_120  0.04411764815449715)
(X_121  0.03235294297337532)
(X_122  0.02450980618596077)
(X_123  0.020588237792253494)
(X_124  0.12450980395078659)
(X_125  0.036274511367082596)
(X_126  0.04019607976078987)
(X_127  0.04411764815449715)
(X_128  0.012745101936161518)
(X_129  0.01666666939854622)
(X_130  0.020588237792253494)
(X_131  0.028431374579668045)
(X_132  0.13235294818878174)
(X_133  0.13235294818878174)
(X_134  0.028431374579668045)
(X_135  0.028431374579668045)
(X_136  0.14803922176361084)
(X_137  0.15196079015731812)
(X_138  0.15196079015731812)
(X_139  0.0519607849419117)
(X_140  0.01666666939854622)
(X_141  0.012745101936161518)
(X_142  0.01666666939854622)
(X_143  0.12450980395078659)
(X_144  0.13235294818878174)
(X_145  0.13235294818878174)
(X_146  0.12450980395078659)
(X_147  0.01666666939854622)
(X_148  0.14411765336990356)
(X_149  0.1401960849761963)
(X_150  0.136274516582489)
(X_151  0.13235294818878174)
(X_152  0.13235294818878174)
(X_153  0.136274516582489)
(X_154  0.04411764815449715)
(X_155  0.14803922176361084)
(X_156  0.03235294297337532)
(X_157  0.136274516582489)
(X_158  0.14411765336990356)
(X_159  0.14803922176361084)
(X_160  0.15196079015731812)
(X_161  0.14803922176361084)
(X_162  0.14411765336990356)
(X_163  0.14411765336990356)
(X_164  0.12058823555707932)
(X_165  0.12058823555707932)
(X_166  0.12450980395078659)
(X_167  0.12450980395078659)
(X_168  0.05588235333561897)
(X_169  0.04019607976078987)
(X_170  0.02450980618596077)
(X_171  0.02450980618596077)
(X_172  0.03235294297337532)
(X_173  0.04411764815449715)
(X_174  0.04803921654820442)
(X_175  0.04411764815449715)
(X_176  0.02450980618596077)
(X_177  0.02450980618596077)
(X_178  0.02450980618596077)
(X_179  0.12450980395078659)
(X_180  0.12058823555707932)
(X_181  0.12058823555707932)
(X_182  0.020588237792253494)
(X_183  0.12450980395078659)
(X_184  0.0009803927969187498)
(X_185  0.008823529817163944)
(X_186  0.01666666939854622)
(X_187  0.12058823555707932)
(X_188  0.12058823555707932)
(X_189  0.11666666716337204)
(X_190  0.012745101936161518)
(X_191  0.008823529817163944)
(X_192  0.02450980618596077)
(X_193  0.12450980395078659)
(X_194  0.12843137979507446)
(X_195  0.12843137979507446)
(X_196  0.24607843160629272)
(X_197  0.21078431606292725)
(X_198  0.16372549533843994)
(X_199  0.12843137979507446)
(X_200  0.012745101936161518)
(X_201  0.008823529817163944)
(X_202  0.008823529817163944)
(X_203  0.004901961423456669)
(X_204  0.008823529817163944)
(X_205  0.012745101936161518)
(X_206  0.020588237792253494)
(X_207  0.11666666716337204)
(X_208  0.11274509876966476)
(X_209  0.004901961423456669)
(X_210  0.004901961423456669)
(X_211  0.004901961423456669)
(X_212  0.10882353037595749)
(X_213  0.11274509876966476)
(X_214  0.12058823555707932)
(X_215  0.12450980395078659)
(X_216  0.12450980395078659)
(X_217  0.020588237792253494)
(X_218  0.012745101936161518)
(X_219  0.004901961423456669)
(X_220  0.008823529817163944)
(X_221  0.012745101936161518)
(X_222  0.012745101936161518)
(X_223  0.012745101936161518)
(X_224  0.5009803771972656)
(X_225  0.47745099663734436)
(X_226  0.4382353127002716)
(X_227  0.387254923582077)
(X_228  0.22058825194835663)
(X_229  0.13431373238563538)
(X_230  0.04803921654820442)
(X_231  -0.010784312151372433)
(X_232  0.12058823555707932)
(X_233  0.11666666716337204)
(X_234  0.12058823555707932)
(X_235  0.12450980395078659)
(X_236  0.12450980395078659)
(X_237  0.12058823555707932)
(X_238  0.11666666716337204)
(X_239  0.12450980395078659)
(X_240  0.12450980395078659)
(X_241  0.028431374579668045)
(X_242  0.020588237792253494)
(X_243  0.11274509876966476)
(X_244  0.11274509876966476)
(X_245  0.020588237792253494)
(X_246  0.02450980618596077)
(X_247  0.12450980395078659)
(X_248  0.028431374579668045)
(X_249  0.020588237792253494)
(X_250  0.01666666939854622)
(X_251  0.11274509876966476)
(X_252  0.43039217591285706)
(X_253  0.44607844948768616)
(X_254  0.3735294044017792)
(X_255  0.49313727021217346)
(X_256  0.4852941334247589)
(X_257  0.45000001788139343)
(X_258  0.39901962876319885)
(X_259  0.2598039209842682)
(X_260  0.10294118523597717)
(X_261  0.07941177487373352)
(X_262  0.15196079015731812)
(X_263  0.14411765336990356)
(X_264  0.1558823585510254)
(X_265  0.18333333730697632)
(X_266  0.21470588445663452)
(X_267  0.23823529481887817)
(X_268  0.10686275362968445)
(X_269  0.15784314274787903)
(X_270  0.2245098203420639)
(X_271  0.27941176295280457)
(X_272  0.3029411733150482)
(X_273  0.2911764681339264)
(X_274  0.2558823525905609)
(X_275  0.2245098203420639)
(X_276  0.15392157435417175)
(X_277  0.15392157435417175)
(X_278  0.25)
(X_279  0.24607843160629272)
(X_280  0.24803923070430756)
(X_281  0.25196078419685364)
(X_282  0.2598039209842682)
(X_283  0.26372548937797546)
(X_284  0.36764708161354065)
(X_285  0.3794117867946625)
(X_286  0.29509803652763367)
(X_287  0.3068627417087555)
(X_288  0.3382352888584137)
(X_289  0.3068627417087555)
(X_290  0.36764708161354065)
(X_291  0.3480392396450043)
(X_292  0.36764708161354065)
(X_293  0.4068627655506134)
(X_294  0.34215685725212097)
(X_295  0.3578431308269501)
(X_296  0.5088235139846802)
(X_297  0.5049019455909729)
(X_298  0.4009803831577301)
(X_299  0.4009803831577301)
(X_300  0.4009803831577301)
(X_301  0.4049019515514374)
(X_302  0.40882351994514465)
(X_303  0.41274508833885193)
(X_304  0.42450979351997375)
(X_305  0.44019606709480286)
(X_306  0.46764707565307617)
(X_307  0.595098078250885)
(X_308  0.28333333134651184)
(X_309  0.27156862616539)
(X_310  0.24411766231060028)
(X_311  0.20490197837352753)
(X_312  0.18137255311012268)
(X_313  0.18529412150382996)
(X_314  0.21274511516094208)
(X_315  0.33627453446388245)
(X_316  0.2245098203420639)
(X_317  0.21666668355464935)
(X_318  0.21274511516094208)
(X_319  0.22058825194835663)
(X_320  0.3598039448261261)
(X_321  0.40294119715690613)
(X_322  0.4225490391254425)
(X_323  0.41862747073173523)
(X_324  0.3029411733150482)
(X_325  0.4107843339443207)
(X_326  0.4382353127002716)
(X_327  0.3735294044017792)
(X_328  0.39313724637031555)
(X_329  0.39313724637031555)
(X_330  0.39313724637031555)
(X_331  0.4009803831577301)
(X_332  0.4735294282436371)
(X_333  0.4852941334247589)
(X_334  0.49705883860588074)
(X_335  0.5088235139846802)
(X_336  0.479411780834198)
(X_337  0.5794118046760559)
(X_338  0.4637255072593689)
(X_339  0.520588219165802)
(X_340  0.457843154668808)
(X_341  0.39901962876319885)
(X_342  0.2598039209842682)
(X_343  0.24803923070430756)
(X_344  0.35196080803871155)
(X_345  0.3558823764324188)
(X_346  0.344117671251297)
(X_347  0.3284313976764679)
(X_348  0.3284313976764679)
(X_349  0.344117671251297)
(X_350  0.3284313976764679)
(X_351  0.20098040997982025)
(X_352  0.26764705777168274)
(X_353  0.3637255132198334)
(X_354  0.3794117867946625)
(X_355  0.41470590233802795)
(X_356  0.32647058367729187)
(X_357  0.31078431010246277)
(X_358  0.31078431010246277)
(X_359  0.3225490152835846)
(X_360  0.4225490391254425)
(X_361  0.4225490391254425)
(X_362  0.41862747073173523)
(X_363  0.41862747073173523)
(X_364  0.2598039209842682)
(X_365  0.28333333134651184)
(X_366  0.3225490152835846)
(X_367  0.46568629145622253)
(X_368  0.5088235139846802)
(X_369  0.5480391979217529)
(X_370  0.5872549414634705)
(X_371  0.6068627834320068)
(X_372  0.479411780834198)
(X_373  0.4911764860153198)
(X_374  0.5754902362823486)
(X_375  0.5362744927406311)
(X_376  0.5245097875595093)
(X_377  0.5401960611343384)
(X_378  0.5441176295280457)
(X_379  0.5245097875595093)
(X_380  0.5401960611343384)
(X_381  0.5009803771972656)
(X_382  0.3656862676143646)
(X_383  0.3499999940395355)
(X_384  0.3186274468898773)
(X_385  0.2754901945590973)
(X_386  0.2598039209842682)
(X_387  0.2754901945590973)
(X_388  0.33627453446388245)
(X_389  0.33235296607017517)
(X_390  0.22843138873577118)
(X_391  0.3284313976764679)
(X_392  0.23235295712947845)
(X_393  0.21666668355464935)
(X_394  0.20098040997982025)
(X_395  0.30098041892051697)
(X_396  0.22058825194835663)
(X_397  0.2558823525905609)
(X_398  0.2872548997402191)
(X_399  0.3068627417087555)
(X_400  0.3343137204647064)
(X_401  0.48137256503105164)
(X_402  0.5049019455909729)
(X_403  0.3970588147640228)
(X_404  0.4166666567325592)
(X_405  0.4754902124404907)
(X_406  0.5147058963775635)
(X_407  0.6225490570068359)
(X_408  0.46764707565307617)
(X_409  0.47156864404678345)
(X_410  0.5147058963775635)
(X_411  0.5696078538894653)
(X_412  0.5696078538894653)
(X_413  0.6107843518257141)
(X_414  0.5676470994949341)
(X_415  0.5637255311012268)
(X_416  0.45588237047195435)
(X_417  0.44019606709480286)
(X_418  0.520588219165802)
(X_419  0.49705883860588074)
(X_420  0.16960784792900085)
(X_421  0.2656862735748291)
(X_422  0.2696078419685364)
(X_423  0.28921568393707275)
(X_424  0.31666669249534607)
(X_425  0.33235296607017517)
(X_426  0.33235296607017517)
(X_427  0.3245098292827606)
(X_428  0.3245098292827606)
(X_429  0.3794117867946625)
(X_430  0.40294119715690613)
(X_431  0.36764708161354065)
(X_432  0.3401961028575897)
(X_433  0.35196080803871155)
(X_434  0.3598039448261261)
(X_435  0.344117671251297)
(X_436  0.22058825194835663)
(X_437  0.18921568989753723)
(X_438  0.19705882668495178)
(X_439  0.24411766231060028)
(X_440  0.3754902184009552)
(X_441  0.2872548997402191)
(X_442  0.32647058367729187)
(X_443  0.37745097279548645)
(X_444  0.4009803831577301)
(X_445  0.5009803771972656)
(X_446  0.49313727021217346)
(X_447  0.3892156779766083)
(X_448  0.10686275362968445)
(X_449  0.22254902124404907)
(X_450  0.2343137264251709)
(X_451  0.2343137264251709)
(X_452  0.23039215803146362)
(X_453  0.23039215803146362)
(X_454  0.24215686321258545)
(X_455  0.15392157435417175)
(X_456  0.1774509847164154)
(X_457  0.1774509847164154)
(X_458  0.1774509847164154)
(X_459  0.1774509847164154)
(X_460  0.1774509847164154)
(X_461  0.2774509787559509)
(X_462  0.2774509787559509)
(X_463  0.2774509787559509)
(X_464  0.27352941036224365)
(X_465  0.2696078419685364)
(X_466  0.16568627953529358)
(X_467  0.17352941632270813)
(X_468  0.18921568989753723)
(X_469  0.2088235467672348)
(X_470  0.22058825194835663)
(X_471  0.2245098203420639)
(X_472  0.3558823764324188)
(X_473  0.3598039448261261)
(X_474  0.3637255132198334)
(X_475  0.36764708161354065)
(X_476  0.07941177487373352)
(X_477  0.09117648005485535)
(X_478  0.0990196168422699)
(X_479  0.10294118523597717)
(X_480  0.0990196168422699)
(X_481  0.0990196168422699)
(X_482  0.11078432202339172)
(X_483  0.11862745881080627)
(X_484  0.114705890417099)
(X_485  0.114705890417099)
(X_486  0.114705890417099)
(X_487  0.114705890417099)
(X_488  0.21470588445663452)
(X_489  0.21470588445663452)
(X_490  0.21470588445663452)
(X_491  0.21470588445663452)
(X_492  0.21078431606292725)
(X_493  0.10294118523597717)
(X_494  0.0990196168422699)
(X_495  0.10686275362968445)
(X_496  0.12254902720451355)
(X_497  0.23823529481887817)
(X_498  0.25)
(X_499  0.2539215683937073)
(X_500  0.15784314274787903)
(X_501  0.2617647051811218)
(X_502  0.16960784792900085)
(X_503  0.17352941632270813)
(X_504  0.04019607976078987)
(X_505  0.14803922176361084)
(X_506  0.1558823585510254)
(X_507  0.1558823585510254)
(X_508  0.1558823585510254)
(X_509  0.05588235333561897)
(X_510  0.16372549533843994)
(X_511  0.07156863063573837)
(X_512  0.16764706373214722)
(X_513  0.0676470622420311)
(X_514  0.0676470622420311)
(X_515  0.0676470622420311)
(X_516  0.16764706373214722)
(X_517  0.16764706373214722)
(X_518  0.16764706373214722)
(X_519  0.16764706373214722)
(X_520  0.15980392694473267)
(X_521  0.1558823585510254)
(X_522  0.15196079015731812)
(X_523  0.05980392172932625)
(X_524  0.07156863063573837)
(X_525  0.08725491166114807)
(X_526  0.09509804844856262)
(X_527  0.09509804844856262)
(X_528  0.0833333432674408)
(X_529  0.1872549057006836)
(X_530  0.09509804844856262)
(X_531  0.10294118523597717)
(X_532  0.01666666939854622)
(X_533  0.020588237792253494)
(X_534  0.02450980618596077)
(X_535  0.02450980618596077)
(X_536  0.02450980618596077)
(X_537  0.12450980395078659)
(X_538  0.12843137979507446)
(X_539  0.03235294297337532)
(X_540  0.04411764815449715)
(X_541  0.04411764815449715)
(X_542  0.04411764815449715)
(X_543  0.14411765336990356)
(X_544  0.04411764815449715)
(X_545  0.04411764815449715)
(X_546  0.04411764815449715)
(X_547  0.14411765336990356)
(X_548  0.136274516582489)
(X_549  0.13235294818878174)
(X_550  0.12843137979507446)
(X_551  0.03235294297337532)
(X_552  0.04411764815449715)
(X_553  0.05588235333561897)
(X_554  0.05980392172932625)
(X_555  0.05980392172932625)
(X_556  0.0519607849419117)
(X_557  0.05980392172932625)
(X_558  0.06372549384832382)
(X_559  0.07156863063573837)
(X_560  0.008823529817163944)
(X_561  0.10882353037595749)
(X_562  0.008823529817163944)
(X_563  0.008823529817163944)
(X_564  0.012745101936161518)
(X_565  0.012745101936161518)
(X_566  0.012745101936161518)
(X_567  0.012745101936161518)
(X_568  0.11666666716337204)
(X_569  0.01666666939854622)
(X_570  0.01666666939854622)
(X_571  0.01666666939854622)
(X_572  0.11666666716337204)
(X_573  0.11666666716337204)
(X_574  0.01666666939854622)
(X_575  0.01666666939854622)
(X_576  0.012745101936161518)
(X_577  0.10490196198225021)
(X_578  0.10098039358854294)
(X_579  0.10882353037595749)
(X_580  0.11666666716337204)
(X_581  0.12450980395078659)
(X_582  0.02450980618596077)
(X_583  0.020588237792253494)
(X_584  0.02450980618596077)
(X_585  0.12843137979507446)
(X_586  0.13235294818878174)
(X_587  0.1401960849761963)
(X_588  0.11274509876966476)
(X_589  0.10490196198225021)
(X_590  0.10098039358854294)
(X_591  0.10490196198225021)
(X_592  0.10882353037595749)
(X_593  0.008823529817163944)
(X_594  0.004901961423456669)
(X_595  -0.0029411755967885256)
(X_596  0.004901961423456669)
(X_597  0.004901961423456669)
(X_598  0.004901961423456669)
(X_599  0.10490196198225021)
(X_600  0.10490196198225021)
(X_601  0.10490196198225021)
(X_602  0.10490196198225021)
(X_603  0.10490196198225021)
(X_604  0.004901961423456669)
(X_605  0.0009803927969187498)
(X_606  -0.0029411755967885256)
(X_607  0.10098039358854294)
(X_608  0.10882353037595749)
(X_609  0.012745101936161518)
(X_610  0.008823529817163944)
(X_611  0.0009803927969187498)
(X_612  0.10490196198225021)
(X_613  0.10882353037595749)
(X_614  0.012745101936161518)
(X_615  0.12058823555707932)
(X_616  0.012745101936161518)
(X_617  0.10098039358854294)
(X_618  0.09313725680112839)
(X_619  0.09705882519483566)
(X_620  0.10490196198225021)
(X_621  0.004901961423456669)
(X_622  -0.0029411755967885256)
(X_623  -0.010784312151372433)
(X_624  0.10490196198225021)
(X_625  0.10490196198225021)
(X_626  0.10490196198225021)
(X_627  0.004901961423456669)
(X_628  0.004901961423456669)
(X_629  0.10490196198225021)
(X_630  0.10490196198225021)
(X_631  0.10490196198225021)
(X_632  0.012745101936161518)
(X_633  0.004901961423456669)
(X_634  0.10098039358854294)
(X_635  0.10490196198225021)
(X_636  0.11274509876966476)
(X_637  0.012745101936161518)
(X_638  0.10490196198225021)
(X_639  0.09705882519483566)
(X_640  0.10098039358854294)
(X_641  0.10490196198225021)
(X_642  0.10490196198225021)
(X_643  0.10882353037595749)
(X_644  0.10882353037595749)
(X_645  0.09705882519483566)
(X_646  -0.010784312151372433)
(X_647  -0.010784312151372433)
(X_648  -0.0029411755967885256)
(X_649  -0.0029411755967885256)
(X_650  0.08921568840742111)
(X_651  0.07745098322629929)
(X_652  0.08921568840742111)
(X_653  -0.010784312151372433)
(X_654  -0.010784312151372433)
(X_655  -0.010784312151372433)
(X_656  0.08921568840742111)
(X_657  0.08921568840742111)
(X_658  0.08921568840742111)
(X_659  0.08921568840742111)
(X_660  0.10098039358854294)
(X_661  0.09313725680112839)
(X_662  -0.006862743757665157)
(X_663  -0.006862743757665157)
(X_664  -0.0029411755967885256)
(X_665  -0.0029411755967885256)
(X_666  -0.010784312151372433)
(X_667  -0.018627449870109558)
(X_668  -0.010784312151372433)
(X_669  -0.010784312151372433)
(X_670  -0.006862743757665157)
(X_671  0.09313725680112839)
(X_672  -0.014705880545079708)
(X_673  0.08529412001371384)
(X_674  -0.014705880545079708)
(X_675  0.08529412001371384)
(X_676  0.08529412001371384)
(X_677  0.08529412001371384)
(X_678  0.08529412001371384)
(X_679  0.08529412001371384)
(X_680  0.08529412001371384)
(X_681  0.08921568840742111)
(X_682  0.08921568840742111)
(X_683  -0.006862743757665157)
(X_684  -0.006862743757665157)
(X_685  0.08921568840742111)
(X_686  0.08921568840742111)
(X_687  0.08529412001371384)
(X_688  0.08921568840742111)
(X_689  0.08921568840742111)
(X_690  0.08921568840742111)
(X_691  0.08921568840742111)
(X_692  0.08921568840742111)
(X_693  0.08921568840742111)
(X_694  0.08921568840742111)
(X_695  0.08921568840742111)
(X_696  0.09313725680112839)
(X_697  -0.006862743757665157)
(X_698  -0.006862743757665157)
(X_699  0.09313725680112839)
(X_700  0.08529412001371384)
(X_701  0.08529412001371384)
(X_702  0.08529412001371384)
(X_703  0.08529412001371384)
(X_704  0.08529412001371384)
(X_705  0.08529412001371384)
(X_706  0.08529412001371384)
(X_707  -0.014705880545079708)
(X_708  -0.014705880545079708)
(X_709  -0.010784312151372433)
(X_710  -0.010784312151372433)
(X_711  -0.006862743757665157)
(X_712  -0.006862743757665157)
(X_713  -0.010784312151372433)
(X_714  0.08921568840742111)
(X_715  0.08529412001371384)
(X_716  -0.010784312151372433)
(X_717  -0.010784312151372433)
(X_718  -0.010784312151372433)
(X_719  -0.010784312151372433)
(X_720  -0.010784312151372433)
(X_721  -0.010784312151372433)
(X_722  -0.010784312151372433)
(X_723  -0.010784312151372433)
(X_724  -0.006862743757665157)
(X_725  -0.006862743757665157)
(X_726  -0.006862743757665157)
(X_727  -0.006862743757665157)
(X_728  0.08529412001371384)
(X_729  0.08529412001371384)
(X_730  -0.014705880545079708)
(X_731  0.08529412001371384)
(X_732  0.08529412001371384)
(X_733  0.08529412001371384)
(X_734  0.08529412001371384)
(X_735  0.08529412001371384)
(X_736  -0.014705880545079708)
(X_737  -0.010784312151372433)
(X_738  -0.010784312151372433)
(X_739  -0.006862743757665157)
(X_740  -0.006862743757665157)
(X_741  -0.010784312151372433)
(X_742  -0.010784312151372433)
(X_743  -0.014705880545079708)
(X_744  -0.010784312151372433)
(X_745  -0.010784312151372433)
(X_746  -0.010784312151372433)
(X_747  -0.010784312151372433)
(X_748  -0.010784312151372433)
(X_749  0.08921568840742111)
(X_750  0.08921568840742111)
(X_751  0.08921568840742111)
(X_752  0.09313725680112839)
(X_753  -0.006862743757665157)
(X_754  0.09313725680112839)
(X_755  0.09313725680112839)
(X_756  -0.014705880545079708)
(X_757  -0.014705880545079708)
(X_758  -0.014705880545079708)
(X_759  0.08529412001371384)
(X_760  0.08529412001371384)
(X_761  0.08529412001371384)
(X_762  0.08529412001371384)
(X_763  0.08529412001371384)
(X_764  0.08529412001371384)
(X_765  0.08921568840742111)
(X_766  0.08921568840742111)
(X_767  0.09313725680112839)
(X_768  0.09313725680112839)
(X_769  0.08921568840742111)
(X_770  0.08921568840742111)
(X_771  0.08529412001371384)
(X_772  0.08921568840742111)
(X_773  -0.010784312151372433)
(X_774  -0.010784312151372433)
(X_775  -0.010784312151372433)
(X_776  -0.010784312151372433)
(X_777  -0.010784312151372433)
(X_778  0.08921568840742111)
(X_779  0.08921568840742111)
(X_780  0.08921568840742111)
(X_781  -0.010784312151372433)
(X_782  -0.010784312151372433)
(X_783  0.08921568840742111)
(Y_0 38.428714752197266)
(Y_1 -12.121091842651367)
(Y_2 11.30602741241455)
(Y_3 -39.20598602294922))