((X_0  0.15196079015731812)
(X_1  0.0519607849419117)
(X_2  0.05588235333561897)
(X_3  0.05588235333561897)
(X_4  0.05588235333561897)
(X_5  0.15196079015731812)
(X_6  0.14803922176361084)
(X_7  0.04411764815449715)
(X_8  0.13235294818878174)
(X_9  0.13235294818878174)
(X_10  0.136274516582489)
(X_11  0.136274516582489)
(X_12  0.1401960849761963)
(X_13  0.1401960849761963)
(X_14  0.1401960849761963)
(X_15  0.04019607976078987)
(X_16  0.04019607976078987)
(X_17  0.04019607976078987)
(X_18  0.04019607976078987)
(X_19  0.04019607976078987)
(X_20  0.04019607976078987)
(X_21  0.1401960849761963)
(X_22  0.04019607976078987)
(X_23  0.04019607976078987)
(X_24  0.136274516582489)
(X_25  0.136274516582489)
(X_26  0.036274511367082596)
(X_27  0.136274516582489)
(X_28  0.12058823555707932)
(X_29  0.12450980395078659)
(X_30  0.028431374579668045)
(X_31  0.028431374579668045)
(X_32  0.028431374579668045)
(X_33  0.028431374579668045)
(X_34  0.02450980618596077)
(X_35  0.02450980618596077)
(X_36  0.036274511367082596)
(X_37  0.036274511367082596)
(X_38  0.036274511367082596)
(X_39  0.036274511367082596)
(X_40  0.04019607976078987)
(X_41  0.04411764815449715)
(X_42  0.15196079015731812)
(X_43  0.05588235333561897)
(X_44  0.136274516582489)
(X_45  0.036274511367082596)
(X_46  0.136274516582489)
(X_47  0.036274511367082596)
(X_48  0.036274511367082596)
(X_49  0.036274511367082596)
(X_50  0.036274511367082596)
(X_51  0.036274511367082596)
(X_52  0.14411765336990356)
(X_53  0.14411765336990356)
(X_54  0.04411764815449715)
(X_55  0.14411765336990356)
(X_56  0.13235294818878174)
(X_57  0.036274511367082596)
(X_58  0.04019607976078987)
(X_59  0.04019607976078987)
(X_60  0.04411764815449715)
(X_61  0.04019607976078987)
(X_62  0.04019607976078987)
(X_63  0.036274511367082596)
(X_64  0.028431374579668045)
(X_65  0.028431374579668045)
(X_66  0.02450980618596077)
(X_67  0.02450980618596077)
(X_68  0.12450980395078659)
(X_69  0.028431374579668045)
(X_70  0.03235294297337532)
(X_71  0.03235294297337532)
(X_72  0.03235294297337532)
(X_73  0.03235294297337532)
(X_74  0.03235294297337532)
(X_75  0.03235294297337532)
(X_76  0.13235294818878174)
(X_77  0.13235294818878174)
(X_78  0.13235294818878174)
(X_79  0.13235294818878174)
(X_80  0.1401960849761963)
(X_81  0.1401960849761963)
(X_82  0.04019607976078987)
(X_83  0.1401960849761963)
(X_84  0.12058823555707932)
(X_85  0.020588237792253494)
(X_86  0.020588237792253494)
(X_87  0.12450980395078659)
(X_88  0.12058823555707932)
(X_89  0.12058823555707932)
(X_90  0.11666666716337204)
(X_91  0.012745101936161518)
(X_92  0.12058823555707932)
(X_93  0.020588237792253494)
(X_94  0.02450980618596077)
(X_95  0.02450980618596077)
(X_96  0.12058823555707932)
(X_97  0.11666666716337204)
(X_98  0.11274509876966476)
(X_99  0.10882353037595749)
(X_100  0.12450980395078659)
(X_101  0.12450980395078659)
(X_102  0.12450980395078659)
(X_103  0.12450980395078659)
(X_104  0.12450980395078659)
(X_105  0.02450980618596077)
(X_106  0.02450980618596077)
(X_107  0.02450980618596077)
(X_108  0.12843137979507446)
(X_109  0.028431374579668045)
(X_110  0.028431374579668045)
(X_111  0.12843137979507446)
(X_112  0.02450980618596077)
(X_113  0.028431374579668045)
(X_114  0.12843137979507446)
(X_115  0.12843137979507446)
(X_116  0.12450980395078659)
(X_117  0.12058823555707932)
(X_118  0.01666666939854622)
(X_119  0.11274509876966476)
(X_120  0.11274509876966476)
(X_121  0.020588237792253494)
(X_122  0.028431374579668045)
(X_123  0.036274511367082596)
(X_124  0.036274511367082596)
(X_125  0.03235294297337532)
(X_126  0.02450980618596077)
(X_127  0.020588237792253494)
(X_128  0.12058823555707932)
(X_129  0.12058823555707932)
(X_130  0.12058823555707932)
(X_131  0.12058823555707932)
(X_132  0.12058823555707932)
(X_133  0.12058823555707932)
(X_134  0.020588237792253494)
(X_135  0.12058823555707932)
(X_136  0.020588237792253494)
(X_137  0.020588237792253494)
(X_138  0.12058823555707932)
(X_139  0.12058823555707932)
(X_140  0.11666666716337204)
(X_141  0.12058823555707932)
(X_142  0.12450980395078659)
(X_143  0.12843137979507446)
(X_144  0.12843137979507446)
(X_145  0.028431374579668045)
(X_146  0.028431374579668045)
(X_147  0.12450980395078659)
(X_148  0.11666666716337204)
(X_149  0.11666666716337204)
(X_150  0.12058823555707932)
(X_151  0.12058823555707932)
(X_152  0.12450980395078659)
(X_153  0.12450980395078659)
(X_154  0.12450980395078659)
(X_155  0.12450980395078659)
(X_156  0.020588237792253494)
(X_157  0.020588237792253494)
(X_158  0.020588237792253494)
(X_159  0.12058823555707932)
(X_160  0.12058823555707932)
(X_161  0.020588237792253494)
(X_162  0.020588237792253494)
(X_163  0.12058823555707932)
(X_164  0.02450980618596077)
(X_165  0.02450980618596077)
(X_166  0.12450980395078659)
(X_167  0.12450980395078659)
(X_168  0.03235294297337532)
(X_169  0.04019607976078987)
(X_170  0.14803922176361084)
(X_171  0.15980392694473267)
(X_172  0.1715686321258545)
(X_173  0.17941176891326904)
(X_174  0.0833333432674408)
(X_175  0.18333333730697632)
(X_176  0.19117647409439087)
(X_177  0.1715686321258545)
(X_178  0.14803922176361084)
(X_179  0.12058823555707932)
(X_180  0.10882353037595749)
(X_181  0.10882353037595749)
(X_182  0.11666666716337204)
(X_183  0.12450980395078659)
(X_184  0.12450980395078659)
(X_185  0.12450980395078659)
(X_186  0.12450980395078659)
(X_187  0.12450980395078659)
(X_188  0.02450980618596077)
(X_189  0.02450980618596077)
(X_190  0.02450980618596077)
(X_191  0.12450980395078659)
(X_192  0.12058823555707932)
(X_193  0.12058823555707932)
(X_194  0.12058823555707932)
(X_195  0.12058823555707932)
(X_196  0.18529412150382996)
(X_197  0.29313725233078003)
(X_198  0.3088235557079315)
(X_199  0.3284313976764679)
(X_200  0.344117671251297)
(X_201  0.3598039448261261)
(X_202  0.36764708161354065)
(X_203  0.3754902184009552)
(X_204  0.20098040997982025)
(X_205  0.2656862735748291)
(X_206  0.20686274766921997)
(X_207  0.1558823585510254)
(X_208  0.02450980618596077)
(X_209  0.01666666939854622)
(X_210  0.028431374579668045)
(X_211  0.04019607976078987)
(X_212  0.12450980395078659)
(X_213  0.12450980395078659)
(X_214  0.12450980395078659)
(X_215  0.12450980395078659)
(X_216  0.12450980395078659)
(X_217  0.12450980395078659)
(X_218  0.12450980395078659)
(X_219  0.12450980395078659)
(X_220  0.11274509876966476)
(X_221  0.012745101936161518)
(X_222  0.012745101936161518)
(X_223  0.11274509876966476)
(X_224  0.27156862616539)
(X_225  0.2598039209842682)
(X_226  0.24803923070430756)
(X_227  0.240196093916893)
(X_228  0.24411766231060028)
(X_229  0.24411766231060028)
(X_230  0.24411766231060028)
(X_231  0.240196093916893)
(X_232  0.2598039209842682)
(X_233  0.24411766231060028)
(X_234  0.33235296607017517)
(X_235  0.2970588207244873)
(X_236  0.12254902720451355)
(X_237  0.036274511367082596)
(X_238  -0.0029411755967885256)
(X_239  0.0009803927969187498)
(X_240  0.01666666939854622)
(X_241  0.14411765336990356)
(X_242  0.14803922176361084)
(X_243  0.12058823555707932)
(X_244  0.10098039358854294)
(X_245  0.11666666716337204)
(X_246  0.12843137979507446)
(X_247  0.02450980618596077)
(X_248  0.0009803927969187498)
(X_249  0.004901961423456669)
(X_250  0.008823529817163944)
(X_251  0.01666666939854622)
(X_252  0.22843138873577118)
(X_253  0.22843138873577118)
(X_254  0.22843138873577118)
(X_255  0.22058825194835663)
(X_256  0.3088235557079315)
(X_257  0.2970588207244873)
(X_258  0.2852941155433655)
(X_259  0.2774509787559509)
(X_260  0.17352941632270813)
(X_261  0.18137255311012268)
(X_262  0.30490198731422424)
(X_263  0.32058826088905334)
(X_264  0.2852941155433655)
(X_265  0.12254902720451355)
(X_266  0.07941177487373352)
(X_267  0.07549020648002625)
(X_268  0.01666666939854622)
(X_269  0.11666666716337204)
(X_270  0.11274509876966476)
(X_271  0.10882353037595749)
(X_272  0.008823529817163944)
(X_273  0.11666666716337204)
(X_274  0.03235294297337532)
(X_275  0.04019607976078987)
(X_276  0.1872549057006836)
(X_277  0.19117647409439087)
(X_278  0.09117648005485535)
(X_279  0.09509804844856262)
(X_280  0.16960784792900085)
(X_281  0.17352941632270813)
(X_282  0.17352941632270813)
(X_283  0.16568627953529358)
(X_284  0.15392157435417175)
(X_285  0.2539215683937073)
(X_286  0.27352941036224365)
(X_287  0.28921568393707275)
(X_288  0.15784314274787903)
(X_289  0.1617647111415863)
(X_290  0.16960784792900085)
(X_291  0.2774509787559509)
(X_292  0.2539215683937073)
(X_293  0.10686275362968445)
(X_294  0.0676470622420311)
(X_295  0.0519607849419117)
(X_296  0.1558823585510254)
(X_297  0.13235294818878174)
(X_298  0.13235294818878174)
(X_299  0.16372549533843994)
(X_300  0.17549020051956177)
(X_301  0.1715686321258545)
(X_302  0.19117647409439087)
(X_303  0.12647059559822083)
(X_304  0.22843138873577118)
(X_305  0.22843138873577118)
(X_306  0.22843138873577118)
(X_307  0.2245098203420639)
(X_308  0.2539215683937073)
(X_309  0.2539215683937073)
(X_310  0.15000000596046448)
(X_311  0.14215686917304993)
(X_312  0.1460784375667572)
(X_313  0.18529412150382996)
(X_314  0.24803923070430756)
(X_315  0.29901960492134094)
(X_316  0.2245098203420639)
(X_317  0.20098040997982025)
(X_318  0.2813725471496582)
(X_319  0.2656862735748291)
(X_320  0.2617647051811218)
(X_321  0.15784314274787903)
(X_322  0.15784314274787903)
(X_323  0.25784313678741455)
(X_324  0.2696078419685364)
(X_325  0.13823530077934265)
(X_326  0.25)
(X_327  0.18921568989753723)
(X_328  0.1774509847164154)
(X_329  0.12647059559822083)
(X_330  0.2343137264251709)
(X_331  0.2970588207244873)
(X_332  0.2970588207244873)
(X_333  0.2970588207244873)
(X_334  0.20098040997982025)
(X_335  0.19705882668495178)
(X_336  0.16960784792900085)
(X_337  0.2813725471496582)
(X_338  0.2852941155433655)
(X_339  0.2852941155433655)
(X_340  0.29313725233078003)
(X_341  0.3284313976764679)
(X_342  0.2872548997402191)
(X_343  0.33039215207099915)
(X_344  0.29901960492134094)
(X_345  0.26764705777168274)
(X_346  0.21666668355464935)
(X_347  0.16960784792900085)
(X_348  0.1460784375667572)
(X_349  0.1460784375667572)
(X_350  0.1460784375667572)
(X_351  0.24607843160629272)
(X_352  0.2774509787559509)
(X_353  0.25784313678741455)
(X_354  0.2774509787559509)
(X_355  0.20490197837352753)
(X_356  0.15000000596046448)
(X_357  0.15980392694473267)
(X_358  0.1558823585510254)
(X_359  0.22647058963775635)
(X_360  0.2029411792755127)
(X_361  0.10294118523597717)
(X_362  0.10686275362968445)
(X_363  0.11078432202339172)
(X_364  0.15392157435417175)
(X_365  0.1774509847164154)
(X_366  0.20098040997982025)
(X_367  0.3127451241016388)
(X_368  0.3088235557079315)
(X_369  0.2970588207244873)
(X_370  0.29313725233078003)
(X_371  0.1931372582912445)
(X_372  0.22058825194835663)
(X_373  0.21666668355464935)
(X_374  0.18921568989753723)
(X_375  0.25)
(X_376  0.22647058963775635)
(X_377  0.12254902720451355)
(X_378  0.114705890417099)
(X_379  0.2029411792755127)
(X_380  0.23823529481887817)
(X_381  0.23039215803146362)
(X_382  0.2617647051811218)
(X_383  0.19705882668495178)
(X_384  0.15784314274787903)
(X_385  0.0833333432674408)
(X_386  0.1872549057006836)
(X_387  0.25)
(X_388  0.30098041892051697)
(X_389  0.30490198731422424)
(X_390  0.3127451241016388)
(X_391  0.31666669249534607)
(X_392  0.2186274528503418)
(X_393  0.24607843160629272)
(X_394  0.27352941036224365)
(X_395  0.28921568393707275)
(X_396  0.2774509787559509)
(X_397  0.23823529481887817)
(X_398  0.19117647409439087)
(X_399  0.15980392694473267)
(X_400  0.1558823585510254)
(X_401  0.09117648005485535)
(X_402  0.22254902124404907)
(X_403  0.23039215803146362)
(X_404  0.24607843160629272)
(X_405  0.2813725471496582)
(X_406  0.20490197837352753)
(X_407  0.3088235557079315)
(X_408  0.16960784792900085)
(X_409  0.15784314274787903)
(X_410  0.17352941632270813)
(X_411  0.30490198731422424)
(X_412  0.30098041892051697)
(X_413  0.27352941036224365)
(X_414  0.2813725471496582)
(X_415  0.32058826088905334)
(X_416  0.24803923070430756)
(X_417  0.25196078419685364)
(X_418  0.2598039209842682)
(X_419  0.26372548937797546)
(X_420  0.11862745881080627)
(X_421  0.13431373238563538)
(X_422  0.15392157435417175)
(X_423  0.16960784792900085)
(X_424  0.15784314274787903)
(X_425  0.12254902720451355)
(X_426  0.07156863063573837)
(X_427  0.136274516582489)
(X_428  0.14411765336990356)
(X_429  0.07549020648002625)
(X_430  0.09117648005485535)
(X_431  0.07156863063573837)
(X_432  0.05980392172932625)
(X_433  0.17941176891326904)
(X_434  0.2029411792755127)
(X_435  0.11078432202339172)
(X_436  0.2343137264251709)
(X_437  0.19509804248809814)
(X_438  0.17549020051956177)
(X_439  0.18333333730697632)
(X_440  0.1872549057006836)
(X_441  0.17549020051956177)
(X_442  0.0676470622420311)
(X_443  0.07549020648002625)
(X_444  0.07549020648002625)
(X_445  0.07941177487373352)
(X_446  0.08725491166114807)
(X_447  0.19117647409439087)
(X_448  0.1558823585510254)
(X_449  0.1715686321258545)
(X_450  0.19509804248809814)
(X_451  0.21078431606292725)
(X_452  0.20686274766921997)
(X_453  0.08725491166114807)
(X_454  0.16372549533843994)
(X_455  0.14411765336990356)
(X_456  0.1558823585510254)
(X_457  0.15980392694473267)
(X_458  0.1715686321258545)
(X_459  0.17941176891326904)
(X_460  0.19117647409439087)
(X_461  0.19901961088180542)
(X_462  0.2029411792755127)
(X_463  0.20686274766921997)
(X_464  0.07941177487373352)
(X_465  0.07549020648002625)
(X_466  0.16764706373214722)
(X_467  0.15980392694473267)
(X_468  0.14803922176361084)
(X_469  0.1401960849761963)
(X_470  0.13235294818878174)
(X_471  0.12843137979507446)
(X_472  0.15196079015731812)
(X_473  0.15196079015731812)
(X_474  0.14803922176361084)
(X_475  0.14411765336990356)
(X_476  0.020588237792253494)
(X_477  0.03235294297337532)
(X_478  0.14803922176361084)
(X_479  0.15980392694473267)
(X_480  0.05980392172932625)
(X_481  0.04411764815449715)
(X_482  0.02450980618596077)
(X_483  0.008823529817163944)
(X_484  0.12843137979507446)
(X_485  0.13235294818878174)
(X_486  0.1401960849761963)
(X_487  0.0519607849419117)
(X_488  0.05980392172932625)
(X_489  0.06372549384832382)
(X_490  0.0676470622420311)
(X_491  0.0676470622420311)
(X_492  0.07156863063573837)
(X_493  0.07156863063573837)
(X_494  0.06372549384832382)
(X_495  0.1558823585510254)
(X_496  0.14803922176361084)
(X_497  0.1401960849761963)
(X_498  0.136274516582489)
(X_499  0.13235294818878174)
(X_500  0.1558823585510254)
(X_501  0.05588235333561897)
(X_502  0.05588235333561897)
(X_503  0.05588235333561897)
(X_504  0.10882353037595749)
(X_505  0.01666666939854622)
(X_506  0.028431374579668045)
(X_507  0.036274511367082596)
(X_508  0.036274511367082596)
(X_509  0.02450980618596077)
(X_510  0.012745101936161518)
(X_511  0.10490196198225021)
(X_512  0.004901961423456669)
(X_513  0.008823529817163944)
(X_514  0.01666666939854622)
(X_515  0.02450980618596077)
(X_516  0.028431374579668045)
(X_517  0.028431374579668045)
(X_518  0.03235294297337532)
(X_519  0.03235294297337532)
(X_520  0.04803921654820442)
(X_521  0.04803921654820442)
(X_522  0.04411764815449715)
(X_523  0.04019607976078987)
(X_524  0.03235294297337532)
(X_525  0.12843137979507446)
(X_526  0.12450980395078659)
(X_527  0.12450980395078659)
(X_528  0.04411764815449715)
(X_529  0.04803921654820442)
(X_530  0.04803921654820442)
(X_531  0.04803921654820442)
(X_532  0.11666666716337204)
(X_533  0.12058823555707932)
(X_534  0.12450980395078659)
(X_535  0.12843137979507446)
(X_536  0.12450980395078659)
(X_537  0.020588237792253494)
(X_538  0.01666666939854622)
(X_539  0.11274509876966476)
(X_540  0.004901961423456669)
(X_541  0.008823529817163944)
(X_542  0.012745101936161518)
(X_543  0.01666666939854622)
(X_544  0.01666666939854622)
(X_545  0.01666666939854622)
(X_546  0.01666666939854622)
(X_547  0.012745101936161518)
(X_548  0.11274509876966476)
(X_549  0.11274509876966476)
(X_550  0.11274509876966476)
(X_551  0.10882353037595749)
(X_552  0.10882353037595749)
(X_553  0.10882353037595749)
(X_554  0.10490196198225021)
(X_555  0.004901961423456669)
(X_556  0.12058823555707932)
(X_557  0.020588237792253494)
(X_558  0.020588237792253494)
(X_559  0.12450980395078659)
(X_560  0.10098039358854294)
(X_561  0.10098039358854294)
(X_562  0.10098039358854294)
(X_563  0.10490196198225021)
(X_564  0.10490196198225021)
(X_565  0.10490196198225021)
(X_566  0.004901961423456669)
(X_567  0.004901961423456669)
(X_568  0.004901961423456669)
(X_569  0.10882353037595749)
(X_570  0.11274509876966476)
(X_571  0.11274509876966476)
(X_572  0.012745101936161518)
(X_573  0.012745101936161518)
(X_574  0.008823529817163944)
(X_575  0.004901961423456669)
(X_576  -0.0029411755967885256)
(X_577  -0.0029411755967885256)
(X_578  -0.0029411755967885256)
(X_579  0.09705882519483566)
(X_580  0.09705882519483566)
(X_581  0.09705882519483566)
(X_582  0.09705882519483566)
(X_583  0.09705882519483566)
(X_584  0.10098039358854294)
(X_585  0.0009803927969187498)
(X_586  0.004901961423456669)
(X_587  0.004901961423456669)
(X_588  0.09313725680112839)
(X_589  -0.006862743757665157)
(X_590  -0.006862743757665157)
(X_591  0.09313725680112839)
(X_592  -0.0029411755967885256)
(X_593  -0.0029411755967885256)
(X_594  0.09705882519483566)
(X_595  0.09705882519483566)
(X_596  0.09705882519483566)
(X_597  0.09705882519483566)
(X_598  0.0009803927969187498)
(X_599  0.0009803927969187498)
(X_600  0.0009803927969187498)
(X_601  0.0009803927969187498)
(X_602  -0.0029411755967885256)
(X_603  -0.0029411755967885256)
(X_604  -0.0029411755967885256)
(X_605  0.09705882519483566)
(X_606  0.09705882519483566)
(X_607  0.09705882519483566)
(X_608  0.10098039358854294)
(X_609  0.10098039358854294)
(X_610  0.10098039358854294)
(X_611  0.10098039358854294)
(X_612  0.0009803927969187498)
(X_613  0.0009803927969187498)
(X_614  0.10098039358854294)
(X_615  0.10098039358854294)
(X_616  0.08921568840742111)
(X_617  -0.010784312151372433)
(X_618  -0.006862743757665157)
(X_619  -0.0029411755967885256)
(X_620  -0.0029411755967885256)
(X_621  0.09705882519483566)
(X_622  0.09705882519483566)
(X_623  0.09705882519483566)
(X_624  0.08921568840742111)
(X_625  0.08921568840742111)
(X_626  0.09313725680112839)
(X_627  0.09705882519483566)
(X_628  -0.0029411755967885256)
(X_629  -0.006862743757665157)
(X_630  0.09313725680112839)
(X_631  0.08921568840742111)
(X_632  -0.0029411755967885256)
(X_633  -0.0029411755967885256)
(X_634  -0.0029411755967885256)
(X_635  -0.0029411755967885256)
(X_636  -0.0029411755967885256)
(X_637  0.09705882519483566)
(X_638  0.09705882519483566)
(X_639  0.09705882519483566)
(X_640  0.09705882519483566)
(X_641  0.09705882519483566)
(X_642  0.09705882519483566)
(X_643  0.09705882519483566)
(X_644  0.06960784643888474)
(X_645  -0.026470588520169258)
(X_646  0.07745098322629929)
(X_647  0.08529412001371384)
(X_648  0.08529412001371384)
(X_649  0.08529412001371384)
(X_650  -0.014705880545079708)
(X_651  -0.018627449870109558)
(X_652  -0.010784312151372433)
(X_653  -0.010784312151372433)
(X_654  -0.006862743757665157)
(X_655  -0.0029411755967885256)
(X_656  -0.0029411755967885256)
(X_657  -0.0029411755967885256)
(X_658  -0.006862743757665157)
(X_659  -0.006862743757665157)
(X_660  0.09313725680112839)
(X_661  0.09313725680112839)
(X_662  0.08921568840742111)
(X_663  0.08921568840742111)
(X_664  -0.010784312151372433)
(X_665  -0.014705880545079708)
(X_666  -0.014705880545079708)
(X_667  -0.014705880545079708)
(X_668  -0.006862743757665157)
(X_669  -0.006862743757665157)
(X_670  -0.006862743757665157)
(X_671  -0.010784312151372433)
(X_672  0.08137255162000656)
(X_673  -0.018627449870109558)
(X_674  -0.018627449870109558)
(X_675  -0.014705880545079708)
(X_676  -0.010784312151372433)
(X_677  0.09313725680112839)
(X_678  0.09705882519483566)
(X_679  -0.0029411755967885256)
(X_680  -0.018627449870109558)
(X_681  0.08137255162000656)
(X_682  0.08529412001371384)
(X_683  0.08529412001371384)
(X_684  0.08529412001371384)
(X_685  0.08529412001371384)
(X_686  -0.010784312151372433)
(X_687  -0.010784312151372433)
(X_688  0.08529412001371384)
(X_689  0.08137255162000656)
(X_690  -0.022549020126461983)
(X_691  -0.018627449870109558)
(X_692  0.08921568840742111)
(X_693  0.09313725680112839)
(X_694  -0.010784312151372433)
(X_695  -0.014705880545079708)
(X_696  -0.006862743757665157)
(X_697  0.08921568840742111)
(X_698  0.08529412001371384)
(X_699  0.08921568840742111)
(X_700  0.10098039358854294)
(X_701  -0.0029411755967885256)
(X_702  -0.006862743757665157)
(X_703  -0.014705880545079708)
(X_704  -0.022549020126461983)
(X_705  -0.030392156913876534)
(X_706  -0.03431372344493866)
(X_707  -0.038235295563936234)
(X_708  0.0009803927969187498)
(X_709  -0.0029411755967885256)
(X_710  -0.006862743757665157)
(X_711  0.08921568840742111)
(X_712  0.08529412001371384)
(X_713  0.08137255162000656)
(X_714  -0.022549020126461983)
(X_715  -0.022549020126461983)
(X_716  0.11274509876966476)
(X_717  0.10490196198225021)
(X_718  -0.0029411755967885256)
(X_719  -0.0029411755967885256)
(X_720  -0.0029411755967885256)
(X_721  0.09705882519483566)
(X_722  -0.010784312151372433)
(X_723  0.08137255162000656)
(X_724  0.10098039358854294)
(X_725  0.09313725680112839)
(X_726  0.08529412001371384)
(X_727  0.08921568840742111)
(X_728  0.5166666507720947)
(X_729  0.40882351994514465)
(X_730  0.4009803831577301)
(X_731  0.4892157018184662)
(X_732  0.47745099663734436)
(X_733  0.46568629145622253)
(X_734  0.457843154668808)
(X_735  0.4539215862751007)
(X_736  0.36764708161354065)
(X_737  0.3637255132198334)
(X_738  0.3598039448261261)
(X_739  0.3480392396450043)
(X_740  0.3401961028575897)
(X_741  0.33235296607017517)
(X_742  0.2245098203420639)
(X_743  0.32058826088905334)
(X_744  0.16960784792900085)
(X_745  0.25784313678741455)
(X_746  0.24607843160629272)
(X_747  0.14215686917304993)
(X_748  0.23823529481887817)
(X_749  0.23039215803146362)
(X_750  0.11862745881080627)
(X_751  0.11078432202339172)
(X_752  0.20686274766921997)
(X_753  0.19901961088180542)
(X_754  0.19117647409439087)
(X_755  0.1872549057006836)
(X_756  1.0499999523162842)
(X_757  0.949999988079071)
(X_758  0.9460784196853638)
(X_759  0.9382352828979492)
(X_760  0.9343137145042419)
(X_761  0.9264705777168274)
(X_762  1.022549033164978)
(X_763  1.018627405166626)
(X_764  1.0382353067398071)
(X_765  1.034313678741455)
(X_766  0.9264705777168274)
(X_767  0.9147058725357056)
(X_768  0.906862735748291)
(X_769  0.8950980305671692)
(X_770  0.8872548937797546)
(X_771  0.8833333253860474)
(X_772  0.8950980305671692)
(X_773  0.8872548937797546)
(X_774  0.8754901885986328)
(X_775  0.863725483417511)
(X_776  0.8598039150238037)
(X_777  0.8519607782363892)
(X_778  0.8401960730552673)
(X_779  0.8284313678741455)
(X_780  0.8166666626930237)
(X_781  0.8088235259056091)
(X_782  0.79313725233078)
(X_783  0.7892156839370728)
(Y_0 -17.753829956054688)
(Y_1 39.83686065673828)
(Y_2 -13.72492504119873)
(Y_3 -6.963357448577881))