((X_0  0.3892156779766083)
(X_1  0.4323529303073883)
(X_2  0.4833333492279053)
(X_3  0.5186274647712708)
(X_4  0.5656862854957581)
(X_5  0.6245098114013672)
(X_6  0.7715686559677124)
(X_7  0.7911764979362488)
(X_8  0.8421568870544434)
(X_9  0.865686297416687)
(X_10  0.9009804129600525)
(X_11  0.9323529601097107)
(X_12  0.9598039388656616)
(X_13  0.9872549176216125)
(X_14  0.906862735748291)
(X_15  0.9225490093231201)
(X_16  0.9264705777168274)
(X_17  0.9303921461105347)
(X_18  0.9382352828979492)
(X_19  0.9421568512916565)
(X_20  0.9460784196853638)
(X_21  0.9460784196853638)
(X_22  0.9460784196853638)
(X_23  1.0460784435272217)
(X_24  0.9186274409294128)
(X_25  0.9343137145042419)
(X_26  0.949999988079071)
(X_27  1.0499999523162842)
(X_28  0.07156863063573837)
(X_29  0.0990196168422699)
(X_30  0.11862745881080627)
(X_31  0.2186274528503418)
(X_32  0.2186274528503418)
(X_33  0.23039215803146362)
(X_34  0.23823529481887817)
(X_35  0.13431373238563538)
(X_36  0.15784314274787903)
(X_37  0.16960784792900085)
(X_38  0.28921568393707275)
(X_39  0.3088235557079315)
(X_40  0.3284313976764679)
(X_41  0.3480392396450043)
(X_42  0.3715686500072479)
(X_43  0.387254923582077)
(X_44  0.5009803771972656)
(X_45  0.5166666507720947)
(X_46  0.44411763548851013)
(X_47  0.48725491762161255)
(X_48  0.6343137621879578)
(X_49  0.5852941274642944)
(X_50  0.7205882668495178)
(X_51  0.7441176772117615)
(X_52  0.8303921818733215)
(X_53  0.8460784554481506)
(X_54  0.865686297416687)
(X_55  0.8813725709915161)
(X_56  0.18333333730697632)
(X_57  0.10686275362968445)
(X_58  0.114705890417099)
(X_59  0.10294118523597717)
(X_60  0.19509804248809814)
(X_61  0.09509804844856262)
(X_62  0.08725491166114807)
(X_63  0.07549020648002625)
(X_64  0.06372549384832382)
(X_65  0.16764706373214722)
(X_66  0.1715686321258545)
(X_67  0.1715686321258545)
(X_68  0.17941176891326904)
(X_69  0.19117647409439087)
(X_70  0.21078431606292725)
(X_71  0.22647058963775635)
(X_72  0.19901961088180542)
(X_73  0.09509804844856262)
(X_74  0.0833333432674408)
(X_75  0.07941177487373352)
(X_76  0.0833333432674408)
(X_77  0.19509804248809814)
(X_78  0.20686274766921997)
(X_79  0.21470588445663452)
(X_80  0.19509804248809814)
(X_81  0.21078431606292725)
(X_82  0.23039215803146362)
(X_83  0.24607843160629272)
(X_84  0.04803921654820442)
(X_85  0.0676470622420311)
(X_86  0.07941177487373352)
(X_87  0.07549020648002625)
(X_88  0.0833333432674408)
(X_89  0.10294118523597717)
(X_90  0.21078431606292725)
(X_91  0.2029411792755127)
(X_92  0.07549020648002625)
(X_93  0.17941176891326904)
(X_94  0.17941176891326904)
(X_95  0.07549020648002625)
(X_96  0.07156863063573837)
(X_97  0.17549020051956177)
(X_98  0.1872549057006836)
(X_99  0.19509804248809814)
(X_100  0.25)
(X_101  0.14215686917304993)
(X_102  0.1303921639919281)
(X_103  0.11862745881080627)
(X_104  0.11078432202339172)
(X_105  0.20686274766921997)
(X_106  0.11078432202339172)
(X_107  0.21078431606292725)
(X_108  0.0990196168422699)
(X_109  0.10686275362968445)
(X_110  0.2186274528503418)
(X_111  0.22254902124404907)
(X_112  0.1872549057006836)
(X_113  0.19117647409439087)
(X_114  0.18333333730697632)
(X_115  0.1715686321258545)
(X_116  0.17941176891326904)
(X_117  0.19901961088180542)
(X_118  0.10686275362968445)
(X_119  0.0990196168422699)
(X_120  0.07941177487373352)
(X_121  0.09117648005485535)
(X_122  0.0990196168422699)
(X_123  0.19901961088180542)
(X_124  0.19117647409439087)
(X_125  0.08725491166114807)
(X_126  0.0833333432674408)
(X_127  0.08725491166114807)
(X_128  0.0676470622420311)
(X_129  0.07156863063573837)
(X_130  0.0833333432674408)
(X_131  0.09509804844856262)
(X_132  0.10686275362968445)
(X_133  0.114705890417099)
(X_134  0.12254902720451355)
(X_135  0.12254902720451355)
(X_136  0.1715686321258545)
(X_137  0.17941176891326904)
(X_138  0.18333333730697632)
(X_139  0.17941176891326904)
(X_140  0.19901961088180542)
(X_141  0.19509804248809814)
(X_142  0.07941177487373352)
(X_143  0.15980392694473267)
(X_144  0.15980392694473267)
(X_145  0.1715686321258545)
(X_146  0.07156863063573837)
(X_147  0.05588235333561897)
(X_148  0.1558823585510254)
(X_149  0.16764706373214722)
(X_150  0.17941176891326904)
(X_151  0.18333333730697632)
(X_152  0.17549020051956177)
(X_153  0.16764706373214722)
(X_154  0.16372549533843994)
(X_155  0.16372549533843994)
(X_156  0.08725491166114807)
(X_157  0.1872549057006836)
(X_158  0.09117648005485535)
(X_159  0.09509804844856262)
(X_160  0.19509804248809814)
(X_161  0.1872549057006836)
(X_162  0.17941176891326904)
(X_163  0.17549020051956177)
(X_164  0.17549020051956177)
(X_165  0.17941176891326904)
(X_166  0.1872549057006836)
(X_167  0.1872549057006836)
(X_168  0.09117648005485535)
(X_169  0.09509804844856262)
(X_170  0.09117648005485535)
(X_171  0.0833333432674408)
(X_172  0.08725491166114807)
(X_173  0.0990196168422699)
(X_174  0.08725491166114807)
(X_175  0.06372549384832382)
(X_176  0.07941177487373352)
(X_177  0.0833333432674408)
(X_178  0.09117648005485535)
(X_179  0.1872549057006836)
(X_180  0.17941176891326904)
(X_181  0.17549020051956177)
(X_182  0.17549020051956177)
(X_183  0.17941176891326904)
(X_184  0.04803921654820442)
(X_185  0.0519607849419117)
(X_186  0.05588235333561897)
(X_187  0.05980392172932625)
(X_188  0.06372549384832382)
(X_189  0.07156863063573837)
(X_190  0.17941176891326904)
(X_191  0.17941176891326904)
(X_192  0.07549020648002625)
(X_193  0.18333333730697632)
(X_194  0.19117647409439087)
(X_195  0.19509804248809814)
(X_196  0.16764706373214722)
(X_197  0.17941176891326904)
(X_198  0.18333333730697632)
(X_199  0.18333333730697632)
(X_200  0.09117648005485535)
(X_201  0.09117648005485535)
(X_202  0.0676470622420311)
(X_203  0.03235294297337532)
(X_204  0.05980392172932625)
(X_205  0.05980392172932625)
(X_206  0.0519607849419117)
(X_207  0.04411764815449715)
(X_208  0.036274511367082596)
(X_209  0.03235294297337532)
(X_210  0.04411764815449715)
(X_211  0.15196079015731812)
(X_212  0.1715686321258545)
(X_213  0.16372549533843994)
(X_214  0.1558823585510254)
(X_215  0.14803922176361084)
(X_216  0.15196079015731812)
(X_217  0.05588235333561897)
(X_218  0.16764706373214722)
(X_219  0.07549020648002625)
(X_220  0.0519607849419117)
(X_221  0.05588235333561897)
(X_222  0.06372549384832382)
(X_223  0.06372549384832382)
(X_224  0.33039215207099915)
(X_225  0.4264706075191498)
(X_226  0.4225490391254425)
(X_227  0.41862747073173523)
(X_228  0.29509803652763367)
(X_229  0.23627452552318573)
(X_230  0.15392157435417175)
(X_231  0.09509804844856262)
(X_232  0.19901961088180542)
(X_233  0.16372549533843994)
(X_234  0.14803922176361084)
(X_235  0.1715686321258545)
(X_236  0.1872549057006836)
(X_237  0.17549020051956177)
(X_238  0.15980392694473267)
(X_239  0.16372549533843994)
(X_240  0.17549020051956177)
(X_241  0.16372549533843994)
(X_242  0.14411765336990356)
(X_243  0.13235294818878174)
(X_244  0.136274516582489)
(X_245  0.15196079015731812)
(X_246  0.1715686321258545)
(X_247  0.0833333432674408)
(X_248  0.16764706373214722)
(X_249  0.17941176891326904)
(X_250  0.09117648005485535)
(X_251  0.20686274766921997)
(X_252  0.5049019455909729)
(X_253  0.5009803771972656)
(X_254  0.4049019515514374)
(X_255  0.41274508833885193)
(X_256  0.5127450823783875)
(X_257  0.49313727021217346)
(X_258  0.45000001788139343)
(X_259  0.41470590233802795)
(X_260  0.2617647051811218)
(X_261  0.20686274766921997)
(X_262  0.1558823585510254)
(X_263  0.14411765336990356)
(X_264  0.14803922176361084)
(X_265  0.15196079015731812)
(X_266  0.16372549533843994)
(X_267  0.17941176891326904)
(X_268  0.04803921654820442)
(X_269  0.05980392172932625)
(X_270  0.07156863063573837)
(X_271  0.0833333432674408)
(X_272  0.09117648005485535)
(X_273  0.09509804844856262)
(X_274  0.0990196168422699)
(X_275  0.10294118523597717)
(X_276  0.12647059559822083)
(X_277  0.114705890417099)
(X_278  0.2029411792755127)
(X_279  0.1872549057006836)
(X_280  0.26764705777168274)
(X_281  0.26764705777168274)
(X_282  0.2754901945590973)
(X_283  0.29901960492134094)
(X_284  0.33039215207099915)
(X_285  0.4539215862751007)
(X_286  0.457843154668808)
(X_287  0.3539215624332428)
(X_288  0.31470587849617004)
(X_289  0.25196078419685364)
(X_290  0.17352941632270813)
(X_291  0.22254902124404907)
(X_292  0.1872549057006836)
(X_293  0.16764706373214722)
(X_294  0.06372549384832382)
(X_295  0.07156863063573837)
(X_296  0.04019607976078987)
(X_297  0.19901961088180542)
(X_298  0.2852941155433655)
(X_299  0.27156862616539)
(X_300  0.3343137204647064)
(X_301  0.3813725411891937)
(X_302  0.5166666507720947)
(X_303  0.4362744987010956)
(X_304  0.44411763548851013)
(X_305  0.4362744987010956)
(X_306  0.4205882251262665)
(X_307  0.40882351994514465)
(X_308  0.24411766231060028)
(X_309  0.23235295712947845)
(X_310  0.22058825194835663)
(X_311  0.21666668355464935)
(X_312  0.2245098203420639)
(X_313  0.23235295712947845)
(X_314  0.23235295712947845)
(X_315  0.3284313976764679)
(X_316  0.2558823525905609)
(X_317  0.23235295712947845)
(X_318  0.20490197837352753)
(X_319  0.18529412150382996)
(X_320  0.2774509787559509)
(X_321  0.27352941036224365)
(X_322  0.2656862735748291)
(X_323  0.2617647051811218)
(X_324  0.23235295712947845)
(X_325  0.3715686500072479)
(X_326  0.4225490391254425)
(X_327  0.45000001788139343)
(X_328  0.3578431308269501)
(X_329  0.3499999940395355)
(X_330  0.3499999940395355)
(X_331  0.3499999940395355)
(X_332  0.46176472306251526)
(X_333  0.4696078598499298)
(X_334  0.4852941334247589)
(X_335  0.49705883860588074)
(X_336  0.41274508833885193)
(X_337  0.49313727021217346)
(X_338  0.46176472306251526)
(X_339  0.43039217591285706)
(X_340  0.39901962876319885)
(X_341  0.3715686500072479)
(X_342  0.25196078419685364)
(X_343  0.23627452552318573)
(X_344  0.31666669249534607)
(X_345  0.31666669249534607)
(X_346  0.3127451241016388)
(X_347  0.30098041892051697)
(X_348  0.2970588207244873)
(X_349  0.28921568393707275)
(X_350  0.27352941036224365)
(X_351  0.15784314274787903)
(X_352  0.1617647111415863)
(X_353  0.18921568989753723)
(X_354  0.3245098292827606)
(X_355  0.35196080803871155)
(X_356  0.27156862616539)
(X_357  0.2911764681339264)
(X_358  0.31470587849617004)
(X_359  0.43039217591285706)
(X_360  0.38333335518836975)
(X_361  0.3950980603694916)
(X_362  0.4068627655506134)
(X_363  0.4225490391254425)
(X_364  0.4950980544090271)
(X_365  0.4950980544090271)
(X_366  0.4990196228027344)
(X_367  0.6068627834320068)
(X_368  0.6147059202194214)
(X_369  0.6225490570068359)
(X_370  0.6264706254005432)
(X_371  0.6303921937942505)
(X_372  0.4637255072593689)
(X_373  0.4598039388656616)
(X_374  0.4323529303073883)
(X_375  0.49313727021217346)
(X_376  0.46568629145622253)
(X_377  0.45000001788139343)
(X_378  0.43431374430656433)
(X_379  0.41470590233802795)
(X_380  0.387254923582077)
(X_381  0.3754902184009552)
(X_382  0.2558823525905609)
(X_383  0.23627452552318573)
(X_384  0.22058825194835663)
(X_385  0.2088235467672348)
(X_386  0.20098040997982025)
(X_387  0.19705882668495178)
(X_388  0.3754902184009552)
(X_389  0.26372548937797546)
(X_390  0.25196078419685364)
(X_391  0.33627453446388245)
(X_392  0.18529412150382996)
(X_393  0.20490197837352753)
(X_394  0.23627452552318573)
(X_395  0.3754902184009552)
(X_396  0.3186274468898773)
(X_397  0.3578431308269501)
(X_398  0.39313724637031555)
(X_399  0.4166666567325592)
(X_400  0.4754902124404907)
(X_401  0.4990196228027344)
(X_402  0.5068627595901489)
(X_403  0.4990196228027344)
(X_404  0.5068627595901489)
(X_405  0.5343137383460999)
(X_406  0.5460784435272217)
(X_407  0.638235330581665)
(X_408  0.4990196228027344)
(X_409  0.479411780834198)
(X_410  0.45588237047195435)
(X_411  0.4480392038822174)
(X_412  0.4480392038822174)
(X_413  0.5441176295280457)
(X_414  0.5245097875595093)
(X_415  0.5088235139846802)
(X_416  0.3343137204647064)
(X_417  0.32647058367729187)
(X_418  0.4107843339443207)
(X_419  0.39901962876319885)
(X_420  0.0990196168422699)
(X_421  0.2029411792755127)
(X_422  0.21470588445663452)
(X_423  0.22254902124404907)
(X_424  0.2343137264251709)
(X_425  0.2539215683937073)
(X_426  0.27352941036224365)
(X_427  0.18921568989753723)
(X_428  0.1774509847164154)
(X_429  0.32058826088905334)
(X_430  0.3598039448261261)
(X_431  0.3754902184009552)
(X_432  0.3950980603694916)
(X_433  0.4225490391254425)
(X_434  0.43039217591285706)
(X_435  0.41470590233802795)
(X_436  0.34607842564582825)
(X_437  0.34215685725212097)
(X_438  0.3499999940395355)
(X_439  0.4892157018184662)
(X_440  0.5401960611343384)
(X_441  0.46764707565307617)
(X_442  0.4598039388656616)
(X_443  0.44411763548851013)
(X_444  0.4950980544090271)
(X_445  0.6029412150382996)
(X_446  0.6186274886131287)
(X_447  0.6303921937942505)
(X_448  0.0833333432674408)
(X_449  0.17549020051956177)
(X_450  0.16372549533843994)
(X_451  0.16372549533843994)
(X_452  0.16764706373214722)
(X_453  0.0833333432674408)
(X_454  0.10294118523597717)
(X_455  0.114705890417099)
(X_456  0.11862745881080627)
(X_457  0.12254902720451355)
(X_458  0.12647059559822083)
(X_459  0.13431373238563538)
(X_460  0.13823530077934265)
(X_461  0.23823529481887817)
(X_462  0.23823529481887817)
(X_463  0.23823529481887817)
(X_464  0.28921568393707275)
(X_465  0.30098041892051697)
(X_466  0.31666669249534607)
(X_467  0.22843138873577118)
(X_468  0.23235295712947845)
(X_469  0.22843138873577118)
(X_470  0.21666668355464935)
(X_471  0.2088235467672348)
(X_472  0.28921568393707275)
(X_473  0.2970588207244873)
(X_474  0.3127451241016388)
(X_475  0.3284313976764679)
(X_476  0.0676470622420311)
(X_477  0.06372549384832382)
(X_478  0.05588235333561897)
(X_479  0.05588235333561897)
(X_480  0.05980392172932625)
(X_481  0.07156863063573837)
(X_482  0.0833333432674408)
(X_483  0.09117648005485535)
(X_484  0.07156863063573837)
(X_485  0.07156863063573837)
(X_486  0.07549020648002625)
(X_487  0.07941177487373352)
(X_488  0.18333333730697632)
(X_489  0.18333333730697632)
(X_490  0.17941176891326904)
(X_491  0.17941176891326904)
(X_492  0.18333333730697632)
(X_493  0.09117648005485535)
(X_494  0.10294118523597717)
(X_495  0.11078432202339172)
(X_496  0.114705890417099)
(X_497  0.21078431606292725)
(X_498  0.10686275362968445)
(X_499  0.0990196168422699)
(X_500  0.07549020648002625)
(X_501  0.17941176891326904)
(X_502  0.0833333432674408)
(X_503  0.19117647409439087)
(X_504  0.0519607849419117)
(X_505  0.14803922176361084)
(X_506  0.14803922176361084)
(X_507  0.14803922176361084)
(X_508  0.14803922176361084)
(X_509  0.0519607849419117)
(X_510  0.05588235333561897)
(X_511  0.05980392172932625)
(X_512  0.14411765336990356)
(X_513  0.14803922176361084)
(X_514  0.0519607849419117)
(X_515  0.15196079015731812)
(X_516  0.1558823585510254)
(X_517  0.15196079015731812)
(X_518  0.15196079015731812)
(X_519  0.14803922176361084)
(X_520  0.1401960849761963)
(X_521  0.14411765336990356)
(X_522  0.14803922176361084)
(X_523  0.0519607849419117)
(X_524  0.05588235333561897)
(X_525  0.05588235333561897)
(X_526  0.05588235333561897)
(X_527  0.05588235333561897)
(X_528  0.07156863063573837)
(X_529  0.07156863063573837)
(X_530  0.07156863063573837)
(X_531  0.1715686321258545)
(X_532  0.04019607976078987)
(X_533  0.04019607976078987)
(X_534  0.04019607976078987)
(X_535  0.04019607976078987)
(X_536  0.04019607976078987)
(X_537  0.1401960849761963)
(X_538  0.136274516582489)
(X_539  0.036274511367082596)
(X_540  0.036274511367082596)
(X_541  0.04019607976078987)
(X_542  0.04411764815449715)
(X_543  0.14803922176361084)
(X_544  0.14803922176361084)
(X_545  0.0519607849419117)
(X_546  0.04803921654820442)
(X_547  0.14803922176361084)
(X_548  0.15196079015731812)
(X_549  0.15196079015731812)
(X_550  0.15196079015731812)
(X_551  0.0519607849419117)
(X_552  0.05588235333561897)
(X_553  0.05588235333561897)
(X_554  0.05980392172932625)
(X_555  0.06372549384832382)
(X_556  0.0519607849419117)
(X_557  0.05588235333561897)
(X_558  0.05588235333561897)
(X_559  0.05980392172932625)
(X_560  0.028431374579668045)
(X_561  0.03235294297337532)
(X_562  0.036274511367082596)
(X_563  0.036274511367082596)
(X_564  0.036274511367082596)
(X_565  0.03235294297337532)
(X_566  0.028431374579668045)
(X_567  0.02450980618596077)
(X_568  0.11274509876966476)
(X_569  0.01666666939854622)
(X_570  0.02450980618596077)
(X_571  0.13235294818878174)
(X_572  0.136274516582489)
(X_573  0.1401960849761963)
(X_574  0.04019607976078987)
(X_575  0.04411764815449715)
(X_576  0.036274511367082596)
(X_577  0.13235294818878174)
(X_578  0.13235294818878174)
(X_579  0.12843137979507446)
(X_580  0.12843137979507446)
(X_581  0.13235294818878174)
(X_582  0.04019607976078987)
(X_583  0.04019607976078987)
(X_584  0.028431374579668045)
(X_585  0.12843137979507446)
(X_586  0.03235294297337532)
(X_587  0.13235294818878174)
(X_588  0.12450980395078659)
(X_589  0.12450980395078659)
(X_590  0.12843137979507446)
(X_591  0.12843137979507446)
(X_592  0.028431374579668045)
(X_593  0.02450980618596077)
(X_594  0.020588237792253494)
(X_595  0.020588237792253494)
(X_596  0.012745101936161518)
(X_597  0.01666666939854622)
(X_598  0.02450980618596077)
(X_599  0.13235294818878174)
(X_600  0.136274516582489)
(X_601  0.136274516582489)
(X_602  0.1401960849761963)
(X_603  0.1401960849761963)
(X_604  0.028431374579668045)
(X_605  0.028431374579668045)
(X_606  0.02450980618596077)
(X_607  0.12450980395078659)
(X_608  0.12450980395078659)
(X_609  0.12843137979507446)
(X_610  0.028431374579668045)
(X_611  0.03235294297337532)
(X_612  0.15196079015731812)
(X_613  0.14803922176361084)
(X_614  0.04411764815449715)
(X_615  0.1401960849761963)
(X_616  0.012745101936161518)
(X_617  0.11274509876966476)
(X_618  0.11274509876966476)
(X_619  0.11274509876966476)
(X_620  0.11666666716337204)
(X_621  0.01666666939854622)
(X_622  0.01666666939854622)
(X_623  0.01666666939854622)
(X_624  0.12843137979507446)
(X_625  0.13235294818878174)
(X_626  0.13235294818878174)
(X_627  0.136274516582489)
(X_628  0.13235294818878174)
(X_629  0.13235294818878174)
(X_630  0.12843137979507446)
(X_631  0.12843137979507446)
(X_632  0.036274511367082596)
(X_633  0.036274511367082596)
(X_634  0.136274516582489)
(X_635  0.136274516582489)
(X_636  0.036274511367082596)
(X_637  0.036274511367082596)
(X_638  0.136274516582489)
(X_639  0.136274516582489)
(X_640  0.13235294818878174)
(X_641  0.12843137979507446)
(X_642  0.12058823555707932)
(X_643  0.11666666716337204)
(X_644  0.10882353037595749)
(X_645  0.10490196198225021)
(X_646  0.004901961423456669)
(X_647  0.004901961423456669)
(X_648  0.004901961423456669)
(X_649  0.008823529817163944)
(X_650  0.012745101936161518)
(X_651  0.11666666716337204)
(X_652  0.12843137979507446)
(X_653  0.028431374579668045)
(X_654  0.028431374579668045)
(X_655  0.02450980618596077)
(X_656  0.11666666716337204)
(X_657  0.10882353037595749)
(X_658  0.10098039358854294)
(X_659  0.09705882519483566)
(X_660  0.11666666716337204)
(X_661  0.11666666716337204)
(X_662  0.020588237792253494)
(X_663  0.020588237792253494)
(X_664  0.020588237792253494)
(X_665  0.020588237792253494)
(X_666  0.01666666939854622)
(X_667  0.012745101936161518)
(X_668  0.04019607976078987)
(X_669  0.036274511367082596)
(X_670  0.13235294818878174)
(X_671  0.12843137979507446)
(X_672  0.012745101936161518)
(X_673  0.11274509876966476)
(X_674  0.11274509876966476)
(X_675  0.11274509876966476)
(X_676  0.11274509876966476)
(X_677  0.11274509876966476)
(X_678  0.11274509876966476)
(X_679  0.11274509876966476)
(X_680  0.10882353037595749)
(X_681  0.11274509876966476)
(X_682  0.11666666716337204)
(X_683  0.12058823555707932)
(X_684  0.12058823555707932)
(X_685  0.11666666716337204)
(X_686  0.10882353037595749)
(X_687  0.10490196198225021)
(X_688  0.10490196198225021)
(X_689  0.11274509876966476)
(X_690  0.11666666716337204)
(X_691  0.11666666716337204)
(X_692  0.10882353037595749)
(X_693  0.10882353037595749)
(X_694  0.11274509876966476)
(X_695  0.12058823555707932)
(X_696  0.12058823555707932)
(X_697  0.020588237792253494)
(X_698  0.020588237792253494)
(X_699  0.12058823555707932)
(X_700  0.11274509876966476)
(X_701  0.11274509876966476)
(X_702  0.11274509876966476)
(X_703  0.11274509876966476)
(X_704  0.11274509876966476)
(X_705  0.11274509876966476)
(X_706  0.11274509876966476)
(X_707  0.012745101936161518)
(X_708  0.004901961423456669)
(X_709  0.008823529817163944)
(X_710  0.012745101936161518)
(X_711  0.01666666939854622)
(X_712  0.01666666939854622)
(X_713  0.012745101936161518)
(X_714  0.10882353037595749)
(X_715  0.10490196198225021)
(X_716  0.008823529817163944)
(X_717  0.012745101936161518)
(X_718  0.01666666939854622)
(X_719  0.01666666939854622)
(X_720  0.008823529817163944)
(X_721  0.008823529817163944)
(X_722  0.012745101936161518)
(X_723  0.01666666939854622)
(X_724  0.01666666939854622)
(X_725  0.01666666939854622)
(X_726  0.01666666939854622)
(X_727  0.01666666939854622)
(X_728  0.10882353037595749)
(X_729  0.10882353037595749)
(X_730  0.008823529817163944)
(X_731  0.11274509876966476)
(X_732  0.11274509876966476)
(X_733  0.11274509876966476)
(X_734  0.11274509876966476)
(X_735  0.11274509876966476)
(X_736  0.0009803927969187498)
(X_737  0.004901961423456669)
(X_738  0.004901961423456669)
(X_739  0.008823529817163944)
(X_740  0.10882353037595749)
(X_741  0.10882353037595749)
(X_742  0.004901961423456669)
(X_743  0.0009803927969187498)
(X_744  0.008823529817163944)
(X_745  0.012745101936161518)
(X_746  0.01666666939854622)
(X_747  0.012745101936161518)
(X_748  0.008823529817163944)
(X_749  0.10490196198225021)
(X_750  0.10882353037595749)
(X_751  0.11666666716337204)
(X_752  0.11274509876966476)
(X_753  0.012745101936161518)
(X_754  0.11274509876966476)
(X_755  0.11274509876966476)
(X_756  0.004901961423456669)
(X_757  0.008823529817163944)
(X_758  0.008823529817163944)
(X_759  0.10882353037595749)
(X_760  0.10882353037595749)
(X_761  0.11274509876966476)
(X_762  0.11274509876966476)
(X_763  0.11274509876966476)
(X_764  0.09705882519483566)
(X_765  -0.0029411755967885256)
(X_766  0.10098039358854294)
(X_767  0.10098039358854294)
(X_768  0.10490196198225021)
(X_769  0.10490196198225021)
(X_770  0.10490196198225021)
(X_771  0.10098039358854294)
(X_772  0.10882353037595749)
(X_773  0.012745101936161518)
(X_774  0.01666666939854622)
(X_775  0.012745101936161518)
(X_776  0.004901961423456669)
(X_777  0.0009803927969187498)
(X_778  0.004901961423456669)
(X_779  0.012745101936161518)
(X_780  0.008823529817163944)
(X_781  0.008823529817163944)
(X_782  0.008823529817163944)
(X_783  0.10882353037595749)
(Y_0 36.16085433959961)
(Y_1 -1.4395551681518555)
(Y_2 8.516880989074707)
(Y_3 -46.13758087158203))