((X_0  0.12058823555707932)
(X_1  0.004901961423456669)
(X_2  -0.0029411755967885256)
(X_3  0.01666666939854622)
(X_4  0.14411765336990356)
(X_5  0.0519607849419117)
(X_6  0.028431374579668045)
(X_7  0.0009803927969187498)
(X_8  0.10098039358854294)
(X_9  0.11274509876966476)
(X_10  0.12058823555707932)
(X_11  0.020588237792253494)
(X_12  0.11274509876966476)
(X_13  0.10882353037595749)
(X_14  0.11666666716337204)
(X_15  0.12843137979507446)
(X_16  0.012745101936161518)
(X_17  0.012745101936161518)
(X_18  0.020588237792253494)
(X_19  0.02450980618596077)
(X_20  0.13235294818878174)
(X_21  0.1401960849761963)
(X_22  0.14411765336990356)
(X_23  0.04803921654820442)
(X_24  0.14803922176361084)
(X_25  0.15196079015731812)
(X_26  0.05980392172932625)
(X_27  0.16372549533843994)
(X_28  0.11274509876966476)
(X_29  0.10490196198225021)
(X_30  -0.0029411755967885256)
(X_31  -0.006862743757665157)
(X_32  -0.0029411755967885256)
(X_33  0.0009803927969187498)
(X_34  -0.0029411755967885256)
(X_35  0.09313725680112839)
(X_36  0.008823529817163944)
(X_37  0.012745101936161518)
(X_38  0.008823529817163944)
(X_39  0.0009803927969187498)
(X_40  -0.0029411755967885256)
(X_41  0.10490196198225021)
(X_42  0.12843137979507446)
(X_43  0.04411764815449715)
(X_44  0.11666666716337204)
(X_45  0.11666666716337204)
(X_46  0.11666666716337204)
(X_47  0.020588237792253494)
(X_48  0.020588237792253494)
(X_49  0.02450980618596077)
(X_50  0.02450980618596077)
(X_51  0.02450980618596077)
(X_52  0.12843137979507446)
(X_53  0.13235294818878174)
(X_54  0.136274516582489)
(X_55  0.1401960849761963)
(X_56  0.11666666716337204)
(X_57  0.020588237792253494)
(X_58  0.02450980618596077)
(X_59  0.01666666939854622)
(X_60  0.012745101936161518)
(X_61  0.012745101936161518)
(X_62  0.028431374579668045)
(X_63  0.04411764815449715)
(X_64  0.0009803927969187498)
(X_65  0.004901961423456669)
(X_66  0.004901961423456669)
(X_67  0.0009803927969187498)
(X_68  0.09705882519483566)
(X_69  0.0009803927969187498)
(X_70  0.012745101936161518)
(X_71  0.02450980618596077)
(X_72  0.01666666939854622)
(X_73  0.01666666939854622)
(X_74  0.01666666939854622)
(X_75  0.11274509876966476)
(X_76  0.10882353037595749)
(X_77  0.10490196198225021)
(X_78  0.10490196198225021)
(X_79  0.10490196198225021)
(X_80  0.11274509876966476)
(X_81  0.01666666939854622)
(X_82  0.01666666939854622)
(X_83  0.12058823555707932)
(X_84  0.10098039358854294)
(X_85  0.10882353037595749)
(X_86  0.12058823555707932)
(X_87  0.11666666716337204)
(X_88  0.10490196198225021)
(X_89  -0.006862743757665157)
(X_90  -0.010784312151372433)
(X_91  -0.010784312151372433)
(X_92  0.09313725680112839)
(X_93  0.004901961423456669)
(X_94  0.020588237792253494)
(X_95  0.02450980618596077)
(X_96  0.12450980395078659)
(X_97  0.11274509876966476)
(X_98  0.10490196198225021)
(X_99  0.09705882519483566)
(X_100  0.11274509876966476)
(X_101  0.11274509876966476)
(X_102  0.11274509876966476)
(X_103  0.10882353037595749)
(X_104  0.004901961423456669)
(X_105  0.004901961423456669)
(X_106  0.0009803927969187498)
(X_107  0.0009803927969187498)
(X_108  0.012745101936161518)
(X_109  0.012745101936161518)
(X_110  0.01666666939854622)
(X_111  0.11666666716337204)
(X_112  0.09509804844856262)
(X_113  0.19901961088180542)
(X_114  0.2029411792755127)
(X_115  0.2029411792755127)
(X_116  0.1872549057006836)
(X_117  0.0519607849419117)
(X_118  0.004901961423456669)
(X_119  -0.030392156913876534)
(X_120  0.004901961423456669)
(X_121  0.004901961423456669)
(X_122  0.008823529817163944)
(X_123  0.11274509876966476)
(X_124  0.11666666716337204)
(X_125  0.01666666939854622)
(X_126  0.012745101936161518)
(X_127  0.10882353037595749)
(X_128  0.10490196198225021)
(X_129  0.10882353037595749)
(X_130  0.10882353037595749)
(X_131  0.10882353037595749)
(X_132  0.10882353037595749)
(X_133  0.11274509876966476)
(X_134  0.012745101936161518)
(X_135  0.11274509876966476)
(X_136  0.008823529817163944)
(X_137  0.008823529817163944)
(X_138  0.11274509876966476)
(X_139  0.11274509876966476)
(X_140  0.31666669249534607)
(X_141  0.31666669249534607)
(X_142  0.32058826088905334)
(X_143  0.3245098292827606)
(X_144  0.21666668355464935)
(X_145  0.18137255311012268)
(X_146  0.13431373238563538)
(X_147  0.19901961088180542)
(X_148  0.13235294818878174)
(X_149  0.11274509876966476)
(X_150  0.08529412001371384)
(X_151  0.06960784643888474)
(X_152  0.07745098322629929)
(X_153  0.08921568840742111)
(X_154  0.10490196198225021)
(X_155  0.11666666716337204)
(X_156  0.0009803927969187498)
(X_157  0.0009803927969187498)
(X_158  0.004901961423456669)
(X_159  0.10882353037595749)
(X_160  0.11274509876966476)
(X_161  0.01666666939854622)
(X_162  0.020588237792253494)
(X_163  0.12058823555707932)
(X_164  0.10098039358854294)
(X_165  0.0009803927969187498)
(X_166  0.004901961423456669)
(X_167  0.10490196198225021)
(X_168  0.2754901945590973)
(X_169  0.3754902184009552)
(X_170  0.3715686500072479)
(X_171  0.3558823764324188)
(X_172  0.3284313976764679)
(X_173  0.30490198731422424)
(X_174  0.1931372582912445)
(X_175  0.18529412150382996)
(X_176  0.21470588445663452)
(X_177  0.19117647409439087)
(X_178  0.1558823585510254)
(X_179  0.13235294818878174)
(X_180  0.12058823555707932)
(X_181  0.11666666716337204)
(X_182  0.10882353037595749)
(X_183  0.004901961423456669)
(X_184  0.10098039358854294)
(X_185  0.10098039358854294)
(X_186  0.10490196198225021)
(X_187  0.10882353037595749)
(X_188  0.10882353037595749)
(X_189  0.012745101936161518)
(X_190  0.01666666939854622)
(X_191  0.11666666716337204)
(X_192  0.09705882519483566)
(X_193  0.09705882519483566)
(X_194  0.004901961423456669)
(X_195  0.008823529817163944)
(X_196  0.3970588147640228)
(X_197  0.4892157018184662)
(X_198  0.457843154668808)
(X_199  0.29901960492134094)
(X_200  0.23235295712947845)
(X_201  0.30098041892051697)
(X_202  0.2088235467672348)
(X_203  0.22843138873577118)
(X_204  0.2245098203420639)
(X_205  0.2088235467672348)
(X_206  0.18529412150382996)
(X_207  0.2617647051811218)
(X_208  0.13431373238563538)
(X_209  0.08725491166114807)
(X_210  0.036274511367082596)
(X_211  0.10098039358854294)
(X_212  0.10098039358854294)
(X_213  0.10098039358854294)
(X_214  0.004901961423456669)
(X_215  0.10490196198225021)
(X_216  0.004901961423456669)
(X_217  0.10490196198225021)
(X_218  0.10882353037595749)
(X_219  0.10882353037595749)
(X_220  0.10098039358854294)
(X_221  0.004901961423456669)
(X_222  0.008823529817163944)
(X_223  0.11666666716337204)
(X_224  0.3382352888584137)
(X_225  0.3735294044017792)
(X_226  0.385294109582901)
(X_227  0.36176469922065735)
(X_228  0.3499999940395355)
(X_229  0.32647058367729187)
(X_230  0.2558823525905609)
(X_231  0.16960784792900085)
(X_232  0.2343137264251709)
(X_233  0.2617647051811218)
(X_234  0.2617647051811218)
(X_235  0.2852941155433655)
(X_236  0.240196093916893)
(X_237  0.23627452552318573)
(X_238  0.18137255311012268)
(X_239  0.15392157435417175)
(X_240  0.15000000596046448)
(X_241  0.21078431606292725)
(X_242  0.19901961088180542)
(X_243  0.21470588445663452)
(X_244  0.19901961088180542)
(X_245  0.1715686321258545)
(X_246  0.21078431606292725)
(X_247  0.18137255311012268)
(X_248  0.23627452552318573)
(X_249  0.25196078419685364)
(X_250  0.26764705777168274)
(X_251  0.3715686500072479)
(X_252  0.3068627417087555)
(X_253  0.2911764681339264)
(X_254  0.27156862616539)
(X_255  0.387254923582077)
(X_256  0.457843154668808)
(X_257  0.5049019455909729)
(X_258  0.45000001788139343)
(X_259  0.3558823764324188)
(X_260  0.16568627953529358)
(X_261  0.30490198731422424)
(X_262  0.3088235557079315)
(X_263  0.30098041892051697)
(X_264  0.30098041892051697)
(X_265  0.29313725233078003)
(X_266  0.2970588207244873)
(X_267  0.3245098292827606)
(X_268  0.20098040997982025)
(X_269  0.29313725233078003)
(X_270  0.3088235557079315)
(X_271  0.240196093916893)
(X_272  0.24803923070430756)
(X_273  0.25196078419685364)
(X_274  0.2911764681339264)
(X_275  0.34607842564582825)
(X_276  0.43431374430656433)
(X_277  0.3343137204647064)
(X_278  0.33039215207099915)
(X_279  0.3225490152835846)
(X_280  0.30490198731422424)
(X_281  0.2970588207244873)
(X_282  0.1931372582912445)
(X_283  0.23627452552318573)
(X_284  0.33039215207099915)
(X_285  0.3970588147640228)
(X_286  0.4696078598499298)
(X_287  0.40294119715690613)
(X_288  0.2558823525905609)
(X_289  0.2911764681339264)
(X_290  0.3186274468898773)
(X_291  0.31470587849617004)
(X_292  0.2754901945590973)
(X_293  0.2245098203420639)
(X_294  0.19705882668495178)
(X_295  0.1931372582912445)
(X_296  0.3127451241016388)
(X_297  0.21666668355464935)
(X_298  0.22058825194835663)
(X_299  0.31666669249534607)
(X_300  0.3088235557079315)
(X_301  0.31666669249534607)
(X_302  0.3401961028575897)
(X_303  0.26372548937797546)
(X_304  0.2754901945590973)
(X_305  0.26372548937797546)
(X_306  0.24411766231060028)
(X_307  0.23235295712947845)
(X_308  0.18333333730697632)
(X_309  0.23823529481887817)
(X_310  0.1931372582912445)
(X_311  0.22058825194835663)
(X_312  0.240196093916893)
(X_313  0.26372548937797546)
(X_314  0.27156862616539)
(X_315  0.2598039209842682)
(X_316  0.3068627417087555)
(X_317  0.29509803652763367)
(X_318  0.4225490391254425)
(X_319  0.46176472306251526)
(X_320  0.46176472306251526)
(X_321  0.3382352888584137)
(X_322  0.3029411733150482)
(X_323  0.2558823525905609)
(X_324  0.2558823525905609)
(X_325  0.2754901945590973)
(X_326  0.2872548997402191)
(X_327  0.27941176295280457)
(X_328  0.387254923582077)
(X_329  0.3225490152835846)
(X_330  0.3499999940395355)
(X_331  0.3578431308269501)
(X_332  0.49313727021217346)
(X_333  0.3813725411891937)
(X_334  0.3735294044017792)
(X_335  0.37745097279548645)
(X_336  0.028431374579668045)
(X_337  0.19901961088180542)
(X_338  0.25784313678741455)
(X_339  0.2656862735748291)
(X_340  0.24215686321258545)
(X_341  0.23823529481887817)
(X_342  0.16960784792900085)
(X_343  0.19705882668495178)
(X_344  0.24411766231060028)
(X_345  0.18921568989753723)
(X_346  0.21274511516094208)
(X_347  0.27156862616539)
(X_348  0.29509803652763367)
(X_349  0.34607842564582825)
(X_350  0.40882351994514465)
(X_351  0.5088235139846802)
(X_352  0.48137256503105164)
(X_353  0.5127450823783875)
(X_354  0.5362744927406311)
(X_355  0.5401960611343384)
(X_356  0.5401960611343384)
(X_357  0.5480391979217529)
(X_358  0.5362744927406311)
(X_359  0.5166666507720947)
(X_360  0.4107843339443207)
(X_361  0.31078431010246277)
(X_362  0.3186274468898773)
(X_363  0.34215685725212097)
(X_364  0.04019607976078987)
(X_365  0.0519607849419117)
(X_366  0.06372549384832382)
(X_367  0.16764706373214722)
(X_368  0.17549020051956177)
(X_369  0.19901961088180542)
(X_370  0.1303921639919281)
(X_371  0.15392157435417175)
(X_372  0.1460784375667572)
(X_373  0.11078432202339172)
(X_374  0.1774509847164154)
(X_375  0.32058826088905334)
(X_376  0.16568627953529358)
(X_377  0.18529412150382996)
(X_378  0.2754901945590973)
(X_379  0.3029411733150482)
(X_380  0.3068627417087555)
(X_381  0.43039217591285706)
(X_382  0.46176472306251526)
(X_383  0.3813725411891937)
(X_384  0.36176469922065735)
(X_385  0.31470587849617004)
(X_386  0.3558823764324188)
(X_387  0.32058826088905334)
(X_388  0.2970588207244873)
(X_389  0.30490198731422424)
(X_390  0.2245098203420639)
(X_391  0.344117671251297)
(X_392  0.12450980395078659)
(X_393  0.11666666716337204)
(X_394  0.10882353037595749)
(X_395  0.12058823555707932)
(X_396  0.1401960849761963)
(X_397  0.16764706373214722)
(X_398  0.19509804248809814)
(X_399  0.21470588445663452)
(X_400  0.21078431606292725)
(X_401  0.16764706373214722)
(X_402  0.25)
(X_403  0.29313725233078003)
(X_404  0.1872549057006836)
(X_405  0.05588235333561897)
(X_406  0.11078432202339172)
(X_407  0.10294118523597717)
(X_408  0.11862745881080627)
(X_409  0.11862745881080627)
(X_410  0.25)
(X_411  0.2970588207244873)
(X_412  0.3088235557079315)
(X_413  0.17352941632270813)
(X_414  0.24607843160629272)
(X_415  0.24607843160629272)
(X_416  0.12647059559822083)
(X_417  0.13823530077934265)
(X_418  0.15392157435417175)
(X_419  0.1617647111415863)
(X_420  -0.018627449870109558)
(X_421  0.0009803927969187498)
(X_422  0.02450980618596077)
(X_423  0.03235294297337532)
(X_424  0.02450980618596077)
(X_425  0.020588237792253494)
(X_426  0.04411764815449715)
(X_427  0.07549020648002625)
(X_428  0.10686275362968445)
(X_429  0.004901961423456669)
(X_430  0.04411764815449715)
(X_431  0.10294118523597717)
(X_432  0.04803921654820442)
(X_433  0.16372549533843994)
(X_434  0.12647059559822083)
(X_435  0.10294118523597717)
(X_436  0.25)
(X_437  0.19901961088180542)
(X_438  0.17941176891326904)
(X_439  0.20686274766921997)
(X_440  0.2029411792755127)
(X_441  0.1715686321258545)
(X_442  0.07549020648002625)
(X_443  0.114705890417099)
(X_444  0.07941177487373352)
(X_445  0.09117648005485535)
(X_446  0.10294118523597717)
(X_447  0.2029411792755127)
(X_448  0.11666666716337204)
(X_449  0.11274509876966476)
(X_450  0.10882353037595749)
(X_451  0.10490196198225021)
(X_452  0.008823529817163944)
(X_453  0.020588237792253494)
(X_454  0.13235294818878174)
(X_455  0.1401960849761963)
(X_456  0.136274516582489)
(X_457  0.1401960849761963)
(X_458  0.14411765336990356)
(X_459  0.15196079015731812)
(X_460  0.15980392694473267)
(X_461  0.1715686321258545)
(X_462  0.18333333730697632)
(X_463  0.1872549057006836)
(X_464  0.09117648005485535)
(X_465  0.09509804844856262)
(X_466  0.19117647409439087)
(X_467  0.16764706373214722)
(X_468  0.1401960849761963)
(X_469  0.12843137979507446)
(X_470  0.136274516582489)
(X_471  0.1558823585510254)
(X_472  0.15196079015731812)
(X_473  0.16764706373214722)
(X_474  0.17549020051956177)
(X_475  0.16764706373214722)
(X_476  0.008823529817163944)
(X_477  0.004901961423456669)
(X_478  0.10098039358854294)
(X_479  0.09705882519483566)
(X_480  0.0009803927969187498)
(X_481  0.008823529817163944)
(X_482  0.01666666939854622)
(X_483  0.02450980618596077)
(X_484  0.12450980395078659)
(X_485  0.12450980395078659)
(X_486  0.12843137979507446)
(X_487  0.03235294297337532)
(X_488  0.04019607976078987)
(X_489  0.0519607849419117)
(X_490  0.05980392172932625)
(X_491  0.06372549384832382)
(X_492  0.05588235333561897)
(X_493  0.05980392172932625)
(X_494  0.05588235333561897)
(X_495  0.136274516582489)
(X_496  0.10882353037595749)
(X_497  0.10098039358854294)
(X_498  0.11274509876966476)
(X_499  0.12843137979507446)
(X_500  0.11274509876966476)
(X_501  0.028431374579668045)
(X_502  0.036274511367082596)
(X_503  0.028431374579668045)
(X_504  0.004901961423456669)
(X_505  0.0009803927969187498)
(X_506  -0.006862743757665157)
(X_507  -0.010784312151372433)
(X_508  -0.010784312151372433)
(X_509  -0.006862743757665157)
(X_510  0.0009803927969187498)
(X_511  0.004901961423456669)
(X_512  0.008823529817163944)
(X_513  0.008823529817163944)
(X_514  0.008823529817163944)
(X_515  0.012745101936161518)
(X_516  0.01666666939854622)
(X_517  0.020588237792253494)
(X_518  0.028431374579668045)
(X_519  0.03235294297337532)
(X_520  0.01666666939854622)
(X_521  0.020588237792253494)
(X_522  0.020588237792253494)
(X_523  0.004901961423456669)
(X_524  -0.010784312151372433)
(X_525  0.08137255162000656)
(X_526  0.09313725680112839)
(X_527  0.10490196198225021)
(X_528  0.004901961423456669)
(X_529  0.012745101936161518)
(X_530  0.020588237792253494)
(X_531  0.01666666939854622)
(X_532  0.10098039358854294)
(X_533  0.09705882519483566)
(X_534  0.09313725680112839)
(X_535  0.08921568840742111)
(X_536  0.08529412001371384)
(X_537  -0.010784312151372433)
(X_538  -0.010784312151372433)
(X_539  -0.006862743757665157)
(X_540  -0.0029411755967885256)
(X_541  -0.0029411755967885256)
(X_542  -0.0029411755967885256)
(X_543  -0.006862743757665157)
(X_544  -0.0029411755967885256)
(X_545  0.0009803927969187498)
(X_546  0.004901961423456669)
(X_547  0.004901961423456669)
(X_548  0.10098039358854294)
(X_549  0.004901961423456669)
(X_550  0.004901961423456669)
(X_551  0.09705882519483566)
(X_552  0.08921568840742111)
(X_553  0.08529412001371384)
(X_554  0.09313725680112839)
(X_555  0.0009803927969187498)
(X_556  0.10490196198225021)
(X_557  0.008823529817163944)
(X_558  0.11666666716337204)
(X_559  0.10882353037595749)
(X_560  0.10098039358854294)
(X_561  0.0009803927969187498)
(X_562  0.09705882519483566)
(X_563  -0.006862743757665157)
(X_564  0.08921568840742111)
(X_565  0.08921568840742111)
(X_566  -0.010784312151372433)
(X_567  -0.010784312151372433)
(X_568  -0.006862743757665157)
(X_569  -0.006862743757665157)
(X_570  0.08921568840742111)
(X_571  -0.010784312151372433)
(X_572  -0.010784312151372433)
(X_573  -0.010784312151372433)
(X_574  -0.006862743757665157)
(X_575  -0.006862743757665157)
(X_576  -0.006862743757665157)
(X_577  -0.006862743757665157)
(X_578  -0.0029411755967885256)
(X_579  0.09313725680112839)
(X_580  0.08921568840742111)
(X_581  0.08921568840742111)
(X_582  0.09705882519483566)
(X_583  0.10098039358854294)
(X_584  0.08529412001371384)
(X_585  -0.010784312151372433)
(X_586  -0.006862743757665157)
(X_587  -0.010784312151372433)
(X_588  0.09705882519483566)
(X_589  -0.0029411755967885256)
(X_590  -0.0029411755967885256)
(X_591  0.09313725680112839)
(X_592  -0.006862743757665157)
(X_593  -0.010784312151372433)
(X_594  0.08921568840742111)
(X_595  0.08529412001371384)
(X_596  -0.006862743757665157)
(X_597  -0.006862743757665157)
(X_598  -0.010784312151372433)
(X_599  -0.014705880545079708)
(X_600  -0.014705880545079708)
(X_601  -0.010784312151372433)
(X_602  -0.010784312151372433)
(X_603  -0.006862743757665157)
(X_604  0.08137255162000656)
(X_605  0.08137255162000656)
(X_606  0.08529412001371384)
(X_607  0.08529412001371384)
(X_608  0.08529412001371384)
(X_609  0.08921568840742111)
(X_610  0.08921568840742111)
(X_611  -0.010784312151372433)
(X_612  -0.014705880545079708)
(X_613  -0.014705880545079708)
(X_614  0.08529412001371384)
(X_615  0.08137255162000656)
(X_616  0.08921568840742111)
(X_617  0.08921568840742111)
(X_618  -0.006862743757665157)
(X_619  -0.006862743757665157)
(X_620  -0.010784312151372433)
(X_621  0.08921568840742111)
(X_622  -0.014705880545079708)
(X_623  -0.014705880545079708)
(X_624  0.08921568840742111)
(X_625  0.08921568840742111)
(X_626  0.08529412001371384)
(X_627  -0.014705880545079708)
(X_628  -0.014705880545079708)
(X_629  -0.014705880545079708)
(X_630  0.08921568840742111)
(X_631  0.09313725680112839)
(X_632  -0.022549020126461983)
(X_633  -0.022549020126461983)
(X_634  -0.022549020126461983)
(X_635  -0.018627449870109558)
(X_636  0.08529412001371384)
(X_637  0.08529412001371384)
(X_638  0.08137255162000656)
(X_639  0.08137255162000656)
(X_640  0.09705882519483566)
(X_641  0.09313725680112839)
(X_642  0.08921568840742111)
(X_643  0.08921568840742111)
(X_644  0.08137255162000656)
(X_645  -0.014705880545079708)
(X_646  0.08529412001371384)
(X_647  0.08921568840742111)
(X_648  0.08921568840742111)
(X_649  0.08529412001371384)
(X_650  -0.014705880545079708)
(X_651  -0.018627449870109558)
(X_652  -0.014705880545079708)
(X_653  -0.014705880545079708)
(X_654  -0.018627449870109558)
(X_655  -0.018627449870109558)
(X_656  -0.018627449870109558)
(X_657  -0.014705880545079708)
(X_658  -0.010784312151372433)
(X_659  -0.006862743757665157)
(X_660  0.08137255162000656)
(X_661  0.07745098322629929)
(X_662  0.07745098322629929)
(X_663  0.08137255162000656)
(X_664  -0.010784312151372433)
(X_665  -0.010784312151372433)
(X_666  -0.014705880545079708)
(X_667  -0.022549020126461983)
(X_668  -0.006862743757665157)
(X_669  -0.010784312151372433)
(X_670  0.08529412001371384)
(X_671  -0.014705880545079708)
(X_672  0.09313725680112839)
(X_673  -0.0029411755967885256)
(X_674  -0.0029411755967885256)
(X_675  -0.010784312151372433)
(X_676  -0.018627449870109558)
(X_677  0.07745098322629929)
(X_678  0.08137255162000656)
(X_679  0.08921568840742111)
(X_680  -0.014705880545079708)
(X_681  0.08529412001371384)
(X_682  0.08921568840742111)
(X_683  0.08921568840742111)
(X_684  0.08529412001371384)
(X_685  -0.014705880545079708)
(X_686  -0.018627449870109558)
(X_687  -0.022549020126461983)
(X_688  0.08529412001371384)
(X_689  0.08529412001371384)
(X_690  -0.014705880545079708)
(X_691  -0.014705880545079708)
(X_692  0.08529412001371384)
(X_693  -0.014705880545079708)
(X_694  -0.018627449870109558)
(X_695  -0.018627449870109558)
(X_696  -0.022549020126461983)
(X_697  0.08529412001371384)
(X_698  0.08921568840742111)
(X_699  0.09313725680112839)
(X_700  0.061764705926179886)
(X_701  -0.030392156913876534)
(X_702  -0.022549020126461983)
(X_703  -0.022549020126461983)
(X_704  -0.022549020126461983)
(X_705  -0.014705880545079708)
(X_706  -0.006862743757665157)
(X_707  0.004901961423456669)
(X_708  -0.03431372344493866)
(X_709  -0.030392156913876534)
(X_710  -0.026470588520169258)
(X_711  0.07352941483259201)
(X_712  0.07745098322629929)
(X_713  -0.022549020126461983)
(X_714  -0.026470588520169258)
(X_715  -0.026470588520169258)
(X_716  0.07352941483259201)
(X_717  -0.022549020126461983)
(X_718  -0.018627449870109558)
(X_719  -0.014705880545079708)
(X_720  -0.006862743757665157)
(X_721  -0.0029411755967885256)
(X_722  0.004901961423456669)
(X_723  0.10490196198225021)
(X_724  0.13235294818878174)
(X_725  0.1401960849761963)
(X_726  0.15196079015731812)
(X_727  0.16372549533843994)
(X_728  0.21078431606292725)
(X_729  0.12254902720451355)
(X_730  0.23823529481887817)
(X_731  0.2539215683937073)
(X_732  0.2617647051811218)
(X_733  0.2774509787559509)
(X_734  0.29313725233078003)
(X_735  0.30490198731422424)
(X_736  0.3794117867946625)
(X_737  0.3950980603694916)
(X_738  0.3225490152835846)
(X_739  0.3578431308269501)
(X_740  0.49313727021217346)
(X_741  0.5245097875595093)
(X_742  0.5480391979217529)
(X_743  0.5598039627075195)
(X_744  0.5303921699523926)
(X_745  0.5460784435272217)
(X_746  0.5696078538894653)
(X_747  0.6049019694328308)
(X_748  0.6441176533699036)
(X_749  0.7754902243614197)
(X_750  0.7029411792755127)
(X_751  0.7186274528503418)
(X_752  0.8500000238418579)
(X_753  0.8578431606292725)
(X_754  0.8696078658103943)
(X_755  0.8813725709915161)
(X_756  0.9009804129600525)
(X_757  0.8166666626930237)
(X_758  0.8362745046615601)
(X_759  0.8558823466300964)
(X_760  0.8754901885986328)
(X_761  0.8911764621734619)
(X_762  1.0107842683792114)
(X_763  1.022549033164978)
(X_764  0.9950980544090271)
(X_765  1.0029411315917969)
(X_766  0.9147058725357056)
(X_767  0.9264705777168274)
(X_768  0.9382352828979492)
(X_769  0.9460784196853638)
(X_770  0.949999988079071)
(X_771  0.949999988079071)
(X_772  0.9303921461105347)
(X_773  0.9303921461105347)
(X_774  0.9343137145042419)
(X_775  0.9382352828979492)
(X_776  0.9421568512916565)
(X_777  0.9421568512916565)
(X_778  0.9460784196853638)
(X_779  0.9460784196853638)
(X_780  0.9343137145042419)
(X_781  0.9382352828979492)
(X_782  0.9421568512916565)
(X_783  0.9460784196853638)
(Y_0 -7.921734809875488)
(Y_1 12.493133544921875)
(Y_2 -2.940436840057373)
(Y_3 1.5914626121520996))