((X_0  0.04411764815449715)
(X_1  0.0519607849419117)
(X_2  0.15980392694473267)
(X_3  0.0519607849419117)
(X_4  0.036274511367082596)
(X_5  0.03235294297337532)
(X_6  0.04411764815449715)
(X_7  0.1558823585510254)
(X_8  0.14803922176361084)
(X_9  0.14411765336990356)
(X_10  0.14411765336990356)
(X_11  0.14803922176361084)
(X_12  0.15980392694473267)
(X_13  0.06372549384832382)
(X_14  0.05588235333561897)
(X_15  0.04411764815449715)
(X_16  0.15196079015731812)
(X_17  0.136274516582489)
(X_18  0.12058823555707932)
(X_19  0.12843137979507446)
(X_20  0.14803922176361084)
(X_21  0.06372549384832382)
(X_22  0.15980392694473267)
(X_23  0.14803922176361084)
(X_24  0.04803921654820442)
(X_25  0.04803921654820442)
(X_26  0.14803922176361084)
(X_27  0.04411764815449715)
(X_28  0.04803921654820442)
(X_29  0.15196079015731812)
(X_30  0.15196079015731812)
(X_31  0.14803922176361084)
(X_32  0.14411765336990356)
(X_33  0.1401960849761963)
(X_34  0.14803922176361084)
(X_35  0.1558823585510254)
(X_36  0.136274516582489)
(X_37  0.13235294818878174)
(X_38  0.12843137979507446)
(X_39  0.136274516582489)
(X_40  0.1401960849761963)
(X_41  0.13235294818878174)
(X_42  0.012745101936161518)
(X_43  0.09705882519483566)
(X_44  0.05980392172932625)
(X_45  0.14803922176361084)
(X_46  0.1401960849761963)
(X_47  0.14803922176361084)
(X_48  0.15980392694473267)
(X_49  0.16764706373214722)
(X_50  0.16372549533843994)
(X_51  0.1558823585510254)
(X_52  0.13235294818878174)
(X_53  0.136274516582489)
(X_54  0.14411765336990356)
(X_55  0.0519607849419117)
(X_56  0.0519607849419117)
(X_57  0.14411765336990356)
(X_58  0.1401960849761963)
(X_59  0.136274516582489)
(X_60  0.1401960849761963)
(X_61  0.14411765336990356)
(X_62  0.1401960849761963)
(X_63  0.136274516582489)
(X_64  0.15980392694473267)
(X_65  0.15196079015731812)
(X_66  0.1401960849761963)
(X_67  0.14411765336990356)
(X_68  0.15196079015731812)
(X_69  0.1558823585510254)
(X_70  0.14803922176361084)
(X_71  0.1401960849761963)
(X_72  0.1401960849761963)
(X_73  0.13235294818878174)
(X_74  0.12450980395078659)
(X_75  0.01666666939854622)
(X_76  0.01666666939854622)
(X_77  0.02450980618596077)
(X_78  0.028431374579668045)
(X_79  0.036274511367082596)
(X_80  0.0676470622420311)
(X_81  0.16764706373214722)
(X_82  0.05980392172932625)
(X_83  0.0519607849419117)
(X_84  0.04411764815449715)
(X_85  0.13235294818878174)
(X_86  0.12058823555707932)
(X_87  0.020588237792253494)
(X_88  0.03235294297337532)
(X_89  0.136274516582489)
(X_90  0.13235294818878174)
(X_91  0.12058823555707932)
(X_92  0.020588237792253494)
(X_93  0.10882353037595749)
(X_94  0.09705882519483566)
(X_95  0.09705882519483566)
(X_96  0.012745101936161518)
(X_97  0.12843137979507446)
(X_98  0.04411764815449715)
(X_99  0.04803921654820442)
(X_100  0.04019607976078987)
(X_101  0.04019607976078987)
(X_102  0.04411764815449715)
(X_103  0.036274511367082596)
(X_104  0.03235294297337532)
(X_105  0.03235294297337532)
(X_106  0.136274516582489)
(X_107  0.14411765336990356)
(X_108  0.020588237792253494)
(X_109  0.12450980395078659)
(X_110  0.12843137979507446)
(X_111  0.03235294297337532)
(X_112  0.10098039358854294)
(X_113  0.08921568840742111)
(X_114  0.08529412001371384)
(X_115  -0.0029411755967885256)
(X_116  0.020588237792253494)
(X_117  0.03235294297337532)
(X_118  0.036274511367082596)
(X_119  0.028431374579668045)
(X_120  0.11666666716337204)
(X_121  0.12058823555707932)
(X_122  0.12450980395078659)
(X_123  0.12058823555707932)
(X_124  0.10490196198225021)
(X_125  0.09313725680112839)
(X_126  0.09313725680112839)
(X_127  0.09313725680112839)
(X_128  -0.038235295563936234)
(X_129  -0.0029411755967885256)
(X_130  0.04411764815449715)
(X_131  0.07549020648002625)
(X_132  0.07549020648002625)
(X_133  0.05588235333561897)
(X_134  0.12843137979507446)
(X_135  0.012745101936161518)
(X_136  0.14803922176361084)
(X_137  0.14803922176361084)
(X_138  0.14411765336990356)
(X_139  0.04019607976078987)
(X_140  0.14215686917304993)
(X_141  0.14215686917304993)
(X_142  0.15000000596046448)
(X_143  0.16568627953529358)
(X_144  0.1931372582912445)
(X_145  0.3127451241016388)
(X_146  0.3245098292827606)
(X_147  0.23235295712947845)
(X_148  0.23627452552318573)
(X_149  0.26372548937797546)
(X_150  0.2754901945590973)
(X_151  0.24803923070430756)
(X_152  0.18137255311012268)
(X_153  0.114705890417099)
(X_154  0.17549020051956177)
(X_155  0.16372549533843994)
(X_156  0.2343137264251709)
(X_157  0.30098041892051697)
(X_158  0.3950980603694916)
(X_159  0.3735294044017792)
(X_160  0.4049019515514374)
(X_161  0.37745097279548645)
(X_162  0.3225490152835846)
(X_163  0.2754901945590973)
(X_164  0.30490198731422424)
(X_165  0.30098041892051697)
(X_166  0.2970588207244873)
(X_167  0.18921568989753723)
(X_168  0.4539215862751007)
(X_169  0.46176472306251526)
(X_170  0.3735294044017792)
(X_171  0.3813725411891937)
(X_172  0.3892156779766083)
(X_173  0.4009803831577301)
(X_174  0.4205882251262665)
(X_175  0.4323529303073883)
(X_176  0.4205882251262665)
(X_177  0.44019606709480286)
(X_178  0.4323529303073883)
(X_179  0.3578431308269501)
(X_180  0.24803923070430756)
(X_181  0.1617647111415863)
(X_182  0.14215686917304993)
(X_183  0.15392157435417175)
(X_184  0.18137255311012268)
(X_185  0.23235295712947845)
(X_186  0.3225490152835846)
(X_187  0.520588219165802)
(X_188  0.5872549414634705)
(X_189  0.5990196466445923)
(X_190  0.5676470994949341)
(X_191  0.4362744987010956)
(X_192  0.4990196228027344)
(X_193  0.5107843279838562)
(X_194  0.6264706254005432)
(X_195  0.6500000357627869)
(X_196  0.41862747073173523)
(X_197  0.43039217591285706)
(X_198  0.3343137204647064)
(X_199  0.33039215207099915)
(X_200  0.3186274468898773)
(X_201  0.31470587849617004)
(X_202  0.32647058367729187)
(X_203  0.3382352888584137)
(X_204  0.3696078360080719)
(X_205  0.3696078360080719)
(X_206  0.4264706075191498)
(X_207  0.3127451241016388)
(X_208  0.1872549057006836)
(X_209  0.12450980395078659)
(X_210  0.15196079015731812)
(X_211  0.19901961088180542)
(X_212  0.10686275362968445)
(X_213  0.12647059559822083)
(X_214  0.2813725471496582)
(X_215  0.36764708161354065)
(X_216  0.457843154668808)
(X_217  0.4205882251262665)
(X_218  0.44411763548851013)
(X_219  0.44411763548851013)
(X_220  0.42843136191368103)
(X_221  0.42843136191368103)
(X_222  0.5245097875595093)
(X_223  0.520588219165802)
(X_224  0.3598039448261261)
(X_225  0.3480392396450043)
(X_226  0.33627453446388245)
(X_227  0.3284313976764679)
(X_228  0.33235296607017517)
(X_229  0.3480392396450043)
(X_230  0.36764708161354065)
(X_231  0.3794117867946625)
(X_232  0.33627453446388245)
(X_233  0.3127451241016388)
(X_234  0.2656862735748291)
(X_235  0.22647058963775635)
(X_236  0.2186274528503418)
(X_237  0.23039215803146362)
(X_238  0.2186274528503418)
(X_239  0.19509804248809814)
(X_240  0.29313725233078003)
(X_241  0.2186274528503418)
(X_242  0.114705890417099)
(X_243  0.2245098203420639)
(X_244  0.3068627417087555)
(X_245  0.3068627417087555)
(X_246  0.31470587849617004)
(X_247  0.45000001788139343)
(X_248  0.4107843339443207)
(X_249  0.31078431010246277)
(X_250  0.4107843339443207)
(X_251  0.41862747073173523)
(X_252  0.16568627953529358)
(X_253  0.15784314274787903)
(X_254  0.15392157435417175)
(X_255  0.24607843160629272)
(X_256  0.15000000596046448)
(X_257  0.15784314274787903)
(X_258  0.16568627953529358)
(X_259  0.2696078419685364)
(X_260  0.3088235557079315)
(X_261  0.2696078419685364)
(X_262  0.25)
(X_263  0.2774509787559509)
(X_264  0.2970588207244873)
(X_265  0.18921568989753723)
(X_266  0.18921568989753723)
(X_267  0.20490197837352753)
(X_268  0.2852941155433655)
(X_269  0.19705882668495178)
(X_270  0.22058825194835663)
(X_271  0.3401961028575897)
(X_272  0.3284313976764679)
(X_273  0.21666668355464935)
(X_274  0.3401961028575897)
(X_275  0.3794117867946625)
(X_276  0.26372548937797546)
(X_277  0.26764705777168274)
(X_278  0.3715686500072479)
(X_279  0.3754902184009552)
(X_280  0.36176469922065735)
(X_281  0.46568629145622253)
(X_282  0.46568629145622253)
(X_283  0.4696078598499298)
(X_284  0.3735294044017792)
(X_285  0.37745097279548645)
(X_286  0.37745097279548645)
(X_287  0.3813725411891937)
(X_288  0.45000001788139343)
(X_289  0.3950980603694916)
(X_290  0.3911764919757843)
(X_291  0.44607844948768616)
(X_292  0.46568629145622253)
(X_293  0.43039217591285706)
(X_294  0.4264706075191498)
(X_295  0.46176472306251526)
(X_296  0.3382352888584137)
(X_297  0.3813725411891937)
(X_298  0.4049019515514374)
(X_299  0.3696078360080719)
(X_300  0.3225490152835846)
(X_301  0.3029411733150482)
(X_302  0.3186274468898773)
(X_303  0.43039217591285706)
(X_304  0.27941176295280457)
(X_305  0.2911764681339264)
(X_306  0.4068627655506134)
(X_307  0.4107843339443207)
(X_308  0.47156864404678345)
(X_309  0.47156864404678345)
(X_310  0.5754902362823486)
(X_311  0.479411780834198)
(X_312  0.48725491762161255)
(X_313  0.4950980544090271)
(X_314  0.5029411911964417)
(X_315  0.5068627595901489)
(X_316  0.6500000357627869)
(X_317  0.5147058963775635)
(X_318  0.5068627595901489)
(X_319  0.5303921699523926)
(X_320  0.5343137383460999)
(X_321  0.5147058963775635)
(X_322  0.5068627595901489)
(X_323  0.522549033164978)
(X_324  0.6696078777313232)
(X_325  0.6617647409439087)
(X_326  0.5578431487083435)
(X_327  0.5617647171020508)
(X_328  0.6617647409439087)
(X_329  0.6500000357627869)
(X_330  0.6303921937942505)
(X_331  0.5147058963775635)
(X_332  0.5147058963775635)
(X_333  0.5460784435272217)
(X_334  0.6774510145187378)
(X_335  0.6892157196998596)
(X_336  0.43431374430656433)
(X_337  0.33039215207099915)
(X_338  0.3225490152835846)
(X_339  0.3186274468898773)
(X_340  0.3225490152835846)
(X_341  0.33039215207099915)
(X_342  0.4382353127002716)
(X_343  0.44607844948768616)
(X_344  0.28333333134651184)
(X_345  0.39901962876319885)
(X_346  0.387254923582077)
(X_347  0.3637255132198334)
(X_348  0.3715686500072479)
(X_349  0.4068627655506134)
(X_350  0.41470590233802795)
(X_351  0.3950980603694916)
(X_352  0.32647058367729187)
(X_353  0.27156862616539)
(X_354  0.3715686500072479)
(X_355  0.43431374430656433)
(X_356  0.46568629145622253)
(X_357  0.33039215207099915)
(X_358  0.31078431010246277)
(X_359  0.33039215207099915)
(X_360  0.2911764681339264)
(X_361  0.33039215207099915)
(X_362  0.3735294044017792)
(X_363  0.3970588147640228)
(X_364  0.3754902184009552)
(X_365  0.26372548937797546)
(X_366  0.25196078419685364)
(X_367  0.23627452552318573)
(X_368  0.23235295712947845)
(X_369  0.23235295712947845)
(X_370  0.3401961028575897)
(X_371  0.24411766231060028)
(X_372  0.27352941036224365)
(X_373  0.3127451241016388)
(X_374  0.30098041892051697)
(X_375  0.25)
(X_376  0.25)
(X_377  0.30490198731422424)
(X_378  0.31666669249534607)
(X_379  0.2774509787559509)
(X_380  0.2656862735748291)
(X_381  0.23039215803146362)
(X_382  0.2539215683937073)
(X_383  0.32058826088905334)
(X_384  0.3127451241016388)
(X_385  0.2539215683937073)
(X_386  0.2696078419685364)
(X_387  0.24803923070430756)
(X_388  0.23627452552318573)
(X_389  0.26372548937797546)
(X_390  0.29901960492134094)
(X_391  0.3186274468898773)
(X_392  0.21666668355464935)
(X_393  0.3127451241016388)
(X_394  0.3088235557079315)
(X_395  0.30098041892051697)
(X_396  0.19705882668495178)
(X_397  0.19705882668495178)
(X_398  0.2970588207244873)
(X_399  0.2970588207244873)
(X_400  0.30098041892051697)
(X_401  0.32058826088905334)
(X_402  0.31666669249534607)
(X_403  0.18529412150382996)
(X_404  0.1774509847164154)
(X_405  0.19705882668495178)
(X_406  0.19705882668495178)
(X_407  0.1774509847164154)
(X_408  0.2539215683937073)
(X_409  0.25784313678741455)
(X_410  0.18529412150382996)
(X_411  0.20490197837352753)
(X_412  0.17352941632270813)
(X_413  0.13431373238563538)
(X_414  0.25784313678741455)
(X_415  0.22058825194835663)
(X_416  0.2852941155433655)
(X_417  0.28921568393707275)
(X_418  0.19705882668495178)
(X_419  0.20490197837352753)
(X_420  0.20686274766921997)
(X_421  0.21078431606292725)
(X_422  0.22254902124404907)
(X_423  0.23039215803146362)
(X_424  0.23823529481887817)
(X_425  0.13823530077934265)
(X_426  0.13431373238563538)
(X_427  0.1303921639919281)
(X_428  0.13431373238563538)
(X_429  0.2343137264251709)
(X_430  0.24607843160629272)
(X_431  0.2656862735748291)
(X_432  0.2656862735748291)
(X_433  0.15000000596046448)
(X_434  0.15000000596046448)
(X_435  0.2656862735748291)
(X_436  0.13823530077934265)
(X_437  0.15000000596046448)
(X_438  0.15000000596046448)
(X_439  0.13431373238563538)
(X_440  0.12254902720451355)
(X_441  0.12254902720451355)
(X_442  0.23039215803146362)
(X_443  0.2343137264251709)
(X_444  0.2617647051811218)
(X_445  0.24607843160629272)
(X_446  0.23039215803146362)
(X_447  0.12254902720451355)
(X_448  0.07549020648002625)
(X_449  0.07549020648002625)
(X_450  0.07549020648002625)
(X_451  0.07549020648002625)
(X_452  0.07549020648002625)
(X_453  0.07549020648002625)
(X_454  0.07549020648002625)
(X_455  0.07549020648002625)
(X_456  0.0990196168422699)
(X_457  0.09117648005485535)
(X_458  0.0833333432674408)
(X_459  0.18333333730697632)
(X_460  0.0833333432674408)
(X_461  0.0833333432674408)
(X_462  0.07549020648002625)
(X_463  0.0676470622420311)
(X_464  0.17941176891326904)
(X_465  0.17941176891326904)
(X_466  0.18333333730697632)
(X_467  0.0833333432674408)
(X_468  0.0833333432674408)
(X_469  0.07941177487373352)
(X_470  0.07549020648002625)
(X_471  0.07549020648002625)
(X_472  0.07549020648002625)
(X_473  0.07156863063573837)
(X_474  0.16764706373214722)
(X_475  0.0676470622420311)
(X_476  0.14411765336990356)
(X_477  0.04411764815449715)
(X_478  0.04411764815449715)
(X_479  0.04411764815449715)
(X_480  0.14411765336990356)
(X_481  0.14411765336990356)
(X_482  0.14411765336990356)
(X_483  0.14411765336990356)
(X_484  0.05588235333561897)
(X_485  0.04803921654820442)
(X_486  0.04411764815449715)
(X_487  0.1401960849761963)
(X_488  0.14411765336990356)
(X_489  0.04411764815449715)
(X_490  0.036274511367082596)
(X_491  0.028431374579668045)
(X_492  0.13235294818878174)
(X_493  0.03235294297337532)
(X_494  0.036274511367082596)
(X_495  0.04019607976078987)
(X_496  0.04019607976078987)
(X_497  0.04019607976078987)
(X_498  0.036274511367082596)
(X_499  0.036274511367082596)
(X_500  0.04019607976078987)
(X_501  0.1401960849761963)
(X_502  0.136274516582489)
(X_503  0.03235294297337532)
(X_504  0.020588237792253494)
(X_505  0.020588237792253494)
(X_506  0.020588237792253494)
(X_507  0.020588237792253494)
(X_508  0.12058823555707932)
(X_509  0.12058823555707932)
(X_510  0.020588237792253494)
(X_511  0.020588237792253494)
(X_512  0.12843137979507446)
(X_513  0.12058823555707932)
(X_514  0.012745101936161518)
(X_515  0.11274509876966476)
(X_516  0.01666666939854622)
(X_517  0.01666666939854622)
(X_518  0.008823529817163944)
(X_519  0.004901961423456669)
(X_520  0.10098039358854294)
(X_521  0.10490196198225021)
(X_522  0.10882353037595749)
(X_523  0.11274509876966476)
(X_524  0.11274509876966476)
(X_525  0.11666666716337204)
(X_526  0.11274509876966476)
(X_527  0.012745101936161518)
(X_528  0.11274509876966476)
(X_529  0.11274509876966476)
(X_530  0.10882353037595749)
(X_531  0.008823529817163944)
(X_532  0.01666666939854622)
(X_533  0.01666666939854622)
(X_534  0.01666666939854622)
(X_535  0.01666666939854622)
(X_536  0.11666666716337204)
(X_537  0.11666666716337204)
(X_538  0.11666666716337204)
(X_539  0.11666666716337204)
(X_540  0.12843137979507446)
(X_541  0.020588237792253494)
(X_542  0.012745101936161518)
(X_543  0.01666666939854622)
(X_544  0.020588237792253494)
(X_545  0.020588237792253494)
(X_546  0.012745101936161518)
(X_547  0.10882353037595749)
(X_548  0.004901961423456669)
(X_549  0.008823529817163944)
(X_550  0.012745101936161518)
(X_551  0.12058823555707932)
(X_552  0.02450980618596077)
(X_553  0.02450980618596077)
(X_554  0.02450980618596077)
(X_555  0.12450980395078659)
(X_556  0.11274509876966476)
(X_557  0.11274509876966476)
(X_558  0.10882353037595749)
(X_559  0.004901961423456669)
(X_560  0.01666666939854622)
(X_561  0.11666666716337204)
(X_562  0.01666666939854622)
(X_563  0.01666666939854622)
(X_564  0.01666666939854622)
(X_565  0.01666666939854622)
(X_566  0.01666666939854622)
(X_567  0.01666666939854622)
(X_568  0.12058823555707932)
(X_569  0.11666666716337204)
(X_570  0.11274509876966476)
(X_571  0.11274509876966476)
(X_572  0.11666666716337204)
(X_573  0.12058823555707932)
(X_574  0.11274509876966476)
(X_575  0.10882353037595749)
(X_576  0.10882353037595749)
(X_577  0.11274509876966476)
(X_578  0.11666666716337204)
(X_579  0.12450980395078659)
(X_580  0.12843137979507446)
(X_581  0.12843137979507446)
(X_582  0.028431374579668045)
(X_583  0.028431374579668045)
(X_584  0.01666666939854622)
(X_585  0.11666666716337204)
(X_586  0.11274509876966476)
(X_587  0.11274509876966476)
(X_588  0.004901961423456669)
(X_589  0.10490196198225021)
(X_590  0.10490196198225021)
(X_591  0.004901961423456669)
(X_592  0.10490196198225021)
(X_593  0.10490196198225021)
(X_594  0.10490196198225021)
(X_595  0.004901961423456669)
(X_596  0.0009803927969187498)
(X_597  -0.0029411755967885256)
(X_598  -0.006862743757665157)
(X_599  0.09313725680112839)
(X_600  0.10098039358854294)
(X_601  0.10098039358854294)
(X_602  0.09705882519483566)
(X_603  0.09313725680112839)
(X_604  0.09705882519483566)
(X_605  0.0009803927969187498)
(X_606  0.004901961423456669)
(X_607  0.008823529817163944)
(X_608  0.008823529817163944)
(X_609  0.012745101936161518)
(X_610  0.10882353037595749)
(X_611  0.10882353037595749)
(X_612  0.10882353037595749)
(X_613  0.10882353037595749)
(X_614  0.004901961423456669)
(X_615  0.004901961423456669)
(X_616  -0.006862743757665157)
(X_617  -0.006862743757665157)
(X_618  -0.006862743757665157)
(X_619  -0.006862743757665157)
(X_620  0.09313725680112839)
(X_621  0.09313725680112839)
(X_622  -0.006862743757665157)
(X_623  -0.006862743757665157)
(X_624  -0.0029411755967885256)
(X_625  -0.010784312151372433)
(X_626  -0.014705880545079708)
(X_627  -0.010784312151372433)
(X_628  0.09313725680112839)
(X_629  0.09705882519483566)
(X_630  0.09313725680112839)
(X_631  -0.010784312151372433)
(X_632  -0.010784312151372433)
(X_633  -0.006862743757665157)
(X_634  -0.006862743757665157)
(X_635  0.09705882519483566)
(X_636  -0.0029411755967885256)
(X_637  -0.0029411755967885256)
(X_638  -0.006862743757665157)
(X_639  0.09313725680112839)
(X_640  0.09705882519483566)
(X_641  0.09705882519483566)
(X_642  -0.006862743757665157)
(X_643  -0.006862743757665157)
(X_644  -0.006862743757665157)
(X_645  0.09313725680112839)
(X_646  0.09313725680112839)
(X_647  -0.006862743757665157)
(X_648  0.09313725680112839)
(X_649  0.09313725680112839)
(X_650  0.09313725680112839)
(X_651  0.09313725680112839)
(X_652  0.004901961423456669)
(X_653  0.10098039358854294)
(X_654  0.09705882519483566)
(X_655  0.09705882519483566)
(X_656  0.004901961423456669)
(X_657  0.008823529817163944)
(X_658  0.004901961423456669)
(X_659  0.10098039358854294)
(X_660  -0.0029411755967885256)
(X_661  -0.0029411755967885256)
(X_662  0.0009803927969187498)
(X_663  0.10098039358854294)
(X_664  0.10098039358854294)
(X_665  -0.0029411755967885256)
(X_666  -0.006862743757665157)
(X_667  0.09313725680112839)
(X_668  0.09313725680112839)
(X_669  0.08921568840742111)
(X_670  0.08921568840742111)
(X_671  0.08529412001371384)
(X_672  -0.010784312151372433)
(X_673  0.08921568840742111)
(X_674  0.08921568840742111)
(X_675  0.08529412001371384)
(X_676  0.08529412001371384)
(X_677  -0.018627449870109558)
(X_678  -0.018627449870109558)
(X_679  -0.018627449870109558)
(X_680  -0.014705880545079708)
(X_681  -0.010784312151372433)
(X_682  -0.010784312151372433)
(X_683  -0.006862743757665157)
(X_684  -0.006862743757665157)
(X_685  -0.010784312151372433)
(X_686  0.08921568840742111)
(X_687  0.08529412001371384)
(X_688  -0.010784312151372433)
(X_689  -0.010784312151372433)
(X_690  -0.010784312151372433)
(X_691  -0.010784312151372433)
(X_692  -0.010784312151372433)
(X_693  -0.010784312151372433)
(X_694  0.08921568840742111)
(X_695  0.08921568840742111)
(X_696  0.08921568840742111)
(X_697  0.08921568840742111)
(X_698  -0.010784312151372433)
(X_699  -0.010784312151372433)
(X_700  -0.010784312151372433)
(X_701  0.08921568840742111)
(X_702  0.08921568840742111)
(X_703  0.08529412001371384)
(X_704  0.08529412001371384)
(X_705  0.08137255162000656)
(X_706  0.08137255162000656)
(X_707  0.08137255162000656)
(X_708  0.08529412001371384)
(X_709  0.08921568840742111)
(X_710  0.08921568840742111)
(X_711  0.09313725680112839)
(X_712  0.09313725680112839)
(X_713  0.08921568840742111)
(X_714  0.08921568840742111)
(X_715  0.08529412001371384)
(X_716  -0.010784312151372433)
(X_717  -0.010784312151372433)
(X_718  0.08921568840742111)
(X_719  0.08921568840742111)
(X_720  -0.010784312151372433)
(X_721  -0.010784312151372433)
(X_722  -0.010784312151372433)
(X_723  0.08921568840742111)
(X_724  -0.010784312151372433)
(X_725  0.08921568840742111)
(X_726  0.08921568840742111)
(X_727  -0.010784312151372433)
(X_728  -0.010784312151372433)
(X_729  0.08921568840742111)
(X_730  0.08921568840742111)
(X_731  0.08529412001371384)
(X_732  -0.014705880545079708)
(X_733  -0.018627449870109558)
(X_734  -0.018627449870109558)
(X_735  -0.018627449870109558)
(X_736  -0.014705880545079708)
(X_737  -0.014705880545079708)
(X_738  -0.010784312151372433)
(X_739  -0.010784312151372433)
(X_740  -0.010784312151372433)
(X_741  -0.010784312151372433)
(X_742  -0.014705880545079708)
(X_743  -0.014705880545079708)
(X_744  0.08921568840742111)
(X_745  0.08921568840742111)
(X_746  0.08921568840742111)
(X_747  0.08921568840742111)
(X_748  -0.010784312151372433)
(X_749  -0.010784312151372433)
(X_750  -0.010784312151372433)
(X_751  -0.010784312151372433)
(X_752  -0.010784312151372433)
(X_753  0.08921568840742111)
(X_754  0.08921568840742111)
(X_755  -0.010784312151372433)
(X_756  -0.010784312151372433)
(X_757  0.08921568840742111)
(X_758  0.08921568840742111)
(X_759  -0.014705880545079708)
(X_760  0.08529412001371384)
(X_761  -0.018627449870109558)
(X_762  -0.018627449870109558)
(X_763  -0.018627449870109558)
(X_764  0.08137255162000656)
(X_765  0.08529412001371384)
(X_766  0.08921568840742111)
(X_767  0.08921568840742111)
(X_768  0.08921568840742111)
(X_769  0.08921568840742111)
(X_770  0.08529412001371384)
(X_771  0.08137255162000656)
(X_772  0.08921568840742111)
(X_773  0.08921568840742111)
(X_774  -0.010784312151372433)
(X_775  -0.010784312151372433)
(X_776  -0.010784312151372433)
(X_777  0.08921568840742111)
(X_778  0.08921568840742111)
(X_779  0.08921568840742111)
(X_780  0.08921568840742111)
(X_781  0.08921568840742111)
(X_782  0.08921568840742111)
(X_783  0.08921568840742111)
(Y_0 52.504791259765625)
(Y_1 -67.97234344482422)
(Y_2 0.40903007984161377)
(Y_3 13.453424453735352))