((X_0  0.17941176891326904)
(X_1  0.1715686321258545)
(X_2  0.05588235333561897)
(X_3  0.15196079015731812)
(X_4  0.16372549533843994)
(X_5  0.17941176891326904)
(X_6  0.09117648005485535)
(X_7  0.0990196168422699)
(X_8  0.1401960849761963)
(X_9  0.15980392694473267)
(X_10  0.19117647409439087)
(X_11  0.21470588445663452)
(X_12  0.19509804248809814)
(X_13  0.16764706373214722)
(X_14  0.18333333730697632)
(X_15  0.11862745881080627)
(X_16  0.1617647111415863)
(X_17  0.2598039209842682)
(X_18  0.28333333134651184)
(X_19  0.28333333134651184)
(X_20  0.3754902184009552)
(X_21  0.25)
(X_22  0.15196079015731812)
(X_23  0.10686275362968445)
(X_24  0.2186274528503418)
(X_25  0.19901961088180542)
(X_26  0.17941176891326904)
(X_27  0.16764706373214722)
(X_28  0.16764706373214722)
(X_29  0.17549020051956177)
(X_30  0.1872549057006836)
(X_31  0.19901961088180542)
(X_32  0.2029411792755127)
(X_33  0.19117647409439087)
(X_34  0.1715686321258545)
(X_35  0.1558823585510254)
(X_36  0.24607843160629272)
(X_37  0.19509804248809814)
(X_38  0.04019607976078987)
(X_39  0.02450980618596077)
(X_40  0.04803921654820442)
(X_41  0.11862745881080627)
(X_42  0.23235295712947845)
(X_43  0.32647058367729187)
(X_44  0.4009803831577301)
(X_45  0.5480391979217529)
(X_46  0.5872549414634705)
(X_47  0.479411780834198)
(X_48  0.4598039388656616)
(X_49  0.4637255072593689)
(X_50  0.4205882251262665)
(X_51  0.3343137204647064)
(X_52  0.30098041892051697)
(X_53  0.24607843160629272)
(X_54  0.1715686321258545)
(X_55  0.12843137979507446)
(X_56  0.2029411792755127)
(X_57  0.09509804844856262)
(X_58  0.07941177487373352)
(X_59  0.0676470622420311)
(X_60  0.0676470622420311)
(X_61  0.07156863063573837)
(X_62  0.0833333432674408)
(X_63  0.09117648005485535)
(X_64  0.17941176891326904)
(X_65  0.05980392172932625)
(X_66  0.06372549384832382)
(X_67  0.11078432202339172)
(X_68  0.18921568989753723)
(X_69  0.27941176295280457)
(X_70  0.3696078360080719)
(X_71  0.4362744987010956)
(X_72  0.4323529303073883)
(X_73  0.3970588147640228)
(X_74  0.45196080207824707)
(X_75  0.4637255072593689)
(X_76  0.5049019455909729)
(X_77  0.5598039627075195)
(X_78  0.6068627834320068)
(X_79  0.5088235139846802)
(X_80  0.5598039627075195)
(X_81  0.4735294282436371)
(X_82  0.3598039448261261)
(X_83  0.2774509787559509)
(X_84  0.15196079015731812)
(X_85  0.16372549533843994)
(X_86  0.17941176891326904)
(X_87  0.18333333730697632)
(X_88  0.17549020051956177)
(X_89  0.06372549384832382)
(X_90  0.0519607849419117)
(X_91  0.14411765336990356)
(X_92  0.05588235333561897)
(X_93  0.12254902720451355)
(X_94  0.23235295712947845)
(X_95  0.3382352888584137)
(X_96  0.49705883860588074)
(X_97  0.5088235139846802)
(X_98  0.49313727021217346)
(X_99  0.48137256503105164)
(X_100  0.4735294282436371)
(X_101  0.457843154668808)
(X_102  0.5558823943138123)
(X_103  0.6343137621879578)
(X_104  0.4637255072593689)
(X_105  0.39313724637031555)
(X_106  0.4009803831577301)
(X_107  0.40882351994514465)
(X_108  0.5029411911964417)
(X_109  0.4598039388656616)
(X_110  0.4009803831577301)
(X_111  0.46568629145622253)
(X_112  0.07549020648002625)
(X_113  0.0676470622420311)
(X_114  0.15980392694473267)
(X_115  0.15196079015731812)
(X_116  0.05980392172932625)
(X_117  0.09117648005485535)
(X_118  0.13823530077934265)
(X_119  0.16960784792900085)
(X_120  0.27156862616539)
(X_121  0.33039215207099915)
(X_122  0.4009803831577301)
(X_123  0.42843136191368103)
(X_124  0.40882351994514465)
(X_125  0.3735294044017792)
(X_126  0.34215685725212097)
(X_127  0.32647058367729187)
(X_128  0.49705883860588074)
(X_129  0.6029412150382996)
(X_130  0.6970588564872742)
(X_131  0.7715686559677124)
(X_132  0.7676470875740051)
(X_133  0.6147059202194214)
(X_134  0.46568629145622253)
(X_135  0.457843154668808)
(X_136  0.39313724637031555)
(X_137  0.4166666567325592)
(X_138  0.5362744927406311)
(X_139  0.5441176295280457)
(X_140  0.19117647409439087)
(X_141  0.20686274766921997)
(X_142  0.22647058963775635)
(X_143  0.25784313678741455)
(X_144  0.19705882668495178)
(X_145  0.26372548937797546)
(X_146  0.3343137204647064)
(X_147  0.4852941334247589)
(X_148  0.49313727021217346)
(X_149  0.5127450823783875)
(X_150  0.5049019455909729)
(X_151  0.457843154668808)
(X_152  0.4107843339443207)
(X_153  0.4068627655506134)
(X_154  0.43039217591285706)
(X_155  0.4539215862751007)
(X_156  0.4637255072593689)
(X_157  0.593137264251709)
(X_158  0.6578431725502014)
(X_159  0.5911765098571777)
(X_160  0.5656862854957581)
(X_161  0.5343137383460999)
(X_162  0.36176469922065735)
(X_163  0.3558823764324188)
(X_164  0.29901960492134094)
(X_165  0.3578431308269501)
(X_166  0.42843136191368103)
(X_167  0.5598039627075195)
(X_168  0.12647059559822083)
(X_169  0.30490198731422424)
(X_170  0.41862747073173523)
(X_171  0.5009803771972656)
(X_172  0.5284313559532166)
(X_173  0.5088235139846802)
(X_174  0.37745097279548645)
(X_175  0.3539215624332428)
(X_176  0.43431374430656433)
(X_177  0.43431374430656433)
(X_178  0.4107843339443207)
(X_179  0.2754901945590973)
(X_180  0.28333333134651184)
(X_181  0.3499999940395355)
(X_182  0.42450979351997375)
(X_183  0.47156864404678345)
(X_184  0.638235330581665)
(X_185  0.6460784673690796)
(X_186  0.5245097875595093)
(X_187  0.3754902184009552)
(X_188  0.4068627655506134)
(X_189  0.41274508833885193)
(X_190  0.3696078360080719)
(X_191  0.344117671251297)
(X_192  0.2617647051811218)
(X_193  0.33235296607017517)
(X_194  0.3186274468898773)
(X_195  0.385294109582901)
(X_196  0.40882351994514465)
(X_197  0.5127450823783875)
(X_198  0.5088235139846802)
(X_199  0.3813725411891937)
(X_200  0.34607842564582825)
(X_201  0.4225490391254425)
(X_202  0.3225490152835846)
(X_203  0.33039215207099915)
(X_204  0.3029411733150482)
(X_205  0.387254923582077)
(X_206  0.3558823764324188)
(X_207  0.3401961028575897)
(X_208  0.3029411733150482)
(X_209  0.42843136191368103)
(X_210  0.5460784435272217)
(X_211  0.6009804010391235)
(X_212  0.6303921937942505)
(X_213  0.5362744927406311)
(X_214  0.457843154668808)
(X_215  0.3558823764324188)
(X_216  0.28921568393707275)
(X_217  0.387254923582077)
(X_218  0.4539215862751007)
(X_219  0.3558823764324188)
(X_220  0.2539215683937073)
(X_221  0.18921568989753723)
(X_222  0.23235295712947845)
(X_223  0.3637255132198334)
(X_224  0.3343137204647064)
(X_225  0.31078431010246277)
(X_226  0.40294119715690613)
(X_227  0.41470590233802795)
(X_228  0.4225490391254425)
(X_229  0.4107843339443207)
(X_230  0.29901960492134094)
(X_231  0.29901960492134094)
(X_232  0.3637255132198334)
(X_233  0.3754902184009552)
(X_234  0.3225490152835846)
(X_235  0.31470587849617004)
(X_236  0.39313724637031555)
(X_237  0.5186274647712708)
(X_238  0.5068627595901489)
(X_239  0.4833333492279053)
(X_240  0.5460784435272217)
(X_241  0.3892156779766083)
(X_242  0.35196080803871155)
(X_243  0.3088235557079315)
(X_244  0.2813725471496582)
(X_245  0.25)
(X_246  0.30098041892051697)
(X_247  0.2911764681339264)
(X_248  0.15392157435417175)
(X_249  0.2656862735748291)
(X_250  0.15000000596046448)
(X_251  0.15000000596046448)
(X_252  0.3715686500072479)
(X_253  0.31078431010246277)
(X_254  0.32647058367729187)
(X_255  0.2911764681339264)
(X_256  0.3558823764324188)
(X_257  0.33627453446388245)
(X_258  0.3088235557079315)
(X_259  0.2774509787559509)
(X_260  0.18137255311012268)
(X_261  0.20098040997982025)
(X_262  0.31470587849617004)
(X_263  0.3813725411891937)
(X_264  0.4598039388656616)
(X_265  0.522549033164978)
(X_266  0.47156864404678345)
(X_267  0.46764707565307617)
(X_268  0.385294109582901)
(X_269  0.2598039209842682)
(X_270  0.2656862735748291)
(X_271  0.24607843160629272)
(X_272  0.22647058963775635)
(X_273  0.1872549057006836)
(X_274  0.21078431606292725)
(X_275  0.18137255311012268)
(X_276  0.13823530077934265)
(X_277  0.25)
(X_278  0.12254902720451355)
(X_279  0.0990196168422699)
(X_280  0.36764708161354065)
(X_281  0.4107843339443207)
(X_282  0.3911764919757843)
(X_283  0.1931372582912445)
(X_284  0.1303921639919281)
(X_285  0.25)
(X_286  0.2617647051811218)
(X_287  0.23823529481887817)
(X_288  0.1303921639919281)
(X_289  0.14215686917304993)
(X_290  0.26372548937797546)
(X_291  0.4382353127002716)
(X_292  0.3656862676143646)
(X_293  0.34215685725212097)
(X_294  0.2598039209842682)
(X_295  0.26764705777168274)
(X_296  0.23627452552318573)
(X_297  0.15392157435417175)
(X_298  0.10294118523597717)
(X_299  0.21470588445663452)
(X_300  0.2029411792755127)
(X_301  0.15980392694473267)
(X_302  0.1558823585510254)
(X_303  0.09509804844856262)
(X_304  0.09117648005485535)
(X_305  0.21470588445663452)
(X_306  0.09509804844856262)
(X_307  0.07156863063573837)
(X_308  0.31078431010246277)
(X_309  0.3029411733150482)
(X_310  0.2598039209842682)
(X_311  0.18921568989753723)
(X_312  0.16568627953529358)
(X_313  0.28921568393707275)
(X_314  0.3088235557079315)
(X_315  0.20098040997982025)
(X_316  0.3401961028575897)
(X_317  0.33627453446388245)
(X_318  0.39901962876319885)
(X_319  0.38333335518836975)
(X_320  0.24411766231060028)
(X_321  0.20490197837352753)
(X_322  0.12647059559822083)
(X_323  0.13431373238563538)
(X_324  0.16568627953529358)
(X_325  0.114705890417099)
(X_326  0.19117647409439087)
(X_327  0.20686274766921997)
(X_328  0.19901961088180542)
(X_329  0.16372549533843994)
(X_330  0.1558823585510254)
(X_331  0.17549020051956177)
(X_332  0.16960784792900085)
(X_333  0.3127451241016388)
(X_334  0.20490197837352753)
(X_335  0.18529412150382996)
(X_336  0.4009803831577301)
(X_337  0.44607844948768616)
(X_338  0.4225490391254425)
(X_339  0.46568629145622253)
(X_340  0.49705883860588074)
(X_341  0.47745099663734436)
(X_342  0.43431374430656433)
(X_343  0.31078431010246277)
(X_344  0.38333335518836975)
(X_345  0.3950980603694916)
(X_346  0.3186274468898773)
(X_347  0.21666668355464935)
(X_348  0.15392157435417175)
(X_349  0.15784314274787903)
(X_350  0.11078432202339172)
(X_351  0.20686274766921997)
(X_352  0.23039215803146362)
(X_353  0.19901961088180542)
(X_354  0.17549020051956177)
(X_355  0.17549020051956177)
(X_356  0.16764706373214722)
(X_357  0.15196079015731812)
(X_358  0.1558823585510254)
(X_359  0.1715686321258545)
(X_360  0.32058826088905334)
(X_361  0.3715686500072479)
(X_362  0.26764705777168274)
(X_363  0.23627452552318573)
(X_364  0.2872548997402191)
(X_365  0.19705882668495178)
(X_366  0.16568627953529358)
(X_367  0.33235296607017517)
(X_368  0.38333335518836975)
(X_369  0.3598039448261261)
(X_370  0.3245098292827606)
(X_371  0.2245098203420639)
(X_372  0.21666668355464935)
(X_373  0.24411766231060028)
(X_374  0.26764705777168274)
(X_375  0.15000000596046448)
(X_376  0.08725491166114807)
(X_377  0.114705890417099)
(X_378  0.07549020648002625)
(X_379  0.05980392172932625)
(X_380  0.20686274766921997)
(X_381  0.19117647409439087)
(X_382  0.16764706373214722)
(X_383  0.1558823585510254)
(X_384  0.14803922176361084)
(X_385  0.14803922176361084)
(X_386  0.1558823585510254)
(X_387  0.16764706373214722)
(X_388  0.24607843160629272)
(X_389  0.3088235557079315)
(X_390  0.21274511516094208)
(X_391  0.1774509847164154)
(X_392  0.3245098292827606)
(X_393  0.2696078419685364)
(X_394  0.13431373238563538)
(X_395  0.1460784375667572)
(X_396  0.2656862735748291)
(X_397  0.27352941036224365)
(X_398  0.28921568393707275)
(X_399  0.21666668355464935)
(X_400  0.1774509847164154)
(X_401  0.18137255311012268)
(X_402  0.2088235467672348)
(X_403  0.2343137264251709)
(X_404  0.1872549057006836)
(X_405  0.09509804844856262)
(X_406  0.05588235333561897)
(X_407  0.16764706373214722)
(X_408  0.16764706373214722)
(X_409  0.1715686321258545)
(X_410  0.16764706373214722)
(X_411  0.15196079015731812)
(X_412  0.14411765336990356)
(X_413  0.15196079015731812)
(X_414  0.1558823585510254)
(X_415  0.1558823585510254)
(X_416  0.19117647409439087)
(X_417  0.16960784792900085)
(X_418  0.18529412150382996)
(X_419  0.15392157435417175)
(X_420  0.14803922176361084)
(X_421  0.0833333432674408)
(X_422  0.10294118523597717)
(X_423  0.08725491166114807)
(X_424  0.07156863063573837)
(X_425  0.07941177487373352)
(X_426  0.0990196168422699)
(X_427  0.21078431606292725)
(X_428  0.19901961088180542)
(X_429  0.16764706373214722)
(X_430  0.10294118523597717)
(X_431  0.07941177487373352)
(X_432  0.05588235333561897)
(X_433  0.04803921654820442)
(X_434  0.020588237792253494)
(X_435  0.07549020648002625)
(X_436  0.12450980395078659)
(X_437  0.14411765336990356)
(X_438  0.15196079015731812)
(X_439  0.14411765336990356)
(X_440  0.1401960849761963)
(X_441  0.14803922176361084)
(X_442  0.04411764815449715)
(X_443  0.03235294297337532)
(X_444  0.04411764815449715)
(X_445  0.12254902720451355)
(X_446  0.13823530077934265)
(X_447  0.19901961088180542)
(X_448  0.16372549533843994)
(X_449  0.06372549384832382)
(X_450  0.05980392172932625)
(X_451  0.1558823585510254)
(X_452  0.15196079015731812)
(X_453  0.04803921654820442)
(X_454  0.04411764815449715)
(X_455  0.14411765336990356)
(X_456  0.15196079015731812)
(X_457  0.15196079015731812)
(X_458  0.14803922176361084)
(X_459  0.04411764815449715)
(X_460  0.04411764815449715)
(X_461  0.04803921654820442)
(X_462  0.04803921654820442)
(X_463  0.0519607849419117)
(X_464  0.0519607849419117)
(X_465  0.04411764815449715)
(X_466  0.036274511367082596)
(X_467  0.12843137979507446)
(X_468  0.12843137979507446)
(X_469  0.13235294818878174)
(X_470  0.1401960849761963)
(X_471  0.14411765336990356)
(X_472  0.14803922176361084)
(X_473  0.15980392694473267)
(X_474  0.17549020051956177)
(X_475  0.17941176891326904)
(X_476  0.04411764815449715)
(X_477  0.14803922176361084)
(X_478  0.15196079015731812)
(X_479  0.1558823585510254)
(X_480  0.06372549384832382)
(X_481  0.0676470622420311)
(X_482  0.07156863063573837)
(X_483  0.17549020051956177)
(X_484  0.15196079015731812)
(X_485  0.15196079015731812)
(X_486  0.14803922176361084)
(X_487  0.04411764815449715)
(X_488  0.04019607976078987)
(X_489  0.04019607976078987)
(X_490  0.04411764815449715)
(X_491  0.04411764815449715)
(X_492  0.04019607976078987)
(X_493  0.036274511367082596)
(X_494  0.13235294818878174)
(X_495  0.12843137979507446)
(X_496  0.12843137979507446)
(X_497  0.136274516582489)
(X_498  0.14411765336990356)
(X_499  0.04803921654820442)
(X_500  0.13235294818878174)
(X_501  0.04411764815449715)
(X_502  0.05588235333561897)
(X_503  0.06372549384832382)
(X_504  0.028431374579668045)
(X_505  0.028431374579668045)
(X_506  0.028431374579668045)
(X_507  0.028431374579668045)
(X_508  0.02450980618596077)
(X_509  0.02450980618596077)
(X_510  0.12450980395078659)
(X_511  0.12058823555707932)
(X_512  0.036274511367082596)
(X_513  0.136274516582489)
(X_514  0.13235294818878174)
(X_515  0.02450980618596077)
(X_516  0.02450980618596077)
(X_517  0.02450980618596077)
(X_518  0.02450980618596077)
(X_519  0.02450980618596077)
(X_520  0.036274511367082596)
(X_521  0.03235294297337532)
(X_522  0.028431374579668045)
(X_523  0.02450980618596077)
(X_524  0.02450980618596077)
(X_525  0.12843137979507446)
(X_526  0.13235294818878174)
(X_527  0.136274516582489)
(X_528  0.11666666716337204)
(X_529  0.02450980618596077)
(X_530  0.036274511367082596)
(X_531  0.04411764815449715)
(X_532  0.14411765336990356)
(X_533  0.14411765336990356)
(X_534  0.1401960849761963)
(X_535  0.136274516582489)
(X_536  0.03235294297337532)
(X_537  0.03235294297337532)
(X_538  0.028431374579668045)
(X_539  0.12843137979507446)
(X_540  0.03235294297337532)
(X_541  0.12843137979507446)
(X_542  0.12843137979507446)
(X_543  0.12450980395078659)
(X_544  0.02450980618596077)
(X_545  0.02450980618596077)
(X_546  0.028431374579668045)
(X_547  0.028431374579668045)
(X_548  0.14411765336990356)
(X_549  0.1401960849761963)
(X_550  0.13235294818878174)
(X_551  0.12450980395078659)
(X_552  0.12058823555707932)
(X_553  0.12058823555707932)
(X_554  0.020588237792253494)
(X_555  0.020588237792253494)
(X_556  0.11666666716337204)
(X_557  0.028431374579668045)
(X_558  0.136274516582489)
(X_559  0.1401960849761963)
(X_560  0.09313725680112839)
(X_561  -0.0029411755967885256)
(X_562  0.004901961423456669)
(X_563  0.012745101936161518)
(X_564  0.020588237792253494)
(X_565  0.028431374579668045)
(X_566  0.03235294297337532)
(X_567  0.036274511367082596)
(X_568  0.1401960849761963)
(X_569  0.136274516582489)
(X_570  0.136274516582489)
(X_571  0.13235294818878174)
(X_572  0.03235294297337532)
(X_573  0.036274511367082596)
(X_574  0.04019607976078987)
(X_575  0.04019607976078987)
(X_576  0.036274511367082596)
(X_577  0.03235294297337532)
(X_578  0.12843137979507446)
(X_579  0.12450980395078659)
(X_580  0.12450980395078659)
(X_581  0.020588237792253494)
(X_582  0.12058823555707932)
(X_583  0.12058823555707932)
(X_584  0.12843137979507446)
(X_585  0.036274511367082596)
(X_586  0.04411764815449715)
(X_587  0.14411765336990356)
(X_588  0.13235294818878174)
(X_589  0.03235294297337532)
(X_590  0.12843137979507446)
(X_591  0.12843137979507446)
(X_592  0.02450980618596077)
(X_593  0.02450980618596077)
(X_594  0.020588237792253494)
(X_595  0.12058823555707932)
(X_596  0.12843137979507446)
(X_597  0.12843137979507446)
(X_598  0.12058823555707932)
(X_599  0.11666666716337204)
(X_600  0.012745101936161518)
(X_601  0.012745101936161518)
(X_602  0.012745101936161518)
(X_603  0.012745101936161518)
(X_604  0.10490196198225021)
(X_605  0.10490196198225021)
(X_606  0.10882353037595749)
(X_607  0.10882353037595749)
(X_608  0.10882353037595749)
(X_609  0.11274509876966476)
(X_610  0.11274509876966476)
(X_611  0.11274509876966476)
(X_612  0.012745101936161518)
(X_613  0.01666666939854622)
(X_614  0.02450980618596077)
(X_615  0.12058823555707932)
(X_616  0.36764708161354065)
(X_617  0.2598039209842682)
(X_618  0.24411766231060028)
(X_619  0.2245098203420639)
(X_620  0.20490197837352753)
(X_621  0.2813725471496582)
(X_622  0.2696078419685364)
(X_623  0.25784313678741455)
(X_624  0.22647058963775635)
(X_625  0.2186274528503418)
(X_626  0.20686274766921997)
(X_627  0.19509804248809814)
(X_628  0.0833333432674408)
(X_629  0.07156863063573837)
(X_630  0.0676470622420311)
(X_631  0.16372549533843994)
(X_632  0.15980392694473267)
(X_633  0.05588235333561897)
(X_634  0.05588235333561897)
(X_635  0.0519607849419117)
(X_636  0.04803921654820442)
(X_637  0.04411764815449715)
(X_638  0.1401960849761963)
(X_639  0.036274511367082596)
(X_640  0.036274511367082596)
(X_641  0.04019607976078987)
(X_642  0.1401960849761963)
(X_643  0.136274516582489)
(X_644  0.9460784196853638)
(X_645  0.9382352828979492)
(X_646  1.022549033164978)
(X_647  1.0029411315917969)
(X_648  0.9833333492279053)
(X_649  0.863725483417511)
(X_650  0.9519608020782471)
(X_651  0.9441176652908325)
(X_652  0.9284313917160034)
(X_653  0.9205882549285889)
(X_654  0.9049019813537598)
(X_655  0.7852941155433655)
(X_656  0.7656862735748291)
(X_657  0.75)
(X_658  0.7382352948188782)
(X_659  0.7303921580314636)
(X_660  0.8068627715110779)
(X_661  0.8029412031173706)
(X_662  0.7911764979362488)
(X_663  0.779411792755127)
(X_664  0.6637254953384399)
(X_665  0.7480392456054688)
(X_666  0.7323529720306396)
(X_667  0.6245098114013672)
(X_668  0.7362745404243469)
(X_669  0.7401961088180542)
(X_670  0.7401961088180542)
(X_671  0.636274516582489)
(X_672  1.0499999523162842)
(X_673  0.949999988079071)
(X_674  0.949999988079071)
(X_675  0.949999988079071)
(X_676  0.949999988079071)
(X_677  1.0499999523162842)
(X_678  1.0499999523162842)
(X_679  0.949999988079071)
(X_680  1.0499999523162842)
(X_681  1.0499999523162842)
(X_682  1.0499999523162842)
(X_683  1.0499999523162842)
(X_684  1.0499999523162842)
(X_685  1.0499999523162842)
(X_686  0.949999988079071)
(X_687  0.949999988079071)
(X_688  1.0499999523162842)
(X_689  0.949999988079071)
(X_690  0.949999988079071)
(X_691  0.949999988079071)
(X_692  1.0499999523162842)
(X_693  1.0499999523162842)
(X_694  0.949999988079071)
(X_695  0.949999988079071)
(X_696  1.0499999523162842)
(X_697  1.0499999523162842)
(X_698  1.0499999523162842)
(X_699  1.0499999523162842)
(X_700  1.0499999523162842)
(X_701  0.949999988079071)
(X_702  1.0499999523162842)
(X_703  1.0499999523162842)
(X_704  1.0499999523162842)
(X_705  1.0499999523162842)
(X_706  0.949999988079071)
(X_707  0.949999988079071)
(X_708  0.949999988079071)
(X_709  0.949999988079071)
(X_710  0.949999988079071)
(X_711  1.0499999523162842)
(X_712  1.0499999523162842)
(X_713  0.949999988079071)
(X_714  0.949999988079071)
(X_715  0.949999988079071)
(X_716  1.0499999523162842)
(X_717  1.0499999523162842)
(X_718  0.949999988079071)
(X_719  0.949999988079071)
(X_720  0.949999988079071)
(X_721  0.949999988079071)
(X_722  0.949999988079071)
(X_723  1.0499999523162842)
(X_724  1.0499999523162842)
(X_725  1.0499999523162842)
(X_726  1.0499999523162842)
(X_727  1.0499999523162842)
(X_728  1.0499999523162842)
(X_729  1.0499999523162842)
(X_730  1.0499999523162842)
(X_731  1.0499999523162842)
(X_732  1.0499999523162842)
(X_733  0.949999988079071)
(X_734  0.949999988079071)
(X_735  1.0499999523162842)
(X_736  1.0499999523162842)
(X_737  1.0499999523162842)
(X_738  0.949999988079071)
(X_739  0.949999988079071)
(X_740  0.949999988079071)
(X_741  0.949999988079071)
(X_742  0.949999988079071)
(X_743  0.949999988079071)
(X_744  0.949999988079071)
(X_745  0.949999988079071)
(X_746  1.0499999523162842)
(X_747  0.949999988079071)
(X_748  0.949999988079071)
(X_749  0.949999988079071)
(X_750  0.949999988079071)
(X_751  0.949999988079071)
(X_752  1.0499999523162842)
(X_753  1.0499999523162842)
(X_754  1.0499999523162842)
(X_755  1.0499999523162842)
(X_756  1.0499999523162842)
(X_757  0.949999988079071)
(X_758  1.0499999523162842)
(X_759  1.0499999523162842)
(X_760  0.949999988079071)
(X_761  1.0499999523162842)
(X_762  1.0499999523162842)
(X_763  1.0499999523162842)
(X_764  0.949999988079071)
(X_765  1.0499999523162842)
(X_766  0.949999988079071)
(X_767  0.949999988079071)
(X_768  0.949999988079071)
(X_769  0.949999988079071)
(X_770  0.949999988079071)
(X_771  0.949999988079071)
(X_772  0.949999988079071)
(X_773  0.949999988079071)
(X_774  0.949999988079071)
(X_775  0.949999988079071)
(X_776  1.0499999523162842)
(X_777  1.0499999523162842)
(X_778  0.949999988079071)
(X_779  0.949999988079071)
(X_780  0.949999988079071)
(X_781  0.949999988079071)
(X_782  0.949999988079071)
(X_783  1.0499999523162842)
(Y_0 -10.56969165802002)
(Y_1 17.16904640197754)
(Y_2 -9.903298377990723)
(Y_3 5.171041011810303))