((X_0  0.5872549414634705)
(X_1  0.5343137383460999)
(X_2  0.6049019694328308)
(X_3  0.679411768913269)
(X_4  0.7460784316062927)
(X_5  0.908823549747467)
(X_6  0.9637255072593689)
(X_7  0.8990195989608765)
(X_8  1.0147058963775635)
(X_9  1.0421568155288696)
(X_10  1.0499999523162842)
(X_11  1.0499999523162842)
(X_12  0.949999988079071)
(X_13  1.0421568155288696)
(X_14  1.034313678741455)
(X_15  0.9382352828979492)
(X_16  0.9343137145042419)
(X_17  0.949999988079071)
(X_18  0.949999988079071)
(X_19  0.949999988079071)
(X_20  1.0499999523162842)
(X_21  1.0460784435272217)
(X_22  1.0460784435272217)
(X_23  1.0499999523162842)
(X_24  1.034313678741455)
(X_25  1.0382353067398071)
(X_26  0.9421568512916565)
(X_27  1.0421568155288696)
(X_28  0.14411765336990356)
(X_29  0.16372549533843994)
(X_30  0.09117648005485535)
(X_31  0.11862745881080627)
(X_32  0.1460784375667572)
(X_33  0.1774509847164154)
(X_34  0.20490197837352753)
(X_35  0.32058826088905334)
(X_36  0.29509803652763367)
(X_37  0.34215685725212097)
(X_38  0.4166666567325592)
(X_39  0.4990196228027344)
(X_40  0.5813725590705872)
(X_41  0.7676470875740051)
(X_42  0.8539215922355652)
(X_43  0.8088235259056091)
(X_44  0.9401960968971252)
(X_45  0.9558823704719543)
(X_46  0.9754902124404907)
(X_47  0.8872548937797546)
(X_48  1.0029411315917969)
(X_49  0.9186274409294128)
(X_50  0.9421568512916565)
(X_51  0.949999988079071)
(X_52  1.0421568155288696)
(X_53  0.949999988079071)
(X_54  0.949999988079071)
(X_55  1.0499999523162842)
(X_56  0.18333333730697632)
(X_57  0.07156863063573837)
(X_58  0.05980392172932625)
(X_59  0.05980392172932625)
(X_60  0.06372549384832382)
(X_61  0.07156863063573837)
(X_62  0.07549020648002625)
(X_63  0.07941177487373352)
(X_64  0.10294118523597717)
(X_65  0.10686275362968445)
(X_66  0.0990196168422699)
(X_67  0.0833333432674408)
(X_68  0.16372549533843994)
(X_69  0.0676470622420311)
(X_70  0.0833333432674408)
(X_71  0.10294118523597717)
(X_72  0.16960784792900085)
(X_73  0.20490197837352753)
(X_74  0.2598039209842682)
(X_75  0.33039215207099915)
(X_76  0.5088235139846802)
(X_77  0.5911765098571777)
(X_78  0.6617647409439087)
(X_79  0.708823561668396)
(X_80  0.8147059082984924)
(X_81  0.7382352948188782)
(X_82  0.7735294103622437)
(X_83  0.9009804129600525)
(X_84  0.15196079015731812)
(X_85  0.136274516582489)
(X_86  0.02450980618596077)
(X_87  0.12450980395078659)
(X_88  0.136274516582489)
(X_89  0.04803921654820442)
(X_90  0.04803921654820442)
(X_91  0.04019607976078987)
(X_92  0.10490196198225021)
(X_93  0.020588237792253494)
(X_94  0.036274511367082596)
(X_95  0.04803921654820442)
(X_96  0.14803922176361084)
(X_97  0.15196079015731812)
(X_98  0.15980392694473267)
(X_99  0.16764706373214722)
(X_100  0.15980392694473267)
(X_101  0.15980392694473267)
(X_102  0.1558823585510254)
(X_103  0.14803922176361084)
(X_104  0.04803921654820442)
(X_105  0.04803921654820442)
(X_106  0.05588235333561897)
(X_107  0.05980392172932625)
(X_108  0.07941177487373352)
(X_109  0.10294118523597717)
(X_110  0.13823530077934265)
(X_111  0.2656862735748291)
(X_112  0.04019607976078987)
(X_113  0.13235294818878174)
(X_114  0.02450980618596077)
(X_115  0.136274516582489)
(X_116  0.0519607849419117)
(X_117  0.05980392172932625)
(X_118  0.0519607849419117)
(X_119  0.04411764815449715)
(X_120  0.04019607976078987)
(X_121  0.04803921654820442)
(X_122  0.05980392172932625)
(X_123  0.05980392172932625)
(X_124  0.1558823585510254)
(X_125  0.04411764815449715)
(X_126  0.036274511367082596)
(X_127  0.03235294297337532)
(X_128  0.15196079015731812)
(X_129  0.1558823585510254)
(X_130  0.16372549533843994)
(X_131  0.17549020051956177)
(X_132  0.18333333730697632)
(X_133  0.19117647409439087)
(X_134  0.1872549057006836)
(X_135  0.1872549057006836)
(X_136  0.16372549533843994)
(X_137  0.07549020648002625)
(X_138  0.18333333730697632)
(X_139  0.18333333730697632)
(X_140  0.1558823585510254)
(X_141  0.14803922176361084)
(X_142  0.14411765336990356)
(X_143  0.14411765336990356)
(X_144  0.14411765336990356)
(X_145  0.04019607976078987)
(X_146  0.03235294297337532)
(X_147  0.12450980395078659)
(X_148  0.136274516582489)
(X_149  0.136274516582489)
(X_150  0.036274511367082596)
(X_151  0.036274511367082596)
(X_152  0.1401960849761963)
(X_153  0.1401960849761963)
(X_154  0.14411765336990356)
(X_155  0.14411765336990356)
(X_156  0.028431374579668045)
(X_157  0.12843137979507446)
(X_158  0.136274516582489)
(X_159  0.14411765336990356)
(X_160  0.15196079015731812)
(X_161  0.14803922176361084)
(X_162  0.136274516582489)
(X_163  0.12843137979507446)
(X_164  0.15196079015731812)
(X_165  0.05588235333561897)
(X_166  0.0519607849419117)
(X_167  0.14411765336990356)
(X_168  0.14411765336990356)
(X_169  0.14411765336990356)
(X_170  0.04411764815449715)
(X_171  0.136274516582489)
(X_172  0.13235294818878174)
(X_173  0.03235294297337532)
(X_174  0.04019607976078987)
(X_175  0.04803921654820442)
(X_176  0.028431374579668045)
(X_177  0.03235294297337532)
(X_178  0.04019607976078987)
(X_179  0.04803921654820442)
(X_180  0.14803922176361084)
(X_181  0.1401960849761963)
(X_182  0.028431374579668045)
(X_183  0.01666666939854622)
(X_184  0.13235294818878174)
(X_185  0.12450980395078659)
(X_186  0.12058823555707932)
(X_187  0.12843137979507446)
(X_188  0.14411765336990356)
(X_189  0.04803921654820442)
(X_190  0.04411764815449715)
(X_191  0.136274516582489)
(X_192  0.12450980395078659)
(X_193  0.13235294818878174)
(X_194  0.036274511367082596)
(X_195  0.036274511367082596)
(X_196  0.036274511367082596)
(X_197  0.1401960849761963)
(X_198  0.14803922176361084)
(X_199  0.04803921654820442)
(X_200  0.0519607849419117)
(X_201  0.07156863063573837)
(X_202  0.20686274766921997)
(X_203  0.2343137264251709)
(X_204  0.21666668355464935)
(X_205  0.23627452552318573)
(X_206  0.26764705777168274)
(X_207  0.2872548997402191)
(X_208  0.28333333134651184)
(X_209  0.24803923070430756)
(X_210  0.19705882668495178)
(X_211  0.1617647111415863)
(X_212  0.20686274766921997)
(X_213  0.1872549057006836)
(X_214  0.06372549384832382)
(X_215  0.15196079015731812)
(X_216  0.14803922176361084)
(X_217  0.14411765336990356)
(X_218  0.13235294818878174)
(X_219  0.12058823555707932)
(X_220  0.1558823585510254)
(X_221  0.15980392694473267)
(X_222  0.06372549384832382)
(X_223  0.15980392694473267)
(X_224  0.17352941632270813)
(X_225  0.21274511516094208)
(X_226  0.240196093916893)
(X_227  0.33627453446388245)
(X_228  0.23627452552318573)
(X_229  0.27156862616539)
(X_230  0.29901960492134094)
(X_231  0.31078431010246277)
(X_232  0.4421568810939789)
(X_233  0.4107843339443207)
(X_234  0.3911764919757843)
(X_235  0.387254923582077)
(X_236  0.387254923582077)
(X_237  0.2872548997402191)
(X_238  0.4107843339443207)
(X_239  0.4382353127002716)
(X_240  0.31470587849617004)
(X_241  0.40294119715690613)
(X_242  0.3401961028575897)
(X_243  0.24215686321258545)
(X_244  0.16372549533843994)
(X_245  0.1401960849761963)
(X_246  0.12843137979507446)
(X_247  0.11666666716337204)
(X_248  0.028431374579668045)
(X_249  0.028431374579668045)
(X_250  0.03235294297337532)
(X_251  0.136274516582489)
(X_252  0.29509803652763367)
(X_253  0.31470587849617004)
(X_254  0.3186274468898773)
(X_255  0.40294119715690613)
(X_256  0.3950980603694916)
(X_257  0.39901962876319885)
(X_258  0.38333335518836975)
(X_259  0.3598039448261261)
(X_260  0.2245098203420639)
(X_261  0.2088235467672348)
(X_262  0.19705882668495178)
(X_263  0.3088235557079315)
(X_264  0.3401961028575897)
(X_265  0.3637255132198334)
(X_266  0.3598039448261261)
(X_267  0.3480392396450043)
(X_268  0.28333333134651184)
(X_269  0.4264706075191498)
(X_270  0.457843154668808)
(X_271  0.3499999940395355)
(X_272  0.3186274468898773)
(X_273  0.2754901945590973)
(X_274  0.21274511516094208)
(X_275  0.25784313678741455)
(X_276  0.1715686321258545)
(X_277  0.0676470622420311)
(X_278  0.0676470622420311)
(X_279  0.05980392172932625)
(X_280  0.33627453446388245)
(X_281  0.3401961028575897)
(X_282  0.240196093916893)
(X_283  0.240196093916893)
(X_284  0.24803923070430756)
(X_285  0.344117671251297)
(X_286  0.3088235557079315)
(X_287  0.2656862735748291)
(X_288  0.16960784792900085)
(X_289  0.18529412150382996)
(X_290  0.18137255311012268)
(X_291  0.15784314274787903)
(X_292  0.16960784792900085)
(X_293  0.2088235467672348)
(X_294  0.2245098203420639)
(X_295  0.21274511516094208)
(X_296  0.3127451241016388)
(X_297  0.24803923070430756)
(X_298  0.2911764681339264)
(X_299  0.3186274468898773)
(X_300  0.4382353127002716)
(X_301  0.43431374430656433)
(X_302  0.40294119715690613)
(X_303  0.26764705777168274)
(X_304  0.3029411733150482)
(X_305  0.3068627417087555)
(X_306  0.31470587849617004)
(X_307  0.3186274468898773)
(X_308  0.40294119715690613)
(X_309  0.39901962876319885)
(X_310  0.29509803652763367)
(X_311  0.2911764681339264)
(X_312  0.2872548997402191)
(X_313  0.26764705777168274)
(X_314  0.23235295712947845)
(X_315  0.19705882668495178)
(X_316  0.24215686321258545)
(X_317  0.33627453446388245)
(X_318  0.3950980603694916)
(X_319  0.3715686500072479)
(X_320  0.24411766231060028)
(X_321  0.2598039209842682)
(X_322  0.2754901945590973)
(X_323  0.2598039209842682)
(X_324  0.240196093916893)
(X_325  0.23627452552318573)
(X_326  0.23235295712947845)
(X_327  0.24803923070430756)
(X_328  0.387254923582077)
(X_329  0.43039217591285706)
(X_330  0.4539215862751007)
(X_331  0.457843154668808)
(X_332  0.29901960492134094)
(X_333  0.3068627417087555)
(X_334  0.3186274468898773)
(X_335  0.3343137204647064)
(X_336  0.20490197837352753)
(X_337  0.3088235557079315)
(X_338  0.32058826088905334)
(X_339  0.33235296607017517)
(X_340  0.33627453446388245)
(X_341  0.33235296607017517)
(X_342  0.23235295712947845)
(X_343  0.23627452552318573)
(X_344  0.33627453446388245)
(X_345  0.45000001788139343)
(X_346  0.4480392038822174)
(X_347  0.4754902124404907)
(X_348  0.479411780834198)
(X_349  0.479411780834198)
(X_350  0.42843136191368103)
(X_351  0.46176472306251526)
(X_352  0.33627453446388245)
(X_353  0.3245098292827606)
(X_354  0.3245098292827606)
(X_355  0.25196078419685364)
(X_356  0.2872548997402191)
(X_357  0.41470590233802795)
(X_358  0.43039217591285706)
(X_359  0.4382353127002716)
(X_360  0.29509803652763367)
(X_361  0.29901960492134094)
(X_362  0.3029411733150482)
(X_363  0.3068627417087555)
(X_364  0.4049019515514374)
(X_365  0.3813725411891937)
(X_366  0.3499999940395355)
(X_367  0.41862747073173523)
(X_368  0.3715686500072479)
(X_369  0.2245098203420639)
(X_370  0.20490197837352753)
(X_371  0.20490197837352753)
(X_372  0.3029411733150482)
(X_373  0.3029411733150482)
(X_374  0.39901962876319885)
(X_375  0.41470590233802795)
(X_376  0.46176472306251526)
(X_377  0.39313724637031555)
(X_378  0.3382352888584137)
(X_379  0.2598039209842682)
(X_380  0.20098040997982025)
(X_381  0.2852941155433655)
(X_382  0.2813725471496582)
(X_383  0.30098041892051697)
(X_384  0.22058825194835663)
(X_385  0.23235295712947845)
(X_386  0.25196078419685364)
(X_387  0.26764705777168274)
(X_388  0.344117671251297)
(X_389  0.344117671251297)
(X_390  0.344117671251297)
(X_391  0.24411766231060028)
(X_392  0.344117671251297)
(X_393  0.3245098292827606)
(X_394  0.33235296607017517)
(X_395  0.3754902184009552)
(X_396  0.41470590233802795)
(X_397  0.43039217591285706)
(X_398  0.4421568810939789)
(X_399  0.457843154668808)
(X_400  0.47745099663734436)
(X_401  0.40294119715690613)
(X_402  0.32058826088905334)
(X_403  0.2970588207244873)
(X_404  0.3401961028575897)
(X_405  0.2872548997402191)
(X_406  0.29901960492134094)
(X_407  0.2872548997402191)
(X_408  0.2558823525905609)
(X_409  0.240196093916893)
(X_410  0.33627453446388245)
(X_411  0.344117671251297)
(X_412  0.3401961028575897)
(X_413  0.33627453446388245)
(X_414  0.3558823764324188)
(X_415  0.387254923582077)
(X_416  0.44019606709480286)
(X_417  0.5362744927406311)
(X_418  0.4323529303073883)
(X_419  0.42450979351997375)
(X_420  0.23627452552318573)
(X_421  0.1931372582912445)
(X_422  0.1774509847164154)
(X_423  0.21666668355464935)
(X_424  0.25196078419685364)
(X_425  0.25196078419685364)
(X_426  0.33627453446388245)
(X_427  0.3245098292827606)
(X_428  0.27352941036224365)
(X_429  0.24607843160629272)
(X_430  0.12254902720451355)
(X_431  0.12254902720451355)
(X_432  0.12647059559822083)
(X_433  0.25)
(X_434  0.19705882668495178)
(X_435  0.24803923070430756)
(X_436  0.27941176295280457)
(X_437  0.3911764919757843)
(X_438  0.4264706075191498)
(X_439  0.4539215862751007)
(X_440  0.43431374430656433)
(X_441  0.387254923582077)
(X_442  0.26372548937797546)
(X_443  0.27156862616539)
(X_444  0.29509803652763367)
(X_445  0.28333333134651184)
(X_446  0.2598039209842682)
(X_447  0.33235296607017517)
(X_448  0.2656862735748291)
(X_449  0.2696078419685364)
(X_450  0.17352941632270813)
(X_451  0.28921568393707275)
(X_452  0.22058825194835663)
(X_453  0.23627452552318573)
(X_454  0.30490198731422424)
(X_455  0.25784313678741455)
(X_456  0.20686274766921997)
(X_457  0.17941176891326904)
(X_458  0.16372549533843994)
(X_459  0.15980392694473267)
(X_460  0.15980392694473267)
(X_461  0.16372549533843994)
(X_462  0.17941176891326904)
(X_463  0.10686275362968445)
(X_464  0.1460784375667572)
(X_465  0.21274511516094208)
(X_466  0.26764705777168274)
(X_467  0.36764708161354065)
(X_468  0.3245098292827606)
(X_469  0.2852941155433655)
(X_470  0.2539215683937073)
(X_471  0.2343137264251709)
(X_472  0.2656862735748291)
(X_473  0.25784313678741455)
(X_474  0.23823529481887817)
(X_475  0.22254902124404907)
(X_476  0.10686275362968445)
(X_477  0.12254902720451355)
(X_478  0.23039215803146362)
(X_479  0.22647058963775635)
(X_480  0.13431373238563538)
(X_481  0.1460784375667572)
(X_482  0.1460784375667572)
(X_483  0.1303921639919281)
(X_484  0.2029411792755127)
(X_485  0.17941176891326904)
(X_486  0.05980392172932625)
(X_487  0.05980392172932625)
(X_488  0.05980392172932625)
(X_489  0.05980392172932625)
(X_490  0.07941177487373352)
(X_491  0.10294118523597717)
(X_492  0.1460784375667572)
(X_493  0.1931372582912445)
(X_494  0.22843138873577118)
(X_495  0.32058826088905334)
(X_496  0.29313725233078003)
(X_497  0.2696078419685364)
(X_498  0.2539215683937073)
(X_499  0.23823529481887817)
(X_500  0.24607843160629272)
(X_501  0.13823530077934265)
(X_502  0.12647059559822083)
(X_503  0.114705890417099)
(X_504  0.04411764815449715)
(X_505  0.1715686321258545)
(X_506  0.18333333730697632)
(X_507  0.15980392694473267)
(X_508  0.14411765336990356)
(X_509  0.05588235333561897)
(X_510  0.18333333730697632)
(X_511  0.09509804844856262)
(X_512  0.07941177487373352)
(X_513  0.05980392172932625)
(X_514  0.04411764815449715)
(X_515  0.04803921654820442)
(X_516  0.04803921654820442)
(X_517  0.04411764815449715)
(X_518  0.05980392172932625)
(X_519  0.07941177487373352)
(X_520  0.12254902720451355)
(X_521  0.14215686917304993)
(X_522  0.15392157435417175)
(X_523  0.14215686917304993)
(X_524  0.13431373238563538)
(X_525  0.2343137264251709)
(X_526  0.2343137264251709)
(X_527  0.22254902124404907)
(X_528  0.11078432202339172)
(X_529  0.10686275362968445)
(X_530  0.0990196168422699)
(X_531  0.09509804844856262)
(X_532  0.12058823555707932)
(X_533  0.14803922176361084)
(X_534  0.1558823585510254)
(X_535  0.12843137979507446)
(X_536  0.11274509876966476)
(X_537  0.02450980618596077)
(X_538  0.04803921654820442)
(X_539  0.06372549384832382)
(X_540  0.04803921654820442)
(X_541  0.028431374579668045)
(X_542  0.12058823555707932)
(X_543  0.02450980618596077)
(X_544  0.02450980618596077)
(X_545  0.020588237792253494)
(X_546  0.028431374579668045)
(X_547  0.04803921654820442)
(X_548  0.1715686321258545)
(X_549  0.17941176891326904)
(X_550  0.07549020648002625)
(X_551  0.0676470622420311)
(X_552  0.17549020051956177)
(X_553  0.19117647409439087)
(X_554  0.19117647409439087)
(X_555  0.07941177487373352)
(X_556  0.17941176891326904)
(X_557  0.17549020051956177)
(X_558  0.1715686321258545)
(X_559  0.16764706373214722)
(X_560  0.12058823555707932)
(X_561  0.03235294297337532)
(X_562  0.036274511367082596)
(X_563  0.020588237792253494)
(X_564  0.020588237792253494)
(X_565  0.03235294297337532)
(X_566  0.036274511367082596)
(X_567  0.028431374579668045)
(X_568  0.028431374579668045)
(X_569  0.012745101936161518)
(X_570  0.004901961423456669)
(X_571  0.012745101936161518)
(X_572  0.012745101936161518)
(X_573  0.004901961423456669)
(X_574  0.012745101936161518)
(X_575  0.028431374579668045)
(X_576  0.028431374579668045)
(X_577  0.036274511367082596)
(X_578  0.036274511367082596)
(X_579  0.13235294818878174)
(X_580  0.14411765336990356)
(X_581  0.05980392172932625)
(X_582  0.1558823585510254)
(X_583  0.1401960849761963)
(X_584  0.0519607849419117)
(X_585  0.04803921654820442)
(X_586  0.04411764815449715)
(X_587  0.04411764815449715)
(X_588  0.12058823555707932)
(X_589  0.020588237792253494)
(X_590  0.01666666939854622)
(X_591  0.008823529817163944)
(X_592  0.020588237792253494)
(X_593  0.13235294818878174)
(X_594  0.12058823555707932)
(X_595  0.09705882519483566)
(X_596  0.12450980395078659)
(X_597  0.012745101936161518)
(X_598  0.008823529817163944)
(X_599  0.020588237792253494)
(X_600  0.020588237792253494)
(X_601  0.008823529817163944)
(X_602  0.012745101936161518)
(X_603  0.02450980618596077)
(X_604  0.11274509876966476)
(X_605  0.12450980395078659)
(X_606  0.12843137979507446)
(X_607  0.12450980395078659)
(X_608  0.13235294818878174)
(X_609  0.14803922176361084)
(X_610  0.1401960849761963)
(X_611  0.12058823555707932)
(X_612  0.028431374579668045)
(X_613  0.028431374579668045)
(X_614  0.12843137979507446)
(X_615  0.12450980395078659)
(X_616  0.11274509876966476)
(X_617  0.11666666716337204)
(X_618  0.10882353037595749)
(X_619  -0.0029411755967885256)
(X_620  0.10490196198225021)
(X_621  0.11666666716337204)
(X_622  0.10882353037595749)
(X_623  -0.010784312151372433)
(X_624  0.11666666716337204)
(X_625  0.10882353037595749)
(X_626  0.10882353037595749)
(X_627  0.020588237792253494)
(X_628  0.020588237792253494)
(X_629  0.008823529817163944)
(X_630  0.008823529817163944)
(X_631  0.01666666939854622)
(X_632  0.10882353037595749)
(X_633  0.12450980395078659)
(X_634  0.13235294818878174)
(X_635  0.12058823555707932)
(X_636  0.12058823555707932)
(X_637  0.12843137979507446)
(X_638  0.12450980395078659)
(X_639  0.11274509876966476)
(X_640  0.11274509876966476)
(X_641  0.11274509876966476)
(X_642  0.11666666716337204)
(X_643  0.11666666716337204)
(X_644  0.10882353037595749)
(X_645  0.11666666716337204)
(X_646  0.10882353037595749)
(X_647  0.08921568840742111)
(X_648  0.08529412001371384)
(X_649  0.10098039358854294)
(X_650  0.10490196198225021)
(X_651  0.09705882519483566)
(X_652  0.008823529817163944)
(X_653  -0.0029411755967885256)
(X_654  0.0009803927969187498)
(X_655  0.012745101936161518)
(X_656  0.012745101936161518)
(X_657  0.0009803927969187498)
(X_658  -0.0029411755967885256)
(X_659  0.008823529817163944)
(X_660  0.10490196198225021)
(X_661  0.12450980395078659)
(X_662  0.12843137979507446)
(X_663  0.10882353037595749)
(X_664  0.0009803927969187498)
(X_665  0.008823529817163944)
(X_666  0.012745101936161518)
(X_667  0.004901961423456669)
(X_668  0.004901961423456669)
(X_669  0.004901961423456669)
(X_670  0.008823529817163944)
(X_671  0.012745101936161518)
(X_672  0.09705882519483566)
(X_673  -0.0029411755967885256)
(X_674  -0.0029411755967885256)
(X_675  -0.0029411755967885256)
(X_676  -0.0029411755967885256)
(X_677  0.09705882519483566)
(X_678  0.09705882519483566)
(X_679  0.09705882519483566)
(X_680  -0.010784312151372433)
(X_681  -0.006862743757665157)
(X_682  0.0009803927969187498)
(X_683  0.0009803927969187498)
(X_684  0.09313725680112839)
(X_685  -0.006862743757665157)
(X_686  0.0009803927969187498)
(X_687  0.004901961423456669)
(X_688  0.10098039358854294)
(X_689  0.10098039358854294)
(X_690  0.10098039358854294)
(X_691  0.10098039358854294)
(X_692  0.10098039358854294)
(X_693  0.10098039358854294)
(X_694  0.10098039358854294)
(X_695  0.10098039358854294)
(X_696  0.10098039358854294)
(X_697  0.10098039358854294)
(X_698  0.0009803927969187498)
(X_699  0.004901961423456669)
(X_700  0.09705882519483566)
(X_701  -0.0029411755967885256)
(X_702  -0.0029411755967885256)
(X_703  0.09705882519483566)
(X_704  -0.0029411755967885256)
(X_705  -0.0029411755967885256)
(X_706  -0.0029411755967885256)
(X_707  -0.0029411755967885256)
(X_708  -0.010784312151372433)
(X_709  -0.006862743757665157)
(X_710  0.0009803927969187498)
(X_711  0.0009803927969187498)
(X_712  -0.006862743757665157)
(X_713  -0.006862743757665157)
(X_714  0.0009803927969187498)
(X_715  0.004901961423456669)
(X_716  0.0009803927969187498)
(X_717  0.0009803927969187498)
(X_718  0.0009803927969187498)
(X_719  0.0009803927969187498)
(X_720  0.0009803927969187498)
(X_721  0.0009803927969187498)
(X_722  0.10098039358854294)
(X_723  0.10098039358854294)
(X_724  0.10098039358854294)
(X_725  0.10098039358854294)
(X_726  0.10098039358854294)
(X_727  0.004901961423456669)
(X_728  0.09705882519483566)
(X_729  0.09705882519483566)
(X_730  0.09705882519483566)
(X_731  0.09705882519483566)
(X_732  0.09705882519483566)
(X_733  0.09705882519483566)
(X_734  0.09705882519483566)
(X_735  0.09705882519483566)
(X_736  -0.010784312151372433)
(X_737  -0.006862743757665157)
(X_738  0.0009803927969187498)
(X_739  0.0009803927969187498)
(X_740  -0.006862743757665157)
(X_741  -0.006862743757665157)
(X_742  0.0009803927969187498)
(X_743  0.004901961423456669)
(X_744  0.0009803927969187498)
(X_745  0.0009803927969187498)
(X_746  0.0009803927969187498)
(X_747  0.0009803927969187498)
(X_748  0.10098039358854294)
(X_749  0.10098039358854294)
(X_750  0.10098039358854294)
(X_751  0.10098039358854294)
(X_752  0.10098039358854294)
(X_753  0.10098039358854294)
(X_754  0.10098039358854294)
(X_755  0.10098039358854294)
(X_756  0.09313725680112839)
(X_757  -0.006862743757665157)
(X_758  -0.006862743757665157)
(X_759  0.09313725680112839)
(X_760  -0.006862743757665157)
(X_761  0.09313725680112839)
(X_762  0.09313725680112839)
(X_763  0.09313725680112839)
(X_764  0.08921568840742111)
(X_765  0.09313725680112839)
(X_766  0.0009803927969187498)
(X_767  0.0009803927969187498)
(X_768  -0.006862743757665157)
(X_769  -0.006862743757665157)
(X_770  0.0009803927969187498)
(X_771  0.004901961423456669)
(X_772  0.0009803927969187498)
(X_773  0.0009803927969187498)
(X_774  0.0009803927969187498)
(X_775  0.0009803927969187498)
(X_776  0.0009803927969187498)
(X_777  0.10098039358854294)
(X_778  0.0009803927969187498)
(X_779  0.0009803927969187498)
(X_780  0.0009803927969187498)
(X_781  0.0009803927969187498)
(X_782  0.0009803927969187498)
(X_783  0.0009803927969187498)
(Y_0 -12.425898551940918)
(Y_1 19.73052406311035)
(Y_2 -9.601713180541992)
(Y_3 2.9125547409057617))