((X_0  0.21470588445663452)
(X_1  0.19901961088180542)
(X_2  0.08725491166114807)
(X_3  0.19117647409439087)
(X_4  0.19509804248809814)
(X_5  0.19509804248809814)
(X_6  0.19117647409439087)
(X_7  0.09117648005485535)
(X_8  0.19901961088180542)
(X_9  0.19117647409439087)
(X_10  0.2029411792755127)
(X_11  0.22647058963775635)
(X_12  0.23823529481887817)
(X_13  0.22254902124404907)
(X_14  0.19117647409439087)
(X_15  0.07549020648002625)
(X_16  0.08725491166114807)
(X_17  0.07549020648002625)
(X_18  0.07156863063573837)
(X_19  0.08725491166114807)
(X_20  0.2029411792755127)
(X_21  0.2029411792755127)
(X_22  0.0833333432674408)
(X_23  0.05980392172932625)
(X_24  0.1872549057006836)
(X_25  0.19509804248809814)
(X_26  0.11078432202339172)
(X_27  0.22254902124404907)
(X_28  0.21078431606292725)
(X_29  0.20686274766921997)
(X_30  0.10294118523597717)
(X_31  0.10294118523597717)
(X_32  0.0990196168422699)
(X_33  0.0990196168422699)
(X_34  0.10686275362968445)
(X_35  0.21470588445663452)
(X_36  0.22647058963775635)
(X_37  0.1872549057006836)
(X_38  0.1872549057006836)
(X_39  0.12647059559822083)
(X_40  0.1303921639919281)
(X_41  0.0990196168422699)
(X_42  0.0990196168422699)
(X_43  0.13823530077934265)
(X_44  0.12647059559822083)
(X_45  0.114705890417099)
(X_46  0.19509804248809814)
(X_47  0.08725491166114807)
(X_48  0.09509804844856262)
(X_49  0.10686275362968445)
(X_50  0.11862745881080627)
(X_51  0.12647059559822083)
(X_52  0.21078431606292725)
(X_53  0.2186274528503418)
(X_54  0.23039215803146362)
(X_55  0.23823529481887817)
(X_56  0.19117647409439087)
(X_57  0.10686275362968445)
(X_58  0.12254902720451355)
(X_59  0.12647059559822083)
(X_60  0.11862745881080627)
(X_61  0.10686275362968445)
(X_62  0.0990196168422699)
(X_63  0.09117648005485535)
(X_64  0.19117647409439087)
(X_65  0.09117648005485535)
(X_66  0.0990196168422699)
(X_67  0.114705890417099)
(X_68  0.10686275362968445)
(X_69  0.09117648005485535)
(X_70  0.08725491166114807)
(X_71  0.0990196168422699)
(X_72  0.114705890417099)
(X_73  0.11078432202339172)
(X_74  0.10686275362968445)
(X_75  0.09509804844856262)
(X_76  0.1872549057006836)
(X_77  0.18333333730697632)
(X_78  0.1872549057006836)
(X_79  0.19509804248809814)
(X_80  0.21078431606292725)
(X_81  0.21470588445663452)
(X_82  0.12254902720451355)
(X_83  0.23039215803146362)
(X_84  0.2186274528503418)
(X_85  0.21470588445663452)
(X_86  0.0990196168422699)
(X_87  0.1872549057006836)
(X_88  0.19901961088180542)
(X_89  0.21470588445663452)
(X_90  0.11862745881080627)
(X_91  0.20686274766921997)
(X_92  0.21470588445663452)
(X_93  0.1617647111415863)
(X_94  0.17352941632270813)
(X_95  0.14215686917304993)
(X_96  0.14215686917304993)
(X_97  0.2656862735748291)
(X_98  0.2343137264251709)
(X_99  0.1715686321258545)
(X_100  0.15980392694473267)
(X_101  0.1715686321258545)
(X_102  0.1872549057006836)
(X_103  0.19901961088180542)
(X_104  0.2029411792755127)
(X_105  0.08725491166114807)
(X_106  0.07156863063573837)
(X_107  0.05588235333561897)
(X_108  0.19117647409439087)
(X_109  0.09117648005485535)
(X_110  0.09509804844856262)
(X_111  0.19901961088180542)
(X_112  0.13431373238563538)
(X_113  0.21078431606292725)
(X_114  0.17941176891326904)
(X_115  0.1715686321258545)
(X_116  0.2186274528503418)
(X_117  0.18137255311012268)
(X_118  0.20098040997982025)
(X_119  0.18921568989753723)
(X_120  0.24803923070430756)
(X_121  0.21666668355464935)
(X_122  0.17352941632270813)
(X_123  0.15784314274787903)
(X_124  0.17352941632270813)
(X_125  0.1931372582912445)
(X_126  0.19705882668495178)
(X_127  0.1931372582912445)
(X_128  0.21078431606292725)
(X_129  0.19509804248809814)
(X_130  0.18333333730697632)
(X_131  0.1872549057006836)
(X_132  0.2029411792755127)
(X_133  0.21078431606292725)
(X_134  0.21078431606292725)
(X_135  0.20686274766921997)
(X_136  0.08725491166114807)
(X_137  0.08725491166114807)
(X_138  0.1872549057006836)
(X_139  0.1872549057006836)
(X_140  0.1715686321258545)
(X_141  0.21078431606292725)
(X_142  0.2539215683937073)
(X_143  0.30490198731422424)
(X_144  0.26764705777168274)
(X_145  0.3029411733150482)
(X_146  0.27156862616539)
(X_147  0.3127451241016388)
(X_148  0.4068627655506134)
(X_149  0.2539215683937073)
(X_150  0.1558823585510254)
(X_151  0.18333333730697632)
(X_152  0.20686274766921997)
(X_153  0.19901961088180542)
(X_154  0.2813725471496582)
(X_155  0.4107843339443207)
(X_156  0.26372548937797546)
(X_157  0.22058825194835663)
(X_158  0.25784313678741455)
(X_159  0.2029411792755127)
(X_160  0.17941176891326904)
(X_161  0.0833333432674408)
(X_162  0.10294118523597717)
(X_163  0.22254902124404907)
(X_164  0.10294118523597717)
(X_165  0.10294118523597717)
(X_166  0.0990196168422699)
(X_167  0.19901961088180542)
(X_168  0.12647059559822083)
(X_169  0.30098041892051697)
(X_170  0.27941176295280457)
(X_171  0.4225490391254425)
(X_172  0.44607844948768616)
(X_173  0.45000001788139343)
(X_174  0.29509803652763367)
(X_175  0.2245098203420639)
(X_176  0.3598039448261261)
(X_177  0.2656862735748291)
(X_178  0.19901961088180542)
(X_179  0.19901961088180542)
(X_180  0.19901961088180542)
(X_181  0.21078431606292725)
(X_182  0.30490198731422424)
(X_183  0.43039217591285706)
(X_184  0.4068627655506134)
(X_185  0.4068627655506134)
(X_186  0.38333335518836975)
(X_187  0.32058826088905334)
(X_188  0.24215686321258545)
(X_189  0.09117648005485535)
(X_190  0.0833333432674408)
(X_191  0.19117647409439087)
(X_192  0.21078431606292725)
(X_193  0.20686274766921997)
(X_194  0.10686275362968445)
(X_195  0.10294118523597717)
(X_196  0.31078431010246277)
(X_197  0.44607844948768616)
(X_198  0.44607844948768616)
(X_199  0.3950980603694916)
(X_200  0.36764708161354065)
(X_201  0.3911764919757843)
(X_202  0.4068627655506134)
(X_203  0.39901962876319885)
(X_204  0.23235295712947845)
(X_205  0.3068627417087555)
(X_206  0.31470587849617004)
(X_207  0.344117671251297)
(X_208  0.3127451241016388)
(X_209  0.2754901945590973)
(X_210  0.32647058367729187)
(X_211  0.33039215207099915)
(X_212  0.3088235557079315)
(X_213  0.3950980603694916)
(X_214  0.3735294044017792)
(X_215  0.4696078598499298)
(X_216  0.3794117867946625)
(X_217  0.27352941036224365)
(X_218  0.21470588445663452)
(X_219  0.2029411792755127)
(X_220  0.19901961088180542)
(X_221  0.09509804844856262)
(X_222  0.09509804844856262)
(X_223  0.19117647409439087)
(X_224  0.34215685725212097)
(X_225  0.29901960492134094)
(X_226  0.26372548937797546)
(X_227  0.3950980603694916)
(X_228  0.4735294282436371)
(X_229  0.45196080207824707)
(X_230  0.48725491762161255)
(X_231  0.4911764860153198)
(X_232  0.4852941334247589)
(X_233  0.5656862854957581)
(X_234  0.6911764740943909)
(X_235  0.6480392217636108)
(X_236  0.5735294222831726)
(X_237  0.5774509906768799)
(X_238  0.6009804010391235)
(X_239  0.593137264251709)
(X_240  0.5421568751335144)
(X_241  0.520588219165802)
(X_242  0.3950980603694916)
(X_243  0.45000001788139343)
(X_244  0.45000001788139343)
(X_245  0.44607844948768616)
(X_246  0.46176472306251526)
(X_247  0.2656862735748291)
(X_248  0.10686275362968445)
(X_249  0.09117648005485535)
(X_250  0.07941177487373352)
(X_251  0.07941177487373352)
(X_252  0.2598039209842682)
(X_253  0.240196093916893)
(X_254  0.25196078419685364)
(X_255  0.3186274468898773)
(X_256  0.5166666507720947)
(X_257  0.5794118046760559)
(X_258  0.5794118046760559)
(X_259  0.5558823943138123)
(X_260  0.385294109582901)
(X_261  0.47156864404678345)
(X_262  0.6186274886131287)
(X_263  0.6068627834320068)
(X_264  0.6186274886131287)
(X_265  0.5460784435272217)
(X_266  0.5068627595901489)
(X_267  0.4205882251262665)
(X_268  0.5107843279838562)
(X_269  0.4990196228027344)
(X_270  0.4892157018184662)
(X_271  0.4264706075191498)
(X_272  0.32647058367729187)
(X_273  0.3382352888584137)
(X_274  0.47745099663734436)
(X_275  0.3735294044017792)
(X_276  0.41862747073173523)
(X_277  0.36764708161354065)
(X_278  0.1931372582912445)
(X_279  0.13431373238563538)
(X_280  0.22058825194835663)
(X_281  0.33235296607017517)
(X_282  0.3794117867946625)
(X_283  0.36176469922065735)
(X_284  0.44411763548851013)
(X_285  0.5598039627075195)
(X_286  0.5088235139846802)
(X_287  0.45000001788139343)
(X_288  0.3186274468898773)
(X_289  0.32647058367729187)
(X_290  0.31078431010246277)
(X_291  0.3029411733150482)
(X_292  0.3578431308269501)
(X_293  0.4166666567325592)
(X_294  0.3696078360080719)
(X_295  0.26764705777168274)
(X_296  0.29901960492134094)
(X_297  0.3970588147640228)
(X_298  0.4696078598499298)
(X_299  0.3558823764324188)
(X_300  0.387254923582077)
(X_301  0.4107843339443207)
(X_302  0.3950980603694916)
(X_303  0.4049019515514374)
(X_304  0.3970588147640228)
(X_305  0.3696078360080719)
(X_306  0.33039215207099915)
(X_307  0.29901960492134094)
(X_308  0.32058826088905334)
(X_309  0.35196080803871155)
(X_310  0.31470587849617004)
(X_311  0.3813725411891937)
(X_312  0.4166666567325592)
(X_313  0.3970588147640228)
(X_314  0.3343137204647064)
(X_315  0.2754901945590973)
(X_316  0.3245098292827606)
(X_317  0.3284313976764679)
(X_318  0.30490198731422424)
(X_319  0.2696078419685364)
(X_320  0.28921568393707275)
(X_321  0.24803923070430756)
(X_322  0.26764705777168274)
(X_323  0.344117671251297)
(X_324  0.1617647111415863)
(X_325  0.2245098203420639)
(X_326  0.27941176295280457)
(X_327  0.2852941155433655)
(X_328  0.31666669249534607)
(X_329  0.3911764919757843)
(X_330  0.33627453446388245)
(X_331  0.40294119715690613)
(X_332  0.3186274468898773)
(X_333  0.4225490391254425)
(X_334  0.32647058367729187)
(X_335  0.3343137204647064)
(X_336  0.22058825194835663)
(X_337  0.3598039448261261)
(X_338  0.4107843339443207)
(X_339  0.44607844948768616)
(X_340  0.44607844948768616)
(X_341  0.41862747073173523)
(X_342  0.387254923582077)
(X_343  0.26764705777168274)
(X_344  0.2617647051811218)
(X_345  0.2852941155433655)
(X_346  0.18137255311012268)
(X_347  0.1460784375667572)
(X_348  0.1303921639919281)
(X_349  0.15784314274787903)
(X_350  0.19705882668495178)
(X_351  0.3127451241016388)
(X_352  0.3127451241016388)
(X_353  0.27352941036224365)
(X_354  0.3598039448261261)
(X_355  0.2852941155433655)
(X_356  0.2343137264251709)
(X_357  0.33627453446388245)
(X_358  0.3401961028575897)
(X_359  0.344117671251297)
(X_360  0.40294119715690613)
(X_361  0.3950980603694916)
(X_362  0.28333333134651184)
(X_363  0.2754901945590973)
(X_364  0.25196078419685364)
(X_365  0.26764705777168274)
(X_366  0.28333333134651184)
(X_367  0.3715686500072479)
(X_368  0.3480392396450043)
(X_369  0.3245098292827606)
(X_370  0.31666669249534607)
(X_371  0.32058826088905334)
(X_372  0.12254902720451355)
(X_373  0.1303921639919281)
(X_374  0.13431373238563538)
(X_375  0.1303921639919281)
(X_376  0.12647059559822083)
(X_377  0.11862745881080627)
(X_378  0.10686275362968445)
(X_379  0.19901961088180542)
(X_380  0.1617647111415863)
(X_381  0.14215686917304993)
(X_382  0.3558823764324188)
(X_383  0.240196093916893)
(X_384  0.11862745881080627)
(X_385  0.24215686321258545)
(X_386  0.2813725471496582)
(X_387  0.25)
(X_388  0.2970588207244873)
(X_389  0.31666669249534607)
(X_390  0.3401961028575897)
(X_391  0.3558823764324188)
(X_392  0.3598039448261261)
(X_393  0.344117671251297)
(X_394  0.31666669249534607)
(X_395  0.28921568393707275)
(X_396  0.2696078419685364)
(X_397  0.2617647051811218)
(X_398  0.2539215683937073)
(X_399  0.25)
(X_400  0.19509804248809814)
(X_401  0.1872549057006836)
(X_402  0.19117647409439087)
(X_403  0.2029411792755127)
(X_404  0.2029411792755127)
(X_405  0.18333333730697632)
(X_406  0.05980392172932625)
(X_407  0.04411764815449715)
(X_408  0.05980392172932625)
(X_409  0.12254902720451355)
(X_410  0.18529412150382996)
(X_411  0.24803923070430756)
(X_412  0.3088235557079315)
(X_413  0.24607843160629272)
(X_414  0.2656862735748291)
(X_415  0.2539215683937073)
(X_416  0.13431373238563538)
(X_417  0.1774509847164154)
(X_418  0.23627452552318573)
(X_419  0.28333333134651184)
(X_420  0.2088235467672348)
(X_421  0.17352941632270813)
(X_422  0.13823530077934265)
(X_423  0.12647059559822083)
(X_424  0.14215686917304993)
(X_425  0.15784314274787903)
(X_426  0.15392157435417175)
(X_427  0.24215686321258545)
(X_428  0.09117648005485535)
(X_429  0.08725491166114807)
(X_430  0.09117648005485535)
(X_431  0.09117648005485535)
(X_432  0.07549020648002625)
(X_433  0.05980392172932625)
(X_434  0.1715686321258545)
(X_435  0.0990196168422699)
(X_436  0.09117648005485535)
(X_437  0.27352941036224365)
(X_438  0.21078431606292725)
(X_439  0.3088235557079315)
(X_440  0.41470590233802795)
(X_441  0.3480392396450043)
(X_442  0.2754901945590973)
(X_443  0.3225490152835846)
(X_444  0.3656862676143646)
(X_445  0.3735294044017792)
(X_446  0.3813725411891937)
(X_447  0.4735294282436371)
(X_448  0.2186274528503418)
(X_449  0.2029411792755127)
(X_450  0.1872549057006836)
(X_451  0.18333333730697632)
(X_452  0.19117647409439087)
(X_453  0.09117648005485535)
(X_454  0.08725491166114807)
(X_455  0.17941176891326904)
(X_456  0.16764706373214722)
(X_457  0.16764706373214722)
(X_458  0.1715686321258545)
(X_459  0.1715686321258545)
(X_460  0.1715686321258545)
(X_461  0.17549020051956177)
(X_462  0.07549020648002625)
(X_463  0.07549020648002625)
(X_464  0.08725491166114807)
(X_465  0.07941177487373352)
(X_466  0.19509804248809814)
(X_467  0.2539215683937073)
(X_468  0.30490198731422424)
(X_469  0.3284313976764679)
(X_470  0.33627453446388245)
(X_471  0.344117671251297)
(X_472  0.33627453446388245)
(X_473  0.33235296607017517)
(X_474  0.3284313976764679)
(X_475  0.32058826088905334)
(X_476  0.09509804844856262)
(X_477  0.09117648005485535)
(X_478  0.18333333730697632)
(X_479  0.1872549057006836)
(X_480  0.09509804844856262)
(X_481  0.09117648005485535)
(X_482  0.07941177487373352)
(X_483  0.0676470622420311)
(X_484  0.1558823585510254)
(X_485  0.1558823585510254)
(X_486  0.1558823585510254)
(X_487  0.05588235333561897)
(X_488  0.05980392172932625)
(X_489  0.05980392172932625)
(X_490  0.05980392172932625)
(X_491  0.06372549384832382)
(X_492  0.07549020648002625)
(X_493  0.06372549384832382)
(X_494  0.07941177487373352)
(X_495  0.22647058963775635)
(X_496  0.27352941036224365)
(X_497  0.29313725233078003)
(X_498  0.2970588207244873)
(X_499  0.20490197837352753)
(X_500  0.3127451241016388)
(X_501  0.2088235467672348)
(X_502  0.20490197837352753)
(X_503  0.20098040997982025)
(X_504  0.16764706373214722)
(X_505  0.1715686321258545)
(X_506  0.07549020648002625)
(X_507  0.08725491166114807)
(X_508  0.09117648005485535)
(X_509  0.08725491166114807)
(X_510  0.07156863063573837)
(X_511  0.15980392694473267)
(X_512  0.04803921654820442)
(X_513  0.04803921654820442)
(X_514  0.15196079015731812)
(X_515  0.15196079015731812)
(X_516  0.0519607849419117)
(X_517  0.05588235333561897)
(X_518  0.05588235333561897)
(X_519  0.05588235333561897)
(X_520  0.05980392172932625)
(X_521  0.04803921654820442)
(X_522  0.05588235333561897)
(X_523  0.09509804844856262)
(X_524  0.12647059559822083)
(X_525  0.23823529481887817)
(X_526  0.24215686321258545)
(X_527  0.24607843160629272)
(X_528  0.16568627953529358)
(X_529  0.1617647111415863)
(X_530  0.15784314274787903)
(X_531  0.15000000596046448)
(X_532  0.15196079015731812)
(X_533  0.1558823585510254)
(X_534  0.16372549533843994)
(X_535  0.1715686321258545)
(X_536  0.07549020648002625)
(X_537  0.07156863063573837)
(X_538  0.06372549384832382)
(X_539  0.15980392694473267)
(X_540  0.05588235333561897)
(X_541  0.05588235333561897)
(X_542  0.1558823585510254)
(X_543  0.1558823585510254)
(X_544  0.05980392172932625)
(X_545  0.05980392172932625)
(X_546  0.06372549384832382)
(X_547  0.06372549384832382)
(X_548  0.1558823585510254)
(X_549  0.1401960849761963)
(X_550  0.14411765336990356)
(X_551  0.1715686321258545)
(X_552  0.19117647409439087)
(X_553  0.19117647409439087)
(X_554  0.09509804844856262)
(X_555  0.10294118523597717)
(X_556  0.2029411792755127)
(X_557  0.0990196168422699)
(X_558  0.09509804844856262)
(X_559  0.19117647409439087)
(X_560  0.1401960849761963)
(X_561  0.14411765336990356)
(X_562  0.14411765336990356)
(X_563  0.14411765336990356)
(X_564  0.04803921654820442)
(X_565  0.14803922176361084)
(X_566  0.05588235333561897)
(X_567  0.05980392172932625)
(X_568  0.0519607849419117)
(X_569  0.15196079015731812)
(X_570  0.15196079015731812)
(X_571  0.1558823585510254)
(X_572  0.05588235333561897)
(X_573  0.05588235333561897)
(X_574  0.05980392172932625)
(X_575  0.05980392172932625)
(X_576  0.05588235333561897)
(X_577  0.04411764815449715)
(X_578  0.04019607976078987)
(X_579  0.15980392694473267)
(X_580  0.16764706373214722)
(X_581  0.16372549533843994)
(X_582  0.16372549533843994)
(X_583  0.17549020051956177)
(X_584  0.16372549533843994)
(X_585  0.05980392172932625)
(X_586  0.05588235333561897)
(X_587  0.05588235333561897)
(X_588  0.03235294297337532)
(X_589  0.03235294297337532)
(X_590  0.136274516582489)
(X_591  0.12843137979507446)
(X_592  0.028431374579668045)
(X_593  0.028431374579668045)
(X_594  0.04019607976078987)
(X_595  0.15196079015731812)
(X_596  0.136274516582489)
(X_597  0.136274516582489)
(X_598  0.036274511367082596)
(X_599  0.036274511367082596)
(X_600  0.04019607976078987)
(X_601  0.04019607976078987)
(X_602  0.04411764815449715)
(X_603  0.04411764815449715)
(X_604  0.1558823585510254)
(X_605  0.1401960849761963)
(X_606  0.136274516582489)
(X_607  0.14803922176361084)
(X_608  0.14803922176361084)
(X_609  0.1401960849761963)
(X_610  0.14411765336990356)
(X_611  0.1558823585510254)
(X_612  0.0519607849419117)
(X_613  0.04803921654820442)
(X_614  0.04803921654820442)
(X_615  0.14411765336990356)
(X_616  0.11274509876966476)
(X_617  0.02450980618596077)
(X_618  0.03235294297337532)
(X_619  0.12843137979507446)
(X_620  0.12058823555707932)
(X_621  0.11666666716337204)
(X_622  0.12450980395078659)
(X_623  0.13235294818878174)
(X_624  0.12058823555707932)
(X_625  0.12058823555707932)
(X_626  0.12450980395078659)
(X_627  0.12450980395078659)
(X_628  0.02450980618596077)
(X_629  0.028431374579668045)
(X_630  0.028431374579668045)
(X_631  0.12843137979507446)
(X_632  0.04019607976078987)
(X_633  0.028431374579668045)
(X_634  0.02450980618596077)
(X_635  0.03235294297337532)
(X_636  0.03235294297337532)
(X_637  0.12058823555707932)
(X_638  0.12843137979507446)
(X_639  0.14411765336990356)
(X_640  0.14411765336990356)
(X_641  0.04411764815449715)
(X_642  0.1401960849761963)
(X_643  0.1401960849761963)
(X_644  0.0009803927969187498)
(X_645  0.01666666939854622)
(X_646  0.13235294818878174)
(X_647  0.136274516582489)
(X_648  0.12450980395078659)
(X_649  0.012745101936161518)
(X_650  0.012745101936161518)
(X_651  0.01666666939854622)
(X_652  0.020588237792253494)
(X_653  0.020588237792253494)
(X_654  0.020588237792253494)
(X_655  0.02450980618596077)
(X_656  0.02450980618596077)
(X_657  0.02450980618596077)
(X_658  0.028431374579668045)
(X_659  0.028431374579668045)
(X_660  0.12843137979507446)
(X_661  0.11666666716337204)
(X_662  0.11666666716337204)
(X_663  0.12058823555707932)
(X_664  0.11666666716337204)
(X_665  0.008823529817163944)
(X_666  0.01666666939854622)
(X_667  0.036274511367082596)
(X_668  0.036274511367082596)
(X_669  0.036274511367082596)
(X_670  0.03235294297337532)
(X_671  0.03235294297337532)
(X_672  0.12058823555707932)
(X_673  0.012745101936161518)
(X_674  0.004901961423456669)
(X_675  0.004901961423456669)
(X_676  0.012745101936161518)
(X_677  0.12058823555707932)
(X_678  0.12058823555707932)
(X_679  0.12058823555707932)
(X_680  -0.006862743757665157)
(X_681  0.09705882519483566)
(X_682  0.10490196198225021)
(X_683  0.12058823555707932)
(X_684  0.136274516582489)
(X_685  0.1401960849761963)
(X_686  0.036274511367082596)
(X_687  0.028431374579668045)
(X_688  0.11666666716337204)
(X_689  0.10882353037595749)
(X_690  0.004901961423456669)
(X_691  0.008823529817163944)
(X_692  0.12058823555707932)
(X_693  0.12843137979507446)
(X_694  0.028431374579668045)
(X_695  0.028431374579668045)
(X_696  -0.0029411755967885256)
(X_697  0.10882353037595749)
(X_698  0.12058823555707932)
(X_699  0.12450980395078659)
(X_700  0.09117648005485535)
(X_701  0.07549020648002625)
(X_702  0.05588235333561897)
(X_703  0.04019607976078987)
(X_704  0.028431374579668045)
(X_705  0.020588237792253494)
(X_706  0.008823529817163944)
(X_707  0.0009803927969187498)
(X_708  0.05980392172932625)
(X_709  0.0519607849419117)
(X_710  0.1401960849761963)
(X_711  0.136274516582489)
(X_712  0.13235294818878174)
(X_713  0.12843137979507446)
(X_714  0.01666666939854622)
(X_715  0.008823529817163944)
(X_716  0.11666666716337204)
(X_717  0.10882353037595749)
(X_718  0.004901961423456669)
(X_719  0.004901961423456669)
(X_720  0.012745101936161518)
(X_721  0.11666666716337204)
(X_722  0.012745101936161518)
(X_723  0.11274509876966476)
(X_724  0.11274509876966476)
(X_725  0.11666666716337204)
(X_726  0.12450980395078659)
(X_727  0.13235294818878174)
(X_728  0.8852941393852234)
(X_729  0.7460784316062927)
(X_730  0.7833333611488342)
(X_731  0.7049019932746887)
(X_732  0.6303921937942505)
(X_733  0.4598039388656616)
(X_734  0.4009803831577301)
(X_735  0.46568629145622253)
(X_736  0.3284313976764679)
(X_737  0.30490198731422424)
(X_738  0.27352941036224365)
(X_739  0.24607843160629272)
(X_740  0.22254902124404907)
(X_741  0.2029411792755127)
(X_742  0.18333333730697632)
(X_743  0.1715686321258545)
(X_744  0.07941177487373352)
(X_745  0.0676470622420311)
(X_746  0.14803922176361084)
(X_747  0.036274511367082596)
(X_748  0.12843137979507446)
(X_749  0.11666666716337204)
(X_750  0.004901961423456669)
(X_751  -0.0029411755967885256)
(X_752  0.11666666716337204)
(X_753  0.11274509876966476)
(X_754  0.10882353037595749)
(X_755  0.10882353037595749)
(X_756  1.0499999523162842)
(X_757  0.949999988079071)
(X_758  0.9460784196853638)
(X_759  0.9460784196853638)
(X_760  0.949999988079071)
(X_761  0.949999988079071)
(X_762  0.949999988079071)
(X_763  1.0460784435272217)
(X_764  1.0382353067398071)
(X_765  1.018627405166626)
(X_766  0.9872549176216125)
(X_767  0.8519607782363892)
(X_768  0.8166666626930237)
(X_769  0.7813725471496582)
(X_770  0.75)
(X_771  0.7264705896377563)
(X_772  0.6441176533699036)
(X_773  0.6245098114013672)
(X_774  0.5892156958580017)
(X_775  0.5578431487083435)
(X_776  0.5303921699523926)
(X_777  0.4990196228027344)
(X_778  0.4754902124404907)
(X_779  0.45588237047195435)
(X_780  0.4205882251262665)
(X_781  0.4049019515514374)
(X_782  0.3813725411891937)
(X_783  0.3696078360080719)
(Y_0 -27.16556167602539)
(Y_1 39.38975143432617)
(Y_2 -22.887773513793945)
(Y_3 11.57345199584961))