((X_0  0.15353935956954956)
(X_1  0.14422199130058289)
(X_2  0.1585390865802765)
(X_3  0.06425102800130844)
(X_4  0.015493802726268768)
(X_5  -0.07716456055641174)
(X_6  0.020768649876117706)
(X_7  0.14348524808883667)
(X_8  0.30703622102737427)
(X_9  0.30401933193206787)
(X_10  0.14953690767288208)
(X_11  0.12365806847810745)
(X_12  0.0250777006149292)
(X_13  0.2310011088848114)
(X_14  0.09018799662590027)
(X_15  0.07259728759527206)
(X_16  -0.028173089027404785)
(X_17  -0.03964418172836304)
(X_18  0.12461332976818085)
(X_19  -0.08189010620117188)
(X_20  0.27158576250076294)
(X_21  -0.0687982439994812)
(X_22  0.24663415551185608)
(X_23  -0.008981011807918549)
(X_24  0.16294385492801666)
(X_25  0.10922792553901672)
(X_26  0.04811473935842514)
(X_27  0.1223658099770546)
(X_28  0.20221543312072754)
(X_29  -0.031830668449401855)
(X_30  -0.00026807188987731934)
(X_31  0.09668135643005371)
(X_32  0.08129312098026276)
(X_33  0.0653710663318634)
(X_34  0.0668884739279747)
(X_35  0.16692596673965454)
(X_36  0.26776155829429626)
(X_37  0.23987501859664917)
(X_38  0.02350287139415741)
(X_39  0.14690911769866943)
(X_40  -0.050322532653808594)
(X_41  0.3507389426231384)
(X_42  0.07928748428821564)
(X_43  0.098282590508461)
(X_44  0.31466275453567505)
(X_45  0.06837576627731323)
(X_46  0.01794106513261795)
(X_47  0.2080719918012619)
(X_48  -0.022287815809249878)
(X_49  0.08826559782028198)
(X_50  -0.06151408702135086)
(X_51  -0.12083177268505096)
(X_52  0.14712265133857727)
(X_53  -0.0646999180316925)
(X_54  -0.05108313262462616)
(X_55  -0.056019581854343414)
(X_56  -0.03672377020120621)
(X_57  0.2639053165912628)
(X_58  0.14390455186367035)
(X_59  0.1420588493347168)
(X_60  0.28599804639816284)
(X_61  0.19946157932281494)
(X_62  0.004724256694316864)
(X_63  0.03309051692485809)
(X_64  0.07725010812282562)
(X_65  -0.030282847583293915)
(X_66  0.1970599889755249)
(X_67  0.10381056368350983)
(X_68  0.05896724760532379)
(X_69  0.011182539165019989)
(X_70  0.14154689013957977)
(X_71  0.302369624376297)
(X_72  -0.005276039242744446)
(X_73  -0.07731828093528748)
(X_74  0.22149087488651276)
(X_75  -0.02909749001264572)
(X_76  0.14581558108329773)
(X_77  0.1172906905412674)
(X_78  0.02513498067855835)
(X_79  0.18153588473796844)
(X_80  0.11634713411331177)
(X_81  0.0531906858086586)
(X_82  0.19173702597618103)
(X_83  0.28820672631263733)
(X_84  0.03635904937982559)
(X_85  0.06419213861227036)
(X_86  -0.06262625008821487)
(X_87  0.24457865953445435)
(X_88  0.039522409439086914)
(X_89  0.05421578884124756)
(X_90  0.005064025521278381)
(X_91  0.14040237665176392)
(X_92  -0.013046100735664368)
(X_93  0.27976131439208984)
(X_94  -0.10138965398073196)
(X_95  0.12250985205173492)
(X_96  0.09532657265663147)
(X_97  0.309763103723526)
(X_98  0.9529706239700317)
(X_99  0.8572859764099121)
(X_100  0.21885725855827332)
(X_101  0.4794667363166809)
(X_102  0.6290706992149353)
(X_103  0.4081943929195404)
(X_104  0.17550532519817352)
(X_105  0.23232406377792358)
(X_106  0.0485607385635376)
(X_107  0.0318920835852623)
(X_108  0.0903812050819397)
(X_109  0.23251421749591827)
(X_110  0.007135242223739624)
(X_111  0.13508173823356628)
(X_112  0.2645761966705322)
(X_113  -0.004811741411685944)
(X_114  0.18102756142616272)
(X_115  0.10636606812477112)
(X_116  -0.030891820788383484)
(X_117  0.2974500358104706)
(X_118  0.04676453024148941)
(X_119  -0.09469645470380783)
(X_120  0.031540609896183014)
(X_121  -0.01130002737045288)
(X_122  -0.007703825831413269)
(X_123  0.29284536838531494)
(X_124  0.2914346158504486)
(X_125  0.1773773431777954)
(X_126  0.22336214780807495)
(X_127  0.14090314507484436)
(X_128  0.3492676615715027)
(X_129  0.9121079444885254)
(X_130  0.6504120826721191)
(X_131  -0.10403192043304443)
(X_132  0.6926760077476501)
(X_133  -0.3056483566761017)
(X_134  0.6254693269729614)
(X_135  0.2872680127620697)
(X_136  0.12808379530906677)
(X_137  0.24791795015335083)
(X_138  0.243524968624115)
(X_139  -0.06246798485517502)
(X_140  0.0432930514216423)
(X_141  0.2368811070919037)
(X_142  0.21421238780021667)
(X_143  0.016229599714279175)
(X_144  0.31495150923728943)
(X_145  0.10349138081073761)
(X_146  0.31829139590263367)
(X_147  0.22276803851127625)
(X_148  0.26833975315093994)
(X_149  0.43596190214157104)
(X_150  0.04551452398300171)
(X_151  0.3457977771759033)
(X_152  0.688177227973938)
(X_153  0.910468578338623)
(X_154  0.6720044612884521)
(X_155  1.0064022541046143)
(X_156  0.9268572330474854)
(X_157  0.649451732635498)
(X_158  0.7298719882965088)
(X_159  0.29670020937919617)
(X_160  0.014315962791442871)
(X_161  0.4209408760070801)
(X_162  0.16874483227729797)
(X_163  0.7500900030136108)
(X_164  0.35330694913864136)
(X_165  0.07337051630020142)
(X_166  0.10699377954006195)
(X_167  0.2737419605255127)
(X_168  0.051469966769218445)
(X_169  0.33306217193603516)
(X_170  0.005964368581771851)
(X_171  0.007557481527328491)
(X_172  0.11726371943950653)
(X_173  0.38730722665786743)
(X_174  0.2847660779953003)
(X_175  0.38877418637275696)
(X_176  -0.15022429823875427)
(X_177  0.014739692211151123)
(X_178  0.8882469534873962)
(X_179  -0.17286908626556396)
(X_180  0.5825265049934387)
(X_181  0.7429279088973999)
(X_182  0.4559248089790344)
(X_183  0.5268878936767578)
(X_184  0.5622400045394897)
(X_185  0.8852506875991821)
(X_186  -0.14488866925239563)
(X_187  0.31278592348098755)
(X_188  0.3694613575935364)
(X_189  0.4636777639389038)
(X_190  -0.01770654320716858)
(X_191  0.9046565294265747)
(X_192  1.0601261854171753)
(X_193  0.8583248853683472)
(X_194  -0.31839102506637573)
(X_195  0.11628350615501404)
(X_196  0.8642597794532776)
(X_197  0.45974206924438477)
(X_198  0.6768353581428528)
(X_199  -0.32173722982406616)
(X_200  0.23214533925056458)
(X_201  0.971908450126648)
(X_202  -0.1855851709842682)
(X_203  0.5931940078735352)
(X_204  0.5749236345291138)
(X_205  0.9507440328598022)
(X_206  0.5289945602416992)
(X_207  -0.1598469316959381)
(X_208  -0.31287455558776855)
(X_209  0.5428376197814941)
(X_210  -0.4017716348171234)
(X_211  0.6212947368621826)
(X_212  -0.01594710350036621)
(X_213  -0.23271536827087402)
(X_214  1.2362695932388306)
(X_215  -0.2698231339454651)
(X_216  -0.09647423028945923)
(X_217  0.051126450300216675)
(X_218  0.3545175790786743)
(X_219  -0.027924150228500366)
(X_220  0.48358094692230225)
(X_221  -0.291767954826355)
(X_222  0.783637523651123)
(X_223  0.17613005638122559)
(X_224  -0.029552221298217773)
(X_225  -0.13852477073669434)
(X_226  -0.11655938625335693)
(X_227  0.5142388343811035)
(X_228  0.6836887001991272)
(X_229  -0.20111685991287231)
(X_230  -0.09800100326538086)
(X_231  0.36893799901008606)
(X_232  0.8122453689575195)
(X_233  0.8703476190567017)
(X_234  0.1627238690853119)
(X_235  -0.2773206830024719)
(X_236  0.5708318948745728)
(X_237  0.04838472604751587)
(X_238  0.16860336065292358)
(X_239  0.6703561544418335)
(X_240  0.7567943930625916)
(X_241  -0.10911765694618225)
(X_242  0.45815423130989075)
(X_243  1.1339526176452637)
(X_244  1.4361876249313354)
(X_245  1.2925859689712524)
(X_246  0.13516011834144592)
(X_247  0.8456214666366577)
(X_248  1.111727237701416)
(X_249  0.5563846826553345)
(X_250  0.7259031534194946)
(X_251  -0.21255847811698914)
(X_252  0.4281032681465149)
(X_253  0.6543394923210144)
(X_254  0.03756968677043915)
(X_255  0.43753430247306824)
(X_256  0.5115630626678467)
(X_257  -0.060665518045425415)
(X_258  0.30343353748321533)
(X_259  0.27699369192123413)
(X_260  0.5404325723648071)
(X_261  0.5365193486213684)
(X_262  -0.19558081030845642)
(X_263  0.4783608019351959)
(X_264  0.6949272751808167)
(X_265  0.1557454764842987)
(X_266  0.6532055139541626)
(X_267  0.3095993101596832)
(X_268  0.2608734369277954)
(X_269  -0.03657911717891693)
(X_270  -0.01064366102218628)
(X_271  -0.18566256761550903)
(X_272  -0.0048625171184539795)
(X_273  0.9959467053413391)
(X_274  1.0667223930358887)
(X_275  0.22631806135177612)
(X_276  -0.31691694259643555)
(X_277  0.20279181003570557)
(X_278  -0.42924630641937256)
(X_279  0.653856635093689)
(X_280  -0.23426538705825806)
(X_281  0.517991304397583)
(X_282  0.2221517264842987)
(X_283  0.6165735125541687)
(X_284  0.3652445375919342)
(X_285  0.24614843726158142)
(X_286  0.5446053743362427)
(X_287  -0.06627270579338074)
(X_288  0.6772050857543945)
(X_289  0.21570593118667603)
(X_290  -0.13951611518859863)
(X_291  -0.09948009252548218)
(X_292  -0.028113454580307007)
(X_293  0.37134072184562683)
(X_294  0.4405597746372223)
(X_295  0.2500246465206146)
(X_296  -0.010949745774269104)
(X_297  0.19668658077716827)
(X_298  0.2381179928779602)
(X_299  0.3680616021156311)
(X_300  0.009151235222816467)
(X_301  0.606292188167572)
(X_302  0.0578802227973938)
(X_303  0.10793179273605347)
(X_304  0.7515851259231567)
(X_305  0.9518027901649475)
(X_306  -0.15184539556503296)
(X_307  -0.09348630905151367)
(X_308  0.10113796591758728)
(X_309  -0.21879568696022034)
(X_310  1.3428702354431152)
(X_311  -0.1301366090774536)
(X_312  1.1361042261123657)
(X_313  0.08763819932937622)
(X_314  0.45280921459198)
(X_315  -0.22009098529815674)
(X_316  -0.22066521644592285)
(X_317  0.9237126111984253)
(X_318  -0.008304357528686523)
(X_319  0.6322051286697388)
(X_320  0.060414671897888184)
(X_321  0.03439953923225403)
(X_322  0.35596323013305664)
(X_323  0.11388824880123138)
(X_324  0.078118696808815)
(X_325  0.256125807762146)
(X_326  0.1758498102426529)
(X_327  0.1030450314283371)
(X_328  0.3963724672794342)
(X_329  0.42960768938064575)
(X_330  0.28649312257766724)
(X_331  0.2385217845439911)
(X_332  0.03644952178001404)
(X_333  0.46667417883872986)
(X_334  -0.006363123655319214)
(X_335  0.7760800123214722)
(X_336  -0.18739816546440125)
(X_337  0.9489023685455322)
(X_338  0.5609711408615112)
(X_339  -0.0398310124874115)
(X_340  0.03798434138298035)
(X_341  0.9377278089523315)
(X_342  0.60330730676651)
(X_343  -0.27343013882637024)
(X_344  0.7162461280822754)
(X_345  -0.19554418325424194)
(X_346  -0.0023805350065231323)
(X_347  0.18121474981307983)
(X_348  0.037347212433815)
(X_349  -0.03362421691417694)
(X_350  0.05406869947910309)
(X_351  0.22131133079528809)
(X_352  -0.06047762930393219)
(X_353  0.1734948754310608)
(X_354  0.2207636833190918)
(X_355  -0.09052601456642151)
(X_356  0.03008069097995758)
(X_357  0.1768285036087036)
(X_358  -0.028918161988258362)
(X_359  0.38375598192214966)
(X_360  0.5028883814811707)
(X_361  0.2709174156188965)
(X_362  0.3380495011806488)
(X_363  0.13849623501300812)
(X_364  -0.20887374877929688)
(X_365  0.7867088913917542)
(X_366  0.4422459900379181)
(X_367  0.20015466213226318)
(X_368  0.5795806646347046)
(X_369  0.7228797674179077)
(X_370  -0.15288129448890686)
(X_371  0.7205948233604431)
(X_372  0.17158237099647522)
(X_373  0.41941124200820923)
(X_374  -0.11206723749637604)
(X_375  0.04272913932800293)
(X_376  0.037211038172245026)
(X_377  -0.02424364537000656)
(X_378  0.31116795539855957)
(X_379  0.21187013387680054)
(X_380  0.15031801164150238)
(X_381  0.04242411255836487)
(X_382  0.02024374157190323)
(X_383  -0.023954495787620544)
(X_384  0.24681192636489868)
(X_385  0.038996532559394836)
(X_386  0.08300967514514923)
(X_387  0.30073443055152893)
(X_388  0.39113980531692505)
(X_389  0.35574454069137573)
(X_390  0.3038443326950073)
(X_391  0.22792373597621918)
(X_392  -0.008625656366348267)
(X_393  0.3586914539337158)
(X_394  0.03522302210330963)
(X_395  0.47157570719718933)
(X_396  -0.11039897799491882)
(X_397  0.13893328607082367)
(X_398  0.3385394215583801)
(X_399  0.11346164345741272)
(X_400  0.04482276737689972)
(X_401  0.38526231050491333)
(X_402  0.23399701714515686)
(X_403  -0.047047488391399384)
(X_404  0.2526967525482178)
(X_405  0.24767304956912994)
(X_406  0.2793779969215393)
(X_407  0.21905192732810974)
(X_408  0.2646551728248596)
(X_409  0.24311836063861847)
(X_410  -0.045885637402534485)
(X_411  0.16280511021614075)
(X_412  -0.05479487031698227)
(X_413  -0.049115195870399475)
(X_414  0.17147579789161682)
(X_415  0.07648058235645294)
(X_416  0.05713886022567749)
(X_417  0.0928339958190918)
(X_418  -0.05818891525268555)
(X_419  0.09790200740098953)
(X_420  0.39680159091949463)
(X_421  0.39554327726364136)
(X_422  0.37879645824432373)
(X_423  0.3180636167526245)
(X_424  0.2859964370727539)
(X_425  -0.11431202292442322)
(X_426  0.15424957871437073)
(X_427  -0.026973381638526917)
(X_428  0.32155948877334595)
(X_429  0.09964001178741455)
(X_430  -0.012773856520652771)
(X_431  -0.008478343486785889)
(X_432  0.17294234037399292)
(X_433  0.21561171114444733)
(X_434  0.07251579314470291)
(X_435  0.01518964022397995)
(X_436  0.15485882759094238)
(X_437  0.17992708086967468)
(X_438  0.004760324954986572)
(X_439  0.17871753871440887)
(X_440  0.10825860500335693)
(X_441  0.10019098967313766)
(X_442  0.14208920300006866)
(X_443  0.05023247003555298)
(X_444  -0.04250458627939224)
(X_445  0.20069794356822968)
(X_446  0.012592121958732605)
(X_447  0.2774207592010498)
(X_448  0.27927452325820923)
(X_449  0.05512789636850357)
(X_450  0.12645888328552246)
(X_451  0.19594484567642212)
(X_452  0.26569855213165283)
(X_453  0.0028532668948173523)
(X_454  0.20902585983276367)
(X_455  0.17236599326133728)
(X_456  0.030908554792404175)
(X_457  -0.02307208627462387)
(X_458  0.19176092743873596)
(X_459  0.01349525898694992)
(X_460  0.06938008219003677)
(X_461  0.07069830596446991)
(X_462  0.15898264944553375)
(X_463  0.05998416244983673)
(X_464  0.09978539496660233)
(X_465  -0.06026848405599594)
(X_466  0.18672782182693481)
(X_467  0.10459540784358978)
(X_468  0.025187402963638306)
(X_469  0.16181354224681854)
(X_470  -0.03953545540571213)
(X_471  0.12358688563108444)
(X_472  -0.04566412419080734)
(X_473  0.20167234539985657)
(X_474  0.0001982375979423523)
(X_475  0.07464508712291718)
(X_476  -0.07236547023057938)
(X_477  -0.0733582004904747)
(X_478  0.13708603382110596)
(X_479  0.10508718341588974)
(X_480  0.03976845741271973)
(X_481  -0.06401024013757706)
(X_482  -0.06527649611234665)
(X_483  -0.06784003227949142)
(X_484  0.1073727160692215)
(X_485  0.0699312835931778)
(X_486  0.17373444139957428)
(X_487  0.15309898555278778)
(X_488  0.16924741864204407)
(X_489  -0.01146891713142395)
(X_490  0.18731050193309784)
(X_491  0.12135928869247437)
(X_492  0.05026596784591675)
(X_493  0.01572936773300171)
(X_494  -0.028508134186267853)
(X_495  0.004471685737371445)
(X_496  0.10873222351074219)
(X_497  -0.046207837760448456)
(X_498  0.030352361500263214)
(X_499  0.08603072166442871)
(X_500  -0.00195939838886261)
(X_501  0.12974469363689423)
(X_502  0.16767482459545135)
(X_503  0.033710941672325134)
(X_504  0.04356306791305542)
(X_505  0.0501711443066597)
(X_506  0.19456075131893158)
(X_507  0.15337784588336945)
(X_508  0.06145545840263367)
(X_509  0.07519768178462982)
(X_510  0.05363292247056961)
(X_511  0.19486631453037262)
(X_512  0.07015553116798401)
(X_513  0.08199773728847504)
(X_514  -0.050394050776958466)
(X_515  0.018513508141040802)
(X_516  0.0845884382724762)
(X_517  0.01422320306301117)
(X_518  0.010985493659973145)
(X_519  0.06272412836551666)
(X_520  -0.055142924189567566)
(X_521  0.18767660856246948)
(X_522  0.07482172548770905)
(X_523  0.20899257063865662)
(X_524  -0.023983687162399292)
(X_525  0.1619950383901596)
(X_526  0.10161975026130676)
(X_527  -0.038277767598629)
(X_528  0.01611357182264328)
(X_529  0.040206022560596466)
(X_530  0.13028351962566376)
(X_531  0.07105889916419983)
(X_532  0.13424737751483917)
(X_533  0.11857466399669647)
(X_534  0.02492198348045349)
(X_535  -0.03031298518180847)
(X_536  0.12578371167182922)
(X_537  0.16722886264324188)
(X_538  0.11293342709541321)
(X_539  0.14864562451839447)
(X_540  -0.03693881630897522)
(X_541  -0.004247948527336121)
(X_542  -0.02384582906961441)
(X_543  -0.011013314127922058)
(X_544  0.019755467772483826)
(X_545  0.06740821897983551)
(X_546  -0.04220770299434662)
(X_547  0.1595943421125412)
(X_548  -0.003499828279018402)
(X_549  -0.008281689137220383)
(X_550  0.035782694816589355)
(X_551  0.0007090345025062561)
(X_552  0.11570438742637634)
(X_553  0.09777708351612091)
(X_554  0.14310495555400848)
(X_555  0.13772141933441162)
(X_556  0.04598554968833923)
(X_557  0.031610265374183655)
(X_558  0.057309702038764954)
(X_559  0.03149726614356041)
(X_560  0.052248358726501465)
(X_561  0.10375909507274628)
(X_562  -0.05845016986131668)
(X_563  -0.03337760269641876)
(X_564  0.11329326033592224)
(X_565  -0.012716799974441528)
(X_566  0.08150029182434082)
(X_567  0.05739522725343704)
(X_568  0.031303130090236664)
(X_569  0.10991697013378143)
(X_570  0.17387954890727997)
(X_571  0.037322789430618286)
(X_572  0.07161249965429306)
(X_573  -0.017368316650390625)
(X_574  0.06508443504571915)
(X_575  -0.0006338916718959808)
(X_576  0.05323875695466995)
(X_577  0.014589972794055939)
(X_578  0.1657993495464325)
(X_579  -0.024918198585510254)
(X_580  0.11791834235191345)
(X_581  0.09931118786334991)
(X_582  0.05811785161495209)
(X_583  0.11571012437343597)
(X_584  0.14137552678585052)
(X_585  0.010772794485092163)
(X_586  -0.05623112618923187)
(X_587  0.1608077585697174)
(X_588  -0.04684348404407501)
(X_589  0.09093448519706726)
(X_590  -0.025540225207805634)
(X_591  0.04552208632230759)
(X_592  0.050541557371616364)
(X_593  0.03593423217535019)
(X_594  0.05892705172300339)
(X_595  -0.012042082846164703)
(X_596  0.13054926693439484)
(X_597  0.003522932529449463)
(X_598  0.028135985136032104)
(X_599  0.0761742889881134)
(X_600  0.06639041751623154)
(X_601  0.04689474403858185)
(X_602  0.0612109936773777)
(X_603  -0.03621384873986244)
(X_604  0.12080942094326019)
(X_605  0.013590224087238312)
(X_606  -0.056566499173641205)
(X_607  -0.003693368285894394)
(X_608  0.03606434166431427)
(X_609  0.006020791828632355)
(X_610  0.08585908263921738)
(X_611  0.08918814361095428)
(X_612  0.09110822528600693)
(X_613  -0.011181533336639404)
(X_614  0.07293848693370819)
(X_615  0.047655731439590454)
(X_616  -0.015369176864624023)
(X_617  -0.05065023899078369)
(X_618  0.0061495378613471985)
(X_619  -0.0464077889919281)
(X_620  0.12543390691280365)
(X_621  0.04952704906463623)
(X_622  -0.04730919003486633)
(X_623  0.09808368980884552)
(X_624  0.040188856422901154)
(X_625  0.04641236364841461)
(X_626  -0.02908172458410263)
(X_627  -0.010194391012191772)
(X_628  0.10050012171268463)
(X_629  0.09649321436882019)
(X_630  0.09069320559501648)
(X_631  -0.05991467833518982)
(X_632  -0.016090475022792816)
(X_633  -0.007485821843147278)
(X_634  0.017290398478507996)
(X_635  -0.013859525322914124)
(X_636  0.0633467510342598)
(X_637  0.05460740998387337)
(X_638  0.04147164523601532)
(X_639  0.106247179210186)
(X_640  0.10211529582738876)
(X_641  0.018950633704662323)
(X_642  0.03565660119056702)
(X_643  0.012068696320056915)
(X_644  -0.040890172123909)
(X_645  0.11066371202468872)
(X_646  0.024386875331401825)
(X_647  -0.01098988950252533)
(X_648  0.010157942771911621)
(X_649  -0.020777881145477295)
(X_650  -0.02840431034564972)
(X_651  0.13844384253025055)
(X_652  -0.030728653073310852)
(X_653  0.043705135583877563)
(X_654  0.09142671525478363)
(X_655  -0.04052609205245972)
(X_656  0.17902341485023499)
(X_657  0.11097143590450287)
(X_658  -0.0685587227344513)
(X_659  0.02094191312789917)
(X_660  0.23772919178009033)
(X_661  0.1979658007621765)
(X_662  -0.05305716395378113)
(X_663  -0.1243845522403717)
(X_664  0.4189263582229614)
(X_665  0.049587592482566833)
(X_666  0.3777243494987488)
(X_667  0.309632271528244)
(X_668  0.41086339950561523)
(X_669  -0.05689340829849243)
(X_670  -0.10992547869682312)
(X_671  0.18305954337120056)
(X_672  -0.5566774606704712)
(X_673  1.6721023321151733)
(X_674  0.0640941858291626)
(X_675  1.27097749710083)
(X_676  0.422756552696228)
(X_677  0.0102730393409729)
(X_678  -0.6125783324241638)
(X_679  -0.6335771083831787)
(X_680  1.851271390914917)
(X_681  0.3824869394302368)
(X_682  -0.2972559332847595)
(X_683  1.1379756927490234)
(X_684  0.7728774547576904)
(X_685  0.4698375463485718)
(X_686  0.8281655311584473)
(X_687  2.024346351623535)
(X_688  -0.4532228112220764)
(X_689  -0.5121463537216187)
(X_690  1.83662748336792)
(X_691  1.3716508150100708)
(X_692  2.2022571563720703)
(X_693  0.5054478645324707)
(X_694  1.7854642868041992)
(X_695  1.253832221031189)
(X_696  1.5786316394805908)
(X_697  0.4059644937515259)
(X_698  -0.5128844976425171)
(X_699  -0.25752025842666626)
(X_700  0.18906259536743164)
(X_701  1.6938846111297607)
(X_702  -0.08448731899261475)
(X_703  0.04763007164001465)
(X_704  0.984148383140564)
(X_705  0.04136776924133301)
(X_706  2.935910940170288)
(X_707  1.0210871696472168)
(X_708  2.3435163497924805)
(X_709  2.312128782272339)
(X_710  -0.6895076036453247)
(X_711  2.4709627628326416)
(X_712  2.9103524684906006)
(X_713  2.133023738861084)
(X_714  -0.2655375003814697)
(X_715  0.31507980823516846)
(X_716  0.14135217666625977)
(X_717  2.275789260864258)
(X_718  0.22847819328308105)
(X_719  -0.11480677127838135)
(X_720  1.9896876811981201)
(X_721  2.2275023460388184)
(X_722  2.3384175300598145)
(X_723  2.2760276794433594)
(X_724  1.0958366394042969)
(X_725  -0.7776428461074829)
(X_726  0.6036176681518555)
(X_727  2.197148323059082)
(X_728  0.9078536033630371)
(X_729  1.368009090423584)
(X_730  0.4207346439361572)
(X_731  0.3986320495605469)
(X_732  0.36710798740386963)
(X_733  2.0518617630004883)
(X_734  2.61958646774292)
(X_735  0.5182915329933167)
(X_736  2.4820590019226074)
(X_737  -0.7477996349334717)
(X_738  0.4847474694252014)
(X_739  2.73384428024292)
(X_740  -0.5650287866592407)
(X_741  1.2517900466918945)
(X_742  1.7970657348632812)
(X_743  1.9864637851715088)
(X_744  -0.7825026512145996)
(X_745  2.405784845352173)
(X_746  -0.7083404064178467)
(X_747  2.3307864665985107)
(X_748  1.6880507469177246)
(X_749  1.7618534564971924)
(X_750  1.5363409519195557)
(X_751  1.6364898681640625)
(X_752  -0.7819920778274536)
(X_753  0.562821626663208)
(X_754  2.691948652267456)
(X_755  -0.8207452297210693)
(X_756  -0.7489709854125977)
(X_757  1.150122880935669)
(X_758  2.1536381244659424)
(X_759  0.9247723817825317)
(X_760  0.17722737789154053)
(X_761  1.1734890937805176)
(X_762  1.001854658126831)
(X_763  0.9277997016906738)
(X_764  -0.01729607582092285)
(X_765  1.241783857345581)
(X_766  2.8481476306915283)
(X_767  -0.2716073989868164)
(X_768  0.4803149700164795)
(X_769  2.4084441661834717)
(X_770  0.9610575437545776)
(X_771  0.6378594636917114)
(X_772  1.6868592500686646)
(X_773  -0.8347240686416626)
(X_774  -0.6171154975891113)
(X_775  2.409409999847412)
(X_776  1.818381667137146)
(X_777  -0.6321874856948853)
(X_778  2.5674233436584473)
(X_779  1.6104739904403687)
(X_780  1.930771827697754)
(X_781  -0.7792099714279175)
(X_782  -0.25183701515197754)
(X_783  1.3398478031158447)
(Y_0 3.112377882003784)
(Y_1 8.702033996582031)
(Y_2 -4.447649955749512)
(Y_3 -8.424595832824707))