((X_0  0.2029411792755127)
(X_1  0.2186274528503418)
(X_2  0.24607843160629272)
(X_3  0.2852941155433655)
(X_4  0.3284313976764679)
(X_5  0.27156862616539)
(X_6  0.3068627417087555)
(X_7  0.32647058367729187)
(X_8  0.40882351994514465)
(X_9  0.5362744927406311)
(X_10  0.5715686678886414)
(X_11  0.4911764860153198)
(X_12  0.5107843279838562)
(X_13  0.6343137621879578)
(X_14  0.6774510145187378)
(X_15  0.708823561668396)
(X_16  0.5852941274642944)
(X_17  0.6245098114013672)
(X_18  0.6519607901573181)
(X_19  0.6558823585510254)
(X_20  0.7676470875740051)
(X_21  0.7911764979362488)
(X_22  0.6990196108818054)
(X_23  0.6872549057006836)
(X_24  0.7833333611488342)
(X_25  0.6872549057006836)
(X_26  0.6911764740943909)
(X_27  0.7990196347236633)
(X_28  0.14803922176361084)
(X_29  0.14803922176361084)
(X_30  0.04803921654820442)
(X_31  0.04803921654820442)
(X_32  0.0519607849419117)
(X_33  0.05588235333561897)
(X_34  0.06372549384832382)
(X_35  0.16764706373214722)
(X_36  0.10882353037595749)
(X_37  0.02450980618596077)
(X_38  0.04019607976078987)
(X_39  0.04803921654820442)
(X_40  0.04803921654820442)
(X_41  0.1558823585510254)
(X_42  0.1715686321258545)
(X_43  0.0833333432674408)
(X_44  0.1401960849761963)
(X_45  0.16372549533843994)
(X_46  0.1715686321258545)
(X_47  0.06372549384832382)
(X_48  0.06372549384832382)
(X_49  0.0833333432674408)
(X_50  0.09509804844856262)
(X_51  0.09117648005485535)
(X_52  0.16372549533843994)
(X_53  0.16764706373214722)
(X_54  0.07156863063573837)
(X_55  0.17549020051956177)
(X_56  0.1558823585510254)
(X_57  0.04803921654820442)
(X_58  0.04019607976078987)
(X_59  0.03235294297337532)
(X_60  0.02450980618596077)
(X_61  0.020588237792253494)
(X_62  0.01666666939854622)
(X_63  0.01666666939854622)
(X_64  0.0519607849419117)
(X_65  0.05588235333561897)
(X_66  0.05980392172932625)
(X_67  0.05980392172932625)
(X_68  0.05588235333561897)
(X_69  0.04803921654820442)
(X_70  0.04019607976078987)
(X_71  0.036274511367082596)
(X_72  0.04411764815449715)
(X_73  0.0519607849419117)
(X_74  0.04411764815449715)
(X_75  0.020588237792253494)
(X_76  0.11274509876966476)
(X_77  0.12450980395078659)
(X_78  0.036274511367082596)
(X_79  0.1401960849761963)
(X_80  0.028431374579668045)
(X_81  0.028431374579668045)
(X_82  0.028431374579668045)
(X_83  0.12843137979507446)
(X_84  0.13235294818878174)
(X_85  0.13235294818878174)
(X_86  0.13235294818878174)
(X_87  0.13235294818878174)
(X_88  0.036274511367082596)
(X_89  0.04019607976078987)
(X_90  0.04803921654820442)
(X_91  0.04803921654820442)
(X_92  0.12843137979507446)
(X_93  0.02450980618596077)
(X_94  0.02450980618596077)
(X_95  0.03235294297337532)
(X_96  0.136274516582489)
(X_97  0.13235294818878174)
(X_98  0.12058823555707932)
(X_99  0.10882353037595749)
(X_100  0.12843137979507446)
(X_101  0.12843137979507446)
(X_102  0.12843137979507446)
(X_103  0.11666666716337204)
(X_104  0.008823529817163944)
(X_105  0.01666666939854622)
(X_106  0.03235294297337532)
(X_107  0.04019607976078987)
(X_108  0.04803921654820442)
(X_109  0.04411764815449715)
(X_110  0.04019607976078987)
(X_111  0.13235294818878174)
(X_112  0.036274511367082596)
(X_113  0.136274516582489)
(X_114  0.13235294818878174)
(X_115  0.12843137979507446)
(X_116  0.12843137979507446)
(X_117  0.028431374579668045)
(X_118  0.028431374579668045)
(X_119  0.13235294818878174)
(X_120  0.04019607976078987)
(X_121  0.036274511367082596)
(X_122  0.03235294297337532)
(X_123  0.03235294297337532)
(X_124  0.1401960849761963)
(X_125  0.14411765336990356)
(X_126  0.1401960849761963)
(X_127  0.13235294818878174)
(X_128  0.13235294818878174)
(X_129  0.14411765336990356)
(X_130  0.16764706373214722)
(X_131  0.1872549057006836)
(X_132  0.2029411792755127)
(X_133  0.21470588445663452)
(X_134  0.23039215803146362)
(X_135  0.24607843160629272)
(X_136  0.14215686917304993)
(X_137  0.13431373238563538)
(X_138  0.22647058963775635)
(X_139  0.2186274528503418)
(X_140  0.15196079015731812)
(X_141  0.14803922176361084)
(X_142  0.14411765336990356)
(X_143  0.1401960849761963)
(X_144  0.036274511367082596)
(X_145  0.036274511367082596)
(X_146  0.036274511367082596)
(X_147  0.136274516582489)
(X_148  0.1401960849761963)
(X_149  0.13235294818878174)
(X_150  0.02450980618596077)
(X_151  0.01666666939854622)
(X_152  0.01666666939854622)
(X_153  0.02450980618596077)
(X_154  0.1401960849761963)
(X_155  0.04803921654820442)
(X_156  0.15000000596046448)
(X_157  0.16568627953529358)
(X_158  0.20490197837352753)
(X_159  0.35196080803871155)
(X_160  0.3794117867946625)
(X_161  0.2911764681339264)
(X_162  0.3068627417087555)
(X_163  0.4264706075191498)
(X_164  0.3813725411891937)
(X_165  0.37745097279548645)
(X_166  0.3735294044017792)
(X_167  0.4696078598499298)
(X_168  0.020588237792253494)
(X_169  0.020588237792253494)
(X_170  0.12058823555707932)
(X_171  0.12058823555707932)
(X_172  0.12058823555707932)
(X_173  0.12450980395078659)
(X_174  0.028431374579668045)
(X_175  0.03235294297337532)
(X_176  0.12450980395078659)
(X_177  0.12450980395078659)
(X_178  0.12058823555707932)
(X_179  0.012745101936161518)
(X_180  0.12450980395078659)
(X_181  0.1558823585510254)
(X_182  0.2029411792755127)
(X_183  0.13823530077934265)
(X_184  0.3480392396450043)
(X_185  0.3558823764324188)
(X_186  0.38333335518836975)
(X_187  0.4225490391254425)
(X_188  0.43431374430656433)
(X_189  0.32647058367729187)
(X_190  0.33039215207099915)
(X_191  0.4539215862751007)
(X_192  0.3911764919757843)
(X_193  0.29509803652763367)
(X_194  0.29901960492134094)
(X_195  0.3068627417087555)
(X_196  0.05588235333561897)
(X_197  0.1558823585510254)
(X_198  0.14803922176361084)
(X_199  0.04411764815449715)
(X_200  0.04019607976078987)
(X_201  0.1401960849761963)
(X_202  0.1401960849761963)
(X_203  0.14411765336990356)
(X_204  0.05980392172932625)
(X_205  0.16764706373214722)
(X_206  0.17549020051956177)
(X_207  0.1872549057006836)
(X_208  0.11078432202339172)
(X_209  0.16568627953529358)
(X_210  0.24411766231060028)
(X_211  0.40294119715690613)
(X_212  0.35196080803871155)
(X_213  0.3401961028575897)
(X_214  0.24803923070430756)
(X_215  0.2598039209842682)
(X_216  0.24803923070430756)
(X_217  0.21666668355464935)
(X_218  0.3127451241016388)
(X_219  0.3284313976764679)
(X_220  0.38333335518836975)
(X_221  0.3911764919757843)
(X_222  0.3029411733150482)
(X_223  0.41862747073173523)
(X_224  0.18921568989753723)
(X_225  0.1931372582912445)
(X_226  0.1931372582912445)
(X_227  0.18921568989753723)
(X_228  0.18921568989753723)
(X_229  0.1931372582912445)
(X_230  0.2088235467672348)
(X_231  0.22058825194835663)
(X_232  0.25196078419685364)
(X_233  0.26764705777168274)
(X_234  0.3754902184009552)
(X_235  0.36764708161354065)
(X_236  0.2754901945590973)
(X_237  0.28333333134651184)
(X_238  0.25196078419685364)
(X_239  0.20490197837352753)
(X_240  0.21274511516094208)
(X_241  0.3284313976764679)
(X_242  0.2539215683937073)
(X_243  0.28921568393707275)
(X_244  0.35196080803871155)
(X_245  0.3401961028575897)
(X_246  0.3401961028575897)
(X_247  0.3127451241016388)
(X_248  0.21274511516094208)
(X_249  0.33235296607017517)
(X_250  0.31078431010246277)
(X_251  0.4205882251262665)
(X_252  0.18137255311012268)
(X_253  0.19705882668495178)
(X_254  0.22058825194835663)
(X_255  0.23235295712947845)
(X_256  0.33627453446388245)
(X_257  0.33235296607017517)
(X_258  0.33235296607017517)
(X_259  0.23627452552318573)
(X_260  0.2245098203420639)
(X_261  0.23235295712947845)
(X_262  0.33235296607017517)
(X_263  0.21666668355464935)
(X_264  0.21274511516094208)
(X_265  0.23235295712947845)
(X_266  0.26372548937797546)
(X_267  0.28333333134651184)
(X_268  0.38333335518836975)
(X_269  0.39901962876319885)
(X_270  0.3245098292827606)
(X_271  0.35196080803871155)
(X_272  0.3068627417087555)
(X_273  0.387254923582077)
(X_274  0.387254923582077)
(X_275  0.2598039209842682)
(X_276  0.30490198731422424)
(X_277  0.3088235557079315)
(X_278  0.22843138873577118)
(X_279  0.26764705777168274)
(X_280  0.23039215803146362)
(X_281  0.24607843160629272)
(X_282  0.2696078419685364)
(X_283  0.18529412150382996)
(X_284  0.1931372582912445)
(X_285  0.2970588207244873)
(X_286  0.30490198731422424)
(X_287  0.3127451241016388)
(X_288  0.19705882668495178)
(X_289  0.17352941632270813)
(X_290  0.17352941632270813)
(X_291  0.2088235467672348)
(X_292  0.26372548937797546)
(X_293  0.3186274468898773)
(X_294  0.36176469922065735)
(X_295  0.39313724637031555)
(X_296  0.5441176295280457)
(X_297  0.45588237047195435)
(X_298  0.3656862676143646)
(X_299  0.36176469922065735)
(X_300  0.48137256503105164)
(X_301  0.43431374430656433)
(X_302  0.41470590233802795)
(X_303  0.28333333134651184)
(X_304  0.26764705777168274)
(X_305  0.25196078419685364)
(X_306  0.2088235467672348)
(X_307  0.25784313678741455)
(X_308  0.25)
(X_309  0.2539215683937073)
(X_310  0.15392157435417175)
(X_311  0.15784314274787903)
(X_312  0.16960784792900085)
(X_313  0.29313725233078003)
(X_314  0.3245098292827606)
(X_315  0.24803923070430756)
(X_316  0.30098041892051697)
(X_317  0.24607843160629272)
(X_318  0.23823529481887817)
(X_319  0.22843138873577118)
(X_320  0.34607842564582825)
(X_321  0.3970588147640228)
(X_322  0.37745097279548645)
(X_323  0.44607844948768616)
(X_324  0.3715686500072479)
(X_325  0.3029411733150482)
(X_326  0.240196093916893)
(X_327  0.26764705777168274)
(X_328  0.4107843339443207)
(X_329  0.3911764919757843)
(X_330  0.40294119715690613)
(X_331  0.3911764919757843)
(X_332  0.2911764681339264)
(X_333  0.28333333134651184)
(X_334  0.21666668355464935)
(X_335  0.21470588445663452)
(X_336  0.3911764919757843)
(X_337  0.3950980603694916)
(X_338  0.39901962876319885)
(X_339  0.40294119715690613)
(X_340  0.41470590233802795)
(X_341  0.4382353127002716)
(X_342  0.46568629145622253)
(X_343  0.385294109582901)
(X_344  0.33235296607017517)
(X_345  0.28921568393707275)
(X_346  0.1774509847164154)
(X_347  0.23235295712947845)
(X_348  0.29901960492134094)
(X_349  0.29901960492134094)
(X_350  0.23627452552318573)
(X_351  0.2774509787559509)
(X_352  0.21470588445663452)
(X_353  0.2539215683937073)
(X_354  0.21078431606292725)
(X_355  0.1460784375667572)
(X_356  0.29313725233078003)
(X_357  0.2852941155433655)
(X_358  0.3127451241016388)
(X_359  0.3127451241016388)
(X_360  0.30490198731422424)
(X_361  0.3127451241016388)
(X_362  0.1617647111415863)
(X_363  0.0676470622420311)
(X_364  0.2617647051811218)
(X_365  0.18137255311012268)
(X_366  0.20490197837352753)
(X_367  0.3245098292827606)
(X_368  0.3284313976764679)
(X_369  0.3284313976764679)
(X_370  0.3284313976764679)
(X_371  0.3284313976764679)
(X_372  0.3401961028575897)
(X_373  0.3637255132198334)
(X_374  0.3637255132198334)
(X_375  0.33235296607017517)
(X_376  0.19705882668495178)
(X_377  0.17352941632270813)
(X_378  0.15784314274787903)
(X_379  0.1460784375667572)
(X_380  0.1303921639919281)
(X_381  0.17352941632270813)
(X_382  0.2186274528503418)
(X_383  0.12647059559822083)
(X_384  0.15000000596046448)
(X_385  0.114705890417099)
(X_386  0.2343137264251709)
(X_387  0.23039215803146362)
(X_388  0.23039215803146362)
(X_389  0.24215686321258545)
(X_390  0.21078431606292725)
(X_391  0.15196079015731812)
(X_392  0.2186274528503418)
(X_393  0.24215686321258545)
(X_394  0.16568627953529358)
(X_395  0.18137255311012268)
(X_396  0.2813725471496582)
(X_397  0.2696078419685364)
(X_398  0.25784313678741455)
(X_399  0.2539215683937073)
(X_400  0.19705882668495178)
(X_401  0.26372548937797546)
(X_402  0.2754901945590973)
(X_403  0.29313725233078003)
(X_404  0.22647058963775635)
(X_405  0.23039215803146362)
(X_406  0.15784314274787903)
(X_407  0.16568627953529358)
(X_408  0.04803921654820442)
(X_409  0.2029411792755127)
(X_410  0.16372549533843994)
(X_411  0.18333333730697632)
(X_412  0.21470588445663452)
(X_413  0.19509804248809814)
(X_414  0.12647059559822083)
(X_415  0.2343137264251709)
(X_416  0.11862745881080627)
(X_417  0.11862745881080627)
(X_418  0.09117648005485535)
(X_419  0.15196079015731812)
(X_420  0.09509804844856262)
(X_421  0.10294118523597717)
(X_422  0.11078432202339172)
(X_423  0.11078432202339172)
(X_424  0.10294118523597717)
(X_425  0.0990196168422699)
(X_426  0.19901961088180542)
(X_427  0.2029411792755127)
(X_428  0.14215686917304993)
(X_429  0.21274511516094208)
(X_430  0.21274511516094208)
(X_431  0.12254902720451355)
(X_432  0.07156863063573837)
(X_433  0.20686274766921997)
(X_434  0.12254902720451355)
(X_435  0.09509804844856262)
(X_436  0.18333333730697632)
(X_437  0.2343137264251709)
(X_438  0.1872549057006836)
(X_439  0.19509804248809814)
(X_440  0.21078431606292725)
(X_441  0.17549020051956177)
(X_442  0.19901961088180542)
(X_443  0.10686275362968445)
(X_444  0.11862745881080627)
(X_445  0.0990196168422699)
(X_446  0.06372549384832382)
(X_447  0.028431374579668045)
(X_448  0.17549020051956177)
(X_449  0.1715686321258545)
(X_450  0.16764706373214722)
(X_451  0.1715686321258545)
(X_452  0.07941177487373352)
(X_453  0.0833333432674408)
(X_454  0.17941176891326904)
(X_455  0.17549020051956177)
(X_456  0.10294118523597717)
(X_457  0.23823529481887817)
(X_458  0.24215686321258545)
(X_459  0.09509804844856262)
(X_460  0.07156863063573837)
(X_461  0.19117647409439087)
(X_462  0.0990196168422699)
(X_463  0.08725491166114807)
(X_464  0.06372549384832382)
(X_465  0.06372549384832382)
(X_466  0.15980392694473267)
(X_467  0.15980392694473267)
(X_468  0.16764706373214722)
(X_469  0.17549020051956177)
(X_470  0.18333333730697632)
(X_471  0.1872549057006836)
(X_472  0.17941176891326904)
(X_473  0.16372549533843994)
(X_474  0.1401960849761963)
(X_475  0.12058823555707932)
(X_476  0.0519607849419117)
(X_477  0.04803921654820442)
(X_478  0.14411765336990356)
(X_479  0.14803922176361084)
(X_480  0.05588235333561897)
(X_481  0.05980392172932625)
(X_482  0.05588235333561897)
(X_483  0.15196079015731812)
(X_484  0.17549020051956177)
(X_485  0.21078431606292725)
(X_486  0.21078431606292725)
(X_487  0.0676470622420311)
(X_488  0.04803921654820442)
(X_489  0.06372549384832382)
(X_490  0.07549020648002625)
(X_491  0.05980392172932625)
(X_492  0.0519607849419117)
(X_493  0.04803921654820442)
(X_494  0.14803922176361084)
(X_495  0.15196079015731812)
(X_496  0.15196079015731812)
(X_497  0.15980392694473267)
(X_498  0.16372549533843994)
(X_499  0.06372549384832382)
(X_500  0.16372549533843994)
(X_501  0.0519607849419117)
(X_502  0.03235294297337532)
(X_503  0.01666666939854622)
(X_504  0.12450980395078659)
(X_505  0.12058823555707932)
(X_506  0.01666666939854622)
(X_507  0.020588237792253494)
(X_508  0.028431374579668045)
(X_509  0.03235294297337532)
(X_510  0.028431374579668045)
(X_511  0.12450980395078659)
(X_512  0.04019607976078987)
(X_513  0.0676470622420311)
(X_514  0.16764706373214722)
(X_515  0.036274511367082596)
(X_516  0.01666666939854622)
(X_517  0.03235294297337532)
(X_518  0.04019607976078987)
(X_519  0.028431374579668045)
(X_520  0.03235294297337532)
(X_521  0.03235294297337532)
(X_522  0.036274511367082596)
(X_523  0.036274511367082596)
(X_524  0.036274511367082596)
(X_525  0.136274516582489)
(X_526  0.13235294818878174)
(X_527  0.13235294818878174)
(X_528  0.1401960849761963)
(X_529  0.03235294297337532)
(X_530  0.02450980618596077)
(X_531  0.11666666716337204)
(X_532  0.10882353037595749)
(X_533  0.10490196198225021)
(X_534  0.10098039358854294)
(X_535  0.10490196198225021)
(X_536  0.11274509876966476)
(X_537  0.01666666939854622)
(X_538  0.012745101936161518)
(X_539  0.008823529817163944)
(X_540  0.01666666939854622)
(X_541  0.036274511367082596)
(X_542  0.1401960849761963)
(X_543  0.11666666716337204)
(X_544  0.10098039358854294)
(X_545  0.11274509876966476)
(X_546  0.11666666716337204)
(X_547  0.008823529817163944)
(X_548  0.11666666716337204)
(X_549  0.020588237792253494)
(X_550  0.02450980618596077)
(X_551  0.12843137979507446)
(X_552  0.12450980395078659)
(X_553  0.12058823555707932)
(X_554  0.11274509876966476)
(X_555  0.008823529817163944)
(X_556  0.11666666716337204)
(X_557  0.01666666939854622)
(X_558  0.012745101936161518)
(X_559  0.11274509876966476)
(X_560  0.10490196198225021)
(X_561  0.10098039358854294)
(X_562  0.09705882519483566)
(X_563  0.10098039358854294)
(X_564  0.008823529817163944)
(X_565  0.11274509876966476)
(X_566  0.008823529817163944)
(X_567  0.004901961423456669)
(X_568  0.008823529817163944)
(X_569  0.12058823555707932)
(X_570  0.12058823555707932)
(X_571  0.11274509876966476)
(X_572  0.004901961423456669)
(X_573  0.008823529817163944)
(X_574  0.10882353037595749)
(X_575  0.0009803927969187498)
(X_576  0.012745101936161518)
(X_577  0.01666666939854622)
(X_578  0.020588237792253494)
(X_579  0.020588237792253494)
(X_580  0.11666666716337204)
(X_581  0.10882353037595749)
(X_582  0.10098039358854294)
(X_583  0.09705882519483566)
(X_584  0.10490196198225021)
(X_585  0.004901961423456669)
(X_586  0.004901961423456669)
(X_587  0.004901961423456669)
(X_588  0.10490196198225021)
(X_589  0.0009803927969187498)
(X_590  -0.0029411755967885256)
(X_591  0.0009803927969187498)
(X_592  0.008823529817163944)
(X_593  0.012745101936161518)
(X_594  0.008823529817163944)
(X_595  0.10490196198225021)
(X_596  0.10490196198225021)
(X_597  0.10882353037595749)
(X_598  0.012745101936161518)
(X_599  0.012745101936161518)
(X_600  0.012745101936161518)
(X_601  0.008823529817163944)
(X_602  0.008823529817163944)
(X_603  0.004901961423456669)
(X_604  0.10882353037595749)
(X_605  0.11274509876966476)
(X_606  0.11274509876966476)
(X_607  0.11274509876966476)
(X_608  0.10882353037595749)
(X_609  0.10490196198225021)
(X_610  0.10098039358854294)
(X_611  0.09705882519483566)
(X_612  0.0009803927969187498)
(X_613  0.0009803927969187498)
(X_614  0.10098039358854294)
(X_615  0.10098039358854294)
(X_616  0.10098039358854294)
(X_617  0.09705882519483566)
(X_618  0.09313725680112839)
(X_619  0.09705882519483566)
(X_620  0.10490196198225021)
(X_621  0.10882353037595749)
(X_622  0.10490196198225021)
(X_623  0.10098039358854294)
(X_624  0.10098039358854294)
(X_625  0.09705882519483566)
(X_626  0.10098039358854294)
(X_627  0.008823529817163944)
(X_628  0.012745101936161518)
(X_629  0.008823529817163944)
(X_630  0.0009803927969187498)
(X_631  0.10098039358854294)
(X_632  0.10490196198225021)
(X_633  0.004901961423456669)
(X_634  0.0009803927969187498)
(X_635  0.0009803927969187498)
(X_636  0.09705882519483566)
(X_637  0.10098039358854294)
(X_638  0.10098039358854294)
(X_639  0.0009803927969187498)
(X_640  0.004901961423456669)
(X_641  0.004901961423456669)
(X_642  0.10098039358854294)
(X_643  0.09705882519483566)
(X_644  0.09313725680112839)
(X_645  -0.010784312151372433)
(X_646  0.08529412001371384)
(X_647  0.08921568840742111)
(X_648  0.09705882519483566)
(X_649  0.0009803927969187498)
(X_650  -0.0029411755967885256)
(X_651  -0.006862743757665157)
(X_652  -0.006862743757665157)
(X_653  -0.010784312151372433)
(X_654  -0.006862743757665157)
(X_655  0.004901961423456669)
(X_656  0.008823529817163944)
(X_657  0.0009803927969187498)
(X_658  -0.0029411755967885256)
(X_659  -0.006862743757665157)
(X_660  0.10490196198225021)
(X_661  0.10098039358854294)
(X_662  0.09313725680112839)
(X_663  0.08921568840742111)
(X_664  0.08921568840742111)
(X_665  0.09313725680112839)
(X_666  0.10098039358854294)
(X_667  0.004901961423456669)
(X_668  0.012745101936161518)
(X_669  0.004901961423456669)
(X_670  0.0009803927969187498)
(X_671  -0.006862743757665157)
(X_672  0.08529412001371384)
(X_673  -0.014705880545079708)
(X_674  -0.014705880545079708)
(X_675  -0.010784312151372433)
(X_676  -0.010784312151372433)
(X_677  0.09313725680112839)
(X_678  0.09313725680112839)
(X_679  0.09313725680112839)
(X_680  -0.010784312151372433)
(X_681  -0.010784312151372433)
(X_682  -0.010784312151372433)
(X_683  0.08921568840742111)
(X_684  0.08921568840742111)
(X_685  -0.010784312151372433)
(X_686  -0.010784312151372433)
(X_687  -0.010784312151372433)
(X_688  0.08921568840742111)
(X_689  0.08921568840742111)
(X_690  -0.010784312151372433)
(X_691  -0.006862743757665157)
(X_692  0.09313725680112839)
(X_693  0.09705882519483566)
(X_694  -0.0029411755967885256)
(X_695  -0.0029411755967885256)
(X_696  0.09313725680112839)
(X_697  0.09313725680112839)
(X_698  0.09313725680112839)
(X_699  0.09313725680112839)
(X_700  0.08529412001371384)
(X_701  -0.014705880545079708)
(X_702  -0.014705880545079708)
(X_703  -0.010784312151372433)
(X_704  -0.010784312151372433)
(X_705  -0.006862743757665157)
(X_706  -0.006862743757665157)
(X_707  -0.006862743757665157)
(X_708  -0.010784312151372433)
(X_709  -0.010784312151372433)
(X_710  -0.010784312151372433)
(X_711  0.08921568840742111)
(X_712  0.08921568840742111)
(X_713  -0.010784312151372433)
(X_714  -0.010784312151372433)
(X_715  -0.010784312151372433)
(X_716  0.08921568840742111)
(X_717  0.08921568840742111)
(X_718  -0.010784312151372433)
(X_719  -0.006862743757665157)
(X_720  0.09313725680112839)
(X_721  0.09313725680112839)
(X_722  0.09705882519483566)
(X_723  0.09705882519483566)
(X_724  0.09313725680112839)
(X_725  0.09313725680112839)
(X_726  0.09313725680112839)
(X_727  0.09313725680112839)
(X_728  0.08529412001371384)
(X_729  -0.014705880545079708)
(X_730  0.08529412001371384)
(X_731  0.08921568840742111)
(X_732  0.08921568840742111)
(X_733  -0.006862743757665157)
(X_734  -0.006862743757665157)
(X_735  -0.006862743757665157)
(X_736  0.08921568840742111)
(X_737  0.08921568840742111)
(X_738  -0.010784312151372433)
(X_739  -0.010784312151372433)
(X_740  0.08921568840742111)
(X_741  0.08921568840742111)
(X_742  0.08921568840742111)
(X_743  0.08921568840742111)
(X_744  -0.010784312151372433)
(X_745  -0.010784312151372433)
(X_746  0.08921568840742111)
(X_747  -0.010784312151372433)
(X_748  -0.006862743757665157)
(X_749  -0.006862743757665157)
(X_750  -0.006862743757665157)
(X_751  -0.0029411755967885256)
(X_752  0.09313725680112839)
(X_753  0.09313725680112839)
(X_754  0.09313725680112839)
(X_755  0.09313725680112839)
(X_756  0.08529412001371384)
(X_757  0.08529412001371384)
(X_758  0.08529412001371384)
(X_759  -0.010784312151372433)
(X_760  -0.010784312151372433)
(X_761  -0.006862743757665157)
(X_762  -0.006862743757665157)
(X_763  -0.006862743757665157)
(X_764  -0.010784312151372433)
(X_765  0.08921568840742111)
(X_766  -0.010784312151372433)
(X_767  -0.010784312151372433)
(X_768  -0.010784312151372433)
(X_769  -0.010784312151372433)
(X_770  -0.010784312151372433)
(X_771  -0.010784312151372433)
(X_772  -0.014705880545079708)
(X_773  -0.014705880545079708)
(X_774  -0.010784312151372433)
(X_775  -0.010784312151372433)
(X_776  -0.010784312151372433)
(X_777  -0.006862743757665157)
(X_778  -0.006862743757665157)
(X_779  -0.006862743757665157)
(X_780  -0.006862743757665157)
(X_781  -0.006862743757665157)
(X_782  -0.006862743757665157)
(X_783  -0.006862743757665157)
(Y_0 -24.554088592529297)
(Y_1 31.280366897583008)
(Y_2 -18.459712982177734)
(Y_3 12.167827606201172))