((X_0  0.8107843399047852)
(X_1  0.7107843160629272)
(X_2  0.7107843160629272)
(X_3  0.70686274766922)
(X_4  0.7029411792755127)
(X_5  0.6833333373069763)
(X_6  0.6558823585510254)
(X_7  0.636274516582489)
(X_8  0.6480392217636108)
(X_9  0.6127451062202454)
(X_10  0.5617647171020508)
(X_11  0.5186274647712708)
(X_12  0.479411780834198)
(X_13  0.5166666507720947)
(X_14  0.4421568810939789)
(X_15  0.28333333134651184)
(X_16  0.23627452552318573)
(X_17  0.21274511516094208)
(X_18  0.1617647111415863)
(X_19  0.10686275362968445)
(X_20  0.18333333730697632)
(X_21  0.18333333730697632)
(X_22  0.18333333730697632)
(X_23  0.07156863063573837)
(X_24  0.1715686321258545)
(X_25  0.05588235333561897)
(X_26  0.05980392172932625)
(X_27  0.0833333432674408)
(X_28  0.21470588445663452)
(X_29  0.21078431606292725)
(X_30  0.10686275362968445)
(X_31  0.10686275362968445)
(X_32  0.11078432202339172)
(X_33  0.10686275362968445)
(X_34  0.0990196168422699)
(X_35  0.19117647409439087)
(X_36  0.07156863063573837)
(X_37  0.05980392172932625)
(X_38  0.05980392172932625)
(X_39  0.07549020648002625)
(X_40  0.09509804844856262)
(X_41  0.2029411792755127)
(X_42  0.1872549057006836)
(X_43  0.0676470622420311)
(X_44  0.1558823585510254)
(X_45  0.1558823585510254)
(X_46  0.14411765336990356)
(X_47  0.13235294818878174)
(X_48  0.14803922176361084)
(X_49  0.07156863063573837)
(X_50  0.07549020648002625)
(X_51  0.06372549384832382)
(X_52  0.1558823585510254)
(X_53  0.04019607976078987)
(X_54  0.04019607976078987)
(X_55  0.15980392694473267)
(X_56  0.1715686321258545)
(X_57  0.05980392172932625)
(X_58  0.04803921654820442)
(X_59  0.04411764815449715)
(X_60  0.04803921654820442)
(X_61  0.0519607849419117)
(X_62  0.1558823585510254)
(X_63  0.1558823585510254)
(X_64  0.0676470622420311)
(X_65  0.06372549384832382)
(X_66  0.05588235333561897)
(X_67  0.05588235333561897)
(X_68  0.05980392172932625)
(X_69  0.05980392172932625)
(X_70  0.0519607849419117)
(X_71  0.04411764815449715)
(X_72  0.04803921654820442)
(X_73  0.06372549384832382)
(X_74  0.07156863063573837)
(X_75  0.07549020648002625)
(X_76  0.18333333730697632)
(X_77  0.19117647409439087)
(X_78  0.07549020648002625)
(X_79  0.15196079015731812)
(X_80  0.07549020648002625)
(X_81  0.07156863063573837)
(X_82  0.07549020648002625)
(X_83  0.18333333730697632)
(X_84  0.1715686321258545)
(X_85  0.16372549533843994)
(X_86  0.15196079015731812)
(X_87  0.15196079015731812)
(X_88  0.15980392694473267)
(X_89  0.06372549384832382)
(X_90  0.0676470622420311)
(X_91  0.06372549384832382)
(X_92  0.15196079015731812)
(X_93  0.0519607849419117)
(X_94  0.0519607849419117)
(X_95  0.04803921654820442)
(X_96  0.14411765336990356)
(X_97  0.1401960849761963)
(X_98  0.136274516582489)
(X_99  0.13235294818878174)
(X_100  0.16764706373214722)
(X_101  0.19117647409439087)
(X_102  0.19901961088180542)
(X_103  0.07941177487373352)
(X_104  0.05980392172932625)
(X_105  0.0519607849419117)
(X_106  0.04803921654820442)
(X_107  0.036274511367082596)
(X_108  0.0833333432674408)
(X_109  0.114705890417099)
(X_110  0.17352941632270813)
(X_111  0.3284313976764679)
(X_112  0.0519607849419117)
(X_113  0.0519607849419117)
(X_114  0.04803921654820442)
(X_115  0.15196079015731812)
(X_116  0.15196079015731812)
(X_117  0.04803921654820442)
(X_118  0.03235294297337532)
(X_119  0.02450980618596077)
(X_120  0.15196079015731812)
(X_121  0.1558823585510254)
(X_122  0.06372549384832382)
(X_123  0.0676470622420311)
(X_124  0.1715686321258545)
(X_125  0.1715686321258545)
(X_126  0.16764706373214722)
(X_127  0.16764706373214722)
(X_128  0.1558823585510254)
(X_129  0.1715686321258545)
(X_130  0.16764706373214722)
(X_131  0.1401960849761963)
(X_132  0.136274516582489)
(X_133  0.19117647409439087)
(X_134  0.2656862735748291)
(X_135  0.21666668355464935)
(X_136  0.457843154668808)
(X_137  0.39313724637031555)
(X_138  0.45196080207824707)
(X_139  0.6068627834320068)
(X_140  0.3088235557079315)
(X_141  0.30098041892051697)
(X_142  0.18921568989753723)
(X_143  0.16960784792900085)
(X_144  0.1460784375667572)
(X_145  0.10686275362968445)
(X_146  0.0676470622420311)
(X_147  0.1401960849761963)
(X_148  0.1715686321258545)
(X_149  0.16372549533843994)
(X_150  0.15196079015731812)
(X_151  0.0519607849419117)
(X_152  0.15196079015731812)
(X_153  0.14803922176361084)
(X_154  0.1401960849761963)
(X_155  0.03235294297337532)
(X_156  0.07156863063573837)
(X_157  0.07156863063573837)
(X_158  0.15196079015731812)
(X_159  0.14411765336990356)
(X_160  0.19509804248809814)
(X_161  0.21666668355464935)
(X_162  0.34607842564582825)
(X_163  0.5245097875595093)
(X_164  0.48137256503105164)
(X_165  0.37745097279548645)
(X_166  0.3813725411891937)
(X_167  0.39313724637031555)
(X_168  0.4205882251262665)
(X_169  0.5088235139846802)
(X_170  0.4892157018184662)
(X_171  0.46568629145622253)
(X_172  0.43431374430656433)
(X_173  0.387254923582077)
(X_174  0.24411766231060028)
(X_175  0.21274511516094208)
(X_176  0.21078431606292725)
(X_177  0.18333333730697632)
(X_178  0.15196079015731812)
(X_179  0.14803922176361084)
(X_180  0.16372549533843994)
(X_181  0.18333333730697632)
(X_182  0.08725491166114807)
(X_183  0.0833333432674408)
(X_184  0.15196079015731812)
(X_185  0.14803922176361084)
(X_186  0.14803922176361084)
(X_187  0.1872549057006836)
(X_188  0.2813725471496582)
(X_189  0.2911764681339264)
(X_190  0.36176469922065735)
(X_191  0.48137256503105164)
(X_192  0.5323529243469238)
(X_193  0.5166666507720947)
(X_194  0.4205882251262665)
(X_195  0.44411763548851013)
(X_196  0.3892156779766083)
(X_197  0.4852941334247589)
(X_198  0.3813725411891937)
(X_199  0.3813725411891937)
(X_200  0.3735294044017792)
(X_201  0.46176472306251526)
(X_202  0.4382353127002716)
(X_203  0.4225490391254425)
(X_204  0.23235295712947845)
(X_205  0.17352941632270813)
(X_206  0.10294118523597717)
(X_207  0.15980392694473267)
(X_208  0.0519607849419117)
(X_209  0.0519607849419117)
(X_210  0.04019607976078987)
(X_211  0.12843137979507446)
(X_212  0.14803922176361084)
(X_213  0.1558823585510254)
(X_214  0.0990196168422699)
(X_215  0.29313725233078003)
(X_216  0.41470590233802795)
(X_217  0.48137256503105164)
(X_218  0.457843154668808)
(X_219  0.3950980603694916)
(X_220  0.3127451241016388)
(X_221  0.30098041892051697)
(X_222  0.20490197837352753)
(X_223  0.33235296607017517)
(X_224  0.26764705777168274)
(X_225  0.21666668355464935)
(X_226  0.3127451241016388)
(X_227  0.3754902184009552)
(X_228  0.31078431010246277)
(X_229  0.29509803652763367)
(X_230  0.31078431010246277)
(X_231  0.4539215862751007)
(X_232  0.39901962876319885)
(X_233  0.4107843339443207)
(X_234  0.33627453446388245)
(X_235  0.2656862735748291)
(X_236  0.15000000596046448)
(X_237  0.09509804844856262)
(X_238  0.08725491166114807)
(X_239  0.17352941632270813)
(X_240  0.21666668355464935)
(X_241  0.3911764919757843)
(X_242  0.43039217591285706)
(X_243  0.4225490391254425)
(X_244  0.43431374430656433)
(X_245  0.44607844948768616)
(X_246  0.3558823764324188)
(X_247  0.12647059559822083)
(X_248  0.0676470622420311)
(X_249  0.0676470622420311)
(X_250  0.07156863063573837)
(X_251  0.1715686321258545)
(X_252  0.27941176295280457)
(X_253  0.2245098203420639)
(X_254  0.30490198731422424)
(X_255  0.3480392396450043)
(X_256  0.387254923582077)
(X_257  0.3715686500072479)
(X_258  0.3401961028575897)
(X_259  0.33235296607017517)
(X_260  0.2911764681339264)
(X_261  0.4264706075191498)
(X_262  0.4225490391254425)
(X_263  0.3911764919757843)
(X_264  0.387254923582077)
(X_265  0.29901960492134094)
(X_266  0.45000001788139343)
(X_267  0.5245097875595093)
(X_268  0.638235330581665)
(X_269  0.5480391979217529)
(X_270  0.4539215862751007)
(X_271  0.3186274468898773)
(X_272  0.3225490152835846)
(X_273  0.27156862616539)
(X_274  0.24607843160629272)
(X_275  0.12843137979507446)
(X_276  0.14411765336990356)
(X_277  0.04411764815449715)
(X_278  0.04411764815449715)
(X_279  0.04411764815449715)
(X_280  0.3480392396450043)
(X_281  0.3127451241016388)
(X_282  0.18529412150382996)
(X_283  0.20098040997982025)
(X_284  0.23627452552318573)
(X_285  0.23627452552318573)
(X_286  0.2852941155433655)
(X_287  0.23039215803146362)
(X_288  0.2186274528503418)
(X_289  0.2852941155433655)
(X_290  0.26764705777168274)
(X_291  0.2872548997402191)
(X_292  0.2872548997402191)
(X_293  0.3539215624332428)
(X_294  0.4323529303073883)
(X_295  0.45196080207824707)
(X_296  0.4735294282436371)
(X_297  0.3382352888584137)
(X_298  0.3382352888584137)
(X_299  0.34607842564582825)
(X_300  0.36764708161354065)
(X_301  0.23039215803146362)
(X_302  0.15196079015731812)
(X_303  0.05588235333561897)
(X_304  0.17549020051956177)
(X_305  0.07549020648002625)
(X_306  0.07549020648002625)
(X_307  0.1715686321258545)
(X_308  0.2539215683937073)
(X_309  0.2617647051811218)
(X_310  0.15000000596046448)
(X_311  0.13431373238563538)
(X_312  0.15392157435417175)
(X_313  0.18529412150382996)
(X_314  0.17352941632270813)
(X_315  0.13823530077934265)
(X_316  0.2813725471496582)
(X_317  0.33627453446388245)
(X_318  0.3382352888584137)
(X_319  0.36176469922065735)
(X_320  0.3225490152835846)
(X_321  0.3696078360080719)
(X_322  0.4009803831577301)
(X_323  0.32647058367729187)
(X_324  0.24803923070430756)
(X_325  0.31470587849617004)
(X_326  0.4009803831577301)
(X_327  0.4049019515514374)
(X_328  0.35196080803871155)
(X_329  0.18333333730697632)
(X_330  0.15980392694473267)
(X_331  0.2343137264251709)
(X_332  0.1303921639919281)
(X_333  0.1303921639919281)
(X_334  0.12647059559822083)
(X_335  0.12254902720451355)
(X_336  0.29313725233078003)
(X_337  0.3401961028575897)
(X_338  0.35196080803871155)
(X_339  0.3127451241016388)
(X_340  0.30098041892051697)
(X_341  0.3480392396450043)
(X_342  0.40294119715690613)
(X_343  0.3225490152835846)
(X_344  0.4049019515514374)
(X_345  0.4049019515514374)
(X_346  0.44019606709480286)
(X_347  0.4166666567325592)
(X_348  0.3539215624332428)
(X_349  0.3578431308269501)
(X_350  0.32647058367729187)
(X_351  0.30490198731422424)
(X_352  0.38333335518836975)
(X_353  0.3911764919757843)
(X_354  0.3911764919757843)
(X_355  0.35196080803871155)
(X_356  0.28921568393707275)
(X_357  0.23823529481887817)
(X_358  0.2343137264251709)
(X_359  0.25784313678741455)
(X_360  0.22254902124404907)
(X_361  0.11862745881080627)
(X_362  0.11862745881080627)
(X_363  0.114705890417099)
(X_364  0.3480392396450043)
(X_365  0.29901960492134094)
(X_366  0.41470590233802795)
(X_367  0.3754902184009552)
(X_368  0.3480392396450043)
(X_369  0.387254923582077)
(X_370  0.4539215862751007)
(X_371  0.4009803831577301)
(X_372  0.3539215624332428)
(X_373  0.3225490152835846)
(X_374  0.387254923582077)
(X_375  0.35196080803871155)
(X_376  0.2245098203420639)
(X_377  0.2245098203420639)
(X_378  0.18921568989753723)
(X_379  0.10686275362968445)
(X_380  0.15000000596046448)
(X_381  0.24607843160629272)
(X_382  0.21078431606292725)
(X_383  0.1715686321258545)
(X_384  0.07549020648002625)
(X_385  0.11078432202339172)
(X_386  0.22254902124404907)
(X_387  0.19901961088180542)
(X_388  0.18333333730697632)
(X_389  0.18333333730697632)
(X_390  0.07941177487373352)
(X_391  0.07549020648002625)
(X_392  0.2656862735748291)
(X_393  0.2774509787559509)
(X_394  0.18137255311012268)
(X_395  0.2696078419685364)
(X_396  0.2617647051811218)
(X_397  0.27352941036224365)
(X_398  0.2970588207244873)
(X_399  0.31666669249534607)
(X_400  0.2813725471496582)
(X_401  0.2696078419685364)
(X_402  0.22254902124404907)
(X_403  0.20686274766921997)
(X_404  0.2343137264251709)
(X_405  0.22647058963775635)
(X_406  0.09117648005485535)
(X_407  0.0833333432674408)
(X_408  0.0833333432674408)
(X_409  0.114705890417099)
(X_410  0.2186274528503418)
(X_411  0.17941176891326904)
(X_412  0.14803922176361084)
(X_413  0.04019607976078987)
(X_414  0.04411764815449715)
(X_415  0.036274511367082596)
(X_416  0.06372549384832382)
(X_417  0.06372549384832382)
(X_418  0.05980392172932625)
(X_419  0.05980392172932625)
(X_420  0.23039215803146362)
(X_421  0.10294118523597717)
(X_422  0.09509804844856262)
(X_423  0.114705890417099)
(X_424  0.13823530077934265)
(X_425  0.1303921639919281)
(X_426  0.10294118523597717)
(X_427  0.0833333432674408)
(X_428  0.11078432202339172)
(X_429  0.1303921639919281)
(X_430  0.09117648005485535)
(X_431  0.09117648005485535)
(X_432  0.1303921639919281)
(X_433  0.0833333432674408)
(X_434  0.020588237792253494)
(X_435  0.04803921654820442)
(X_436  0.15980392694473267)
(X_437  0.1558823585510254)
(X_438  0.1558823585510254)
(X_439  0.1558823585510254)
(X_440  0.15196079015731812)
(X_441  0.15196079015731812)
(X_442  0.06372549384832382)
(X_443  0.0833333432674408)
(X_444  0.0519607849419117)
(X_445  0.0519607849419117)
(X_446  0.0519607849419117)
(X_447  0.14803922176361084)
(X_448  0.17549020051956177)
(X_449  0.17549020051956177)
(X_450  0.17549020051956177)
(X_451  0.17549020051956177)
(X_452  0.07549020648002625)
(X_453  0.07549020648002625)
(X_454  0.07549020648002625)
(X_455  0.17549020051956177)
(X_456  0.06372549384832382)
(X_457  0.15980392694473267)
(X_458  0.15980392694473267)
(X_459  0.1558823585510254)
(X_460  0.15196079015731812)
(X_461  0.14803922176361084)
(X_462  0.14411765336990356)
(X_463  0.14411765336990356)
(X_464  0.04411764815449715)
(X_465  0.04411764815449715)
(X_466  0.14411765336990356)
(X_467  0.14411765336990356)
(X_468  0.14411765336990356)
(X_469  0.14411765336990356)
(X_470  0.14411765336990356)
(X_471  0.14411765336990356)
(X_472  0.14411765336990356)
(X_473  0.14411765336990356)
(X_474  0.14411765336990356)
(X_475  0.14411765336990356)
(X_476  0.0519607849419117)
(X_477  0.0519607849419117)
(X_478  0.15196079015731812)
(X_479  0.15196079015731812)
(X_480  0.0519607849419117)
(X_481  0.0519607849419117)
(X_482  0.0519607849419117)
(X_483  0.0519607849419117)
(X_484  0.15196079015731812)
(X_485  0.15196079015731812)
(X_486  0.14803922176361084)
(X_487  0.04803921654820442)
(X_488  0.04411764815449715)
(X_489  0.04019607976078987)
(X_490  0.036274511367082596)
(X_491  0.036274511367082596)
(X_492  0.036274511367082596)
(X_493  0.036274511367082596)
(X_494  0.136274516582489)
(X_495  0.136274516582489)
(X_496  0.136274516582489)
(X_497  0.136274516582489)
(X_498  0.136274516582489)
(X_499  0.036274511367082596)
(X_500  0.1401960849761963)
(X_501  0.04019607976078987)
(X_502  0.04019607976078987)
(X_503  0.04019607976078987)
(X_504  0.036274511367082596)
(X_505  0.036274511367082596)
(X_506  0.036274511367082596)
(X_507  0.036274511367082596)
(X_508  0.036274511367082596)
(X_509  0.036274511367082596)
(X_510  0.036274511367082596)
(X_511  0.036274511367082596)
(X_512  0.04411764815449715)
(X_513  0.04019607976078987)
(X_514  0.1401960849761963)
(X_515  0.136274516582489)
(X_516  0.03235294297337532)
(X_517  0.03235294297337532)
(X_518  0.028431374579668045)
(X_519  0.028431374579668045)
(X_520  0.028431374579668045)
(X_521  0.028431374579668045)
(X_522  0.028431374579668045)
(X_523  0.028431374579668045)
(X_524  0.028431374579668045)
(X_525  0.12843137979507446)
(X_526  0.12843137979507446)
(X_527  0.12843137979507446)
(X_528  0.028431374579668045)
(X_529  0.028431374579668045)
(X_530  0.028431374579668045)
(X_531  0.028431374579668045)
(X_532  0.136274516582489)
(X_533  0.136274516582489)
(X_534  0.136274516582489)
(X_535  0.136274516582489)
(X_536  0.136274516582489)
(X_537  0.136274516582489)
(X_538  0.036274511367082596)
(X_539  0.036274511367082596)
(X_540  0.036274511367082596)
(X_541  0.03235294297337532)
(X_542  0.13235294818878174)
(X_543  0.03235294297337532)
(X_544  0.028431374579668045)
(X_545  0.028431374579668045)
(X_546  0.02450980618596077)
(X_547  0.02450980618596077)
(X_548  0.12450980395078659)
(X_549  0.02450980618596077)
(X_550  0.02450980618596077)
(X_551  0.02450980618596077)
(X_552  0.12450980395078659)
(X_553  0.12450980395078659)
(X_554  0.12450980395078659)
(X_555  0.02450980618596077)
(X_556  0.12058823555707932)
(X_557  0.020588237792253494)
(X_558  0.12058823555707932)
(X_559  0.12058823555707932)
(X_560  0.12843137979507446)
(X_561  0.12843137979507446)
(X_562  0.12843137979507446)
(X_563  0.12843137979507446)
(X_564  0.12843137979507446)
(X_565  0.12843137979507446)
(X_566  0.028431374579668045)
(X_567  0.028431374579668045)
(X_568  0.028431374579668045)
(X_569  0.028431374579668045)
(X_570  0.12843137979507446)
(X_571  0.028431374579668045)
(X_572  0.028431374579668045)
(X_573  0.02450980618596077)
(X_574  0.12450980395078659)
(X_575  0.02450980618596077)
(X_576  0.02450980618596077)
(X_577  0.02450980618596077)
(X_578  0.02450980618596077)
(X_579  0.02450980618596077)
(X_580  0.02450980618596077)
(X_581  0.12450980395078659)
(X_582  0.12450980395078659)
(X_583  0.12450980395078659)
(X_584  0.11274509876966476)
(X_585  0.012745101936161518)
(X_586  0.11274509876966476)
(X_587  0.012745101936161518)
(X_588  0.11666666716337204)
(X_589  0.01666666939854622)
(X_590  0.01666666939854622)
(X_591  0.01666666939854622)
(X_592  0.01666666939854622)
(X_593  0.11666666716337204)
(X_594  0.11666666716337204)
(X_595  0.11666666716337204)
(X_596  0.020588237792253494)
(X_597  0.020588237792253494)
(X_598  0.020588237792253494)
(X_599  0.020588237792253494)
(X_600  0.020588237792253494)
(X_601  0.020588237792253494)
(X_602  0.020588237792253494)
(X_603  0.020588237792253494)
(X_604  0.12058823555707932)
(X_605  0.12058823555707932)
(X_606  0.12058823555707932)
(X_607  0.12058823555707932)
(X_608  0.12058823555707932)
(X_609  0.12058823555707932)
(X_610  0.12058823555707932)
(X_611  0.020588237792253494)
(X_612  0.008823529817163944)
(X_613  0.008823529817163944)
(X_614  0.10882353037595749)
(X_615  0.10882353037595749)
(X_616  0.10490196198225021)
(X_617  0.10490196198225021)
(X_618  0.10490196198225021)
(X_619  0.004901961423456669)
(X_620  0.004901961423456669)
(X_621  0.10490196198225021)
(X_622  0.004901961423456669)
(X_623  0.10490196198225021)
(X_624  0.012745101936161518)
(X_625  0.012745101936161518)
(X_626  0.012745101936161518)
(X_627  0.012745101936161518)
(X_628  0.012745101936161518)
(X_629  0.012745101936161518)
(X_630  0.012745101936161518)
(X_631  0.012745101936161518)
(X_632  0.012745101936161518)
(X_633  0.012745101936161518)
(X_634  0.012745101936161518)
(X_635  0.11274509876966476)
(X_636  0.11274509876966476)
(X_637  0.11274509876966476)
(X_638  0.11274509876966476)
(X_639  0.012745101936161518)
(X_640  0.004901961423456669)
(X_641  0.10490196198225021)
(X_642  0.10490196198225021)
(X_643  0.10490196198225021)
(X_644  0.10882353037595749)
(X_645  0.008823529817163944)
(X_646  0.10882353037595749)
(X_647  0.10882353037595749)
(X_648  0.10882353037595749)
(X_649  0.008823529817163944)
(X_650  0.008823529817163944)
(X_651  0.008823529817163944)
(X_652  0.0009803927969187498)
(X_653  0.0009803927969187498)
(X_654  0.004901961423456669)
(X_655  0.004901961423456669)
(X_656  0.004901961423456669)
(X_657  0.004901961423456669)
(X_658  0.004901961423456669)
(X_659  0.004901961423456669)
(X_660  0.10490196198225021)
(X_661  0.10490196198225021)
(X_662  0.10490196198225021)
(X_663  0.10490196198225021)
(X_664  0.10490196198225021)
(X_665  0.10490196198225021)
(X_666  0.10490196198225021)
(X_667  0.10490196198225021)
(X_668  0.004901961423456669)
(X_669  0.004901961423456669)
(X_670  0.10490196198225021)
(X_671  0.004901961423456669)
(X_672  0.11274509876966476)
(X_673  0.012745101936161518)
(X_674  0.008823529817163944)
(X_675  0.004901961423456669)
(X_676  0.004901961423456669)
(X_677  0.10882353037595749)
(X_678  0.11274509876966476)
(X_679  0.11274509876966476)
(X_680  0.008823529817163944)
(X_681  0.008823529817163944)
(X_682  0.004901961423456669)
(X_683  0.10098039358854294)
(X_684  0.10098039358854294)
(X_685  0.004901961423456669)
(X_686  0.008823529817163944)
(X_687  0.008823529817163944)
(X_688  0.1401960849761963)
(X_689  0.004901961423456669)
(X_690  -0.018627449870109558)
(X_691  -0.0029411755967885256)
(X_692  0.12058823555707932)
(X_693  0.12058823555707932)
(X_694  0.012745101936161518)
(X_695  0.008823529817163944)
(X_696  0.10882353037595749)
(X_697  0.10098039358854294)
(X_698  0.09313725680112839)
(X_699  0.09705882519483566)
(X_700  0.10882353037595749)
(X_701  0.10882353037595749)
(X_702  0.004901961423456669)
(X_703  0.10490196198225021)
(X_704  0.004901961423456669)
(X_705  0.004901961423456669)
(X_706  0.008823529817163944)
(X_707  0.008823529817163944)
(X_708  0.004901961423456669)
(X_709  0.004901961423456669)
(X_710  0.10098039358854294)
(X_711  0.10098039358854294)
(X_712  0.10098039358854294)
(X_713  0.0009803927969187498)
(X_714  0.004901961423456669)
(X_715  0.004901961423456669)
(X_716  0.09705882519483566)
(X_717  -0.018627449870109558)
(X_718  -0.018627449870109558)
(X_719  0.0009803927969187498)
(X_720  0.10490196198225021)
(X_721  0.08921568840742111)
(X_722  0.06568627804517746)
(X_723  0.05784313753247261)
(X_724  0.10882353037595749)
(X_725  0.10490196198225021)
(X_726  0.10098039358854294)
(X_727  0.09705882519483566)
(X_728  0.10490196198225021)
(X_729  0.0009803927969187498)
(X_730  0.0009803927969187498)
(X_731  0.09705882519483566)
(X_732  0.09705882519483566)
(X_733  0.10098039358854294)
(X_734  0.10098039358854294)
(X_735  0.10490196198225021)
(X_736  0.10098039358854294)
(X_737  0.09705882519483566)
(X_738  -0.0029411755967885256)
(X_739  -0.006862743757665157)
(X_740  -0.006862743757665157)
(X_741  0.09705882519483566)
(X_742  0.09705882519483566)
(X_743  0.10098039358854294)
(X_744  -0.010784312151372433)
(X_745  -0.014705880545079708)
(X_746  -0.0029411755967885256)
(X_747  0.012745101936161518)
(X_748  0.01666666939854622)
(X_749  0.012745101936161518)
(X_750  0.02450980618596077)
(X_751  0.04411764815449715)
(X_752  0.053921569138765335)
(X_753  0.09313725680112839)
(X_754  0.136274516582489)
(X_755  0.05980392172932625)
(X_756  0.10098039358854294)
(X_757  0.09705882519483566)
(X_758  -0.0029411755967885256)
(X_759  -0.006862743757665157)
(X_760  -0.006862743757665157)
(X_761  -0.0029411755967885256)
(X_762  -0.0029411755967885256)
(X_763  0.0009803927969187498)
(X_764  0.09705882519483566)
(X_765  0.09313725680112839)
(X_766  -0.006862743757665157)
(X_767  -0.010784312151372433)
(X_768  -0.010784312151372433)
(X_769  -0.006862743757665157)
(X_770  -0.006862743757665157)
(X_771  -0.0029411755967885256)
(X_772  0.004901961423456669)
(X_773  -0.0029411755967885256)
(X_774  -0.0029411755967885256)
(X_775  0.004901961423456669)
(X_776  0.12450980395078659)
(X_777  0.1715686321258545)
(X_778  0.15392157435417175)
(X_779  0.22843138873577118)
(X_780  0.4362744987010956)
(X_781  0.5303921699523926)
(X_782  0.6480392217636108)
(X_783  0.7264705896377563)
(Y_0 -24.940807342529297)
(Y_1 36.50503921508789)
(Y_2 -14.96483325958252)
(Y_3 3.348421096801758))