((X_0  0.21666668355464935)
(X_1  0.22058825194835663)
(X_2  0.22843138873577118)
(X_3  0.33627453446388245)
(X_4  0.24803923070430756)
(X_5  0.2558823525905609)
(X_6  0.3637255132198334)
(X_7  0.36764708161354065)
(X_8  0.3637255132198334)
(X_9  0.3715686500072479)
(X_10  0.38333335518836975)
(X_11  0.39901962876319885)
(X_12  0.41470590233802795)
(X_13  0.32647058367729187)
(X_14  0.3343137204647064)
(X_15  0.3382352888584137)
(X_16  0.33039215207099915)
(X_17  0.34215685725212097)
(X_18  0.3539215624332428)
(X_19  0.3696078360080719)
(X_20  0.37745097279548645)
(X_21  0.37745097279548645)
(X_22  0.47745099663734436)
(X_23  0.4735294282436371)
(X_24  0.4009803831577301)
(X_25  0.4009803831577301)
(X_26  0.5049019455909729)
(X_27  0.5088235139846802)
(X_28  0.03235294297337532)
(X_29  0.03235294297337532)
(X_30  0.036274511367082596)
(X_31  0.1401960849761963)
(X_32  0.1401960849761963)
(X_33  0.14411765336990356)
(X_34  0.14803922176361084)
(X_35  0.14803922176361084)
(X_36  0.01666666939854622)
(X_37  0.01666666939854622)
(X_38  0.12450980395078659)
(X_39  0.12843137979507446)
(X_40  0.13235294818878174)
(X_41  0.13235294818878174)
(X_42  0.13235294818878174)
(X_43  0.12843137979507446)
(X_44  0.12450980395078659)
(X_45  0.028431374579668045)
(X_46  0.036274511367082596)
(X_47  0.036274511367082596)
(X_48  0.136274516582489)
(X_49  0.12843137979507446)
(X_50  0.12058823555707932)
(X_51  0.11274509876966476)
(X_52  0.11274509876966476)
(X_53  0.11274509876966476)
(X_54  0.11666666716337204)
(X_55  0.12058823555707932)
(X_56  0.14803922176361084)
(X_57  0.14411765336990356)
(X_58  0.04019607976078987)
(X_59  0.1401960849761963)
(X_60  0.13235294818878174)
(X_61  0.03235294297337532)
(X_62  0.028431374579668045)
(X_63  0.02450980618596077)
(X_64  0.1558823585510254)
(X_65  0.1558823585510254)
(X_66  0.1558823585510254)
(X_67  0.1558823585510254)
(X_68  0.15196079015731812)
(X_69  0.14803922176361084)
(X_70  0.14411765336990356)
(X_71  0.1401960849761963)
(X_72  0.1558823585510254)
(X_73  0.05588235333561897)
(X_74  0.05588235333561897)
(X_75  0.05588235333561897)
(X_76  0.04803921654820442)
(X_77  0.036274511367082596)
(X_78  0.12450980395078659)
(X_79  0.12058823555707932)
(X_80  0.13235294818878174)
(X_81  0.13235294818878174)
(X_82  0.136274516582489)
(X_83  0.136274516582489)
(X_84  0.0833333432674408)
(X_85  0.07941177487373352)
(X_86  0.07549020648002625)
(X_87  0.0676470622420311)
(X_88  0.06372549384832382)
(X_89  0.05588235333561897)
(X_90  0.15196079015731812)
(X_91  0.14803922176361084)
(X_92  -0.0029411755967885256)
(X_93  0.10098039358854294)
(X_94  0.10490196198225021)
(X_95  0.10490196198225021)
(X_96  0.10882353037595749)
(X_97  0.10882353037595749)
(X_98  0.10490196198225021)
(X_99  0.004901961423456669)
(X_100  0.020588237792253494)
(X_101  0.020588237792253494)
(X_102  0.02450980618596077)
(X_103  0.02450980618596077)
(X_104  0.02450980618596077)
(X_105  0.020588237792253494)
(X_106  0.01666666939854622)
(X_107  0.11274509876966476)
(X_108  0.03235294297337532)
(X_109  0.03235294297337532)
(X_110  0.13235294818878174)
(X_111  0.036274511367082596)
(X_112  0.13235294818878174)
(X_113  0.12843137979507446)
(X_114  0.028431374579668045)
(X_115  0.12450980395078659)
(X_116  0.12058823555707932)
(X_117  0.11666666716337204)
(X_118  0.01666666939854622)
(X_119  0.012745101936161518)
(X_120  0.01666666939854622)
(X_121  0.11666666716337204)
(X_122  0.12450980395078659)
(X_123  0.12843137979507446)
(X_124  0.13235294818878174)
(X_125  0.03235294297337532)
(X_126  0.03235294297337532)
(X_127  0.03235294297337532)
(X_128  0.02450980618596077)
(X_129  0.028431374579668045)
(X_130  0.13235294818878174)
(X_131  0.13235294818878174)
(X_132  0.136274516582489)
(X_133  0.036274511367082596)
(X_134  0.036274511367082596)
(X_135  0.036274511367082596)
(X_136  0.13235294818878174)
(X_137  0.13235294818878174)
(X_138  0.13235294818878174)
(X_139  0.13235294818878174)
(X_140  0.11666666716337204)
(X_141  0.11666666716337204)
(X_142  0.01666666939854622)
(X_143  0.11666666716337204)
(X_144  0.11666666716337204)
(X_145  0.11666666716337204)
(X_146  0.01666666939854622)
(X_147  0.01666666939854622)
(X_148  0.11666666716337204)
(X_149  0.11666666716337204)
(X_150  0.11666666716337204)
(X_151  0.11666666716337204)
(X_152  0.11666666716337204)
(X_153  0.11274509876966476)
(X_154  0.008823529817163944)
(X_155  0.10882353037595749)
(X_156  0.004901961423456669)
(X_157  0.10490196198225021)
(X_158  0.10490196198225021)
(X_159  0.10490196198225021)
(X_160  0.10490196198225021)
(X_161  0.10098039358854294)
(X_162  0.10098039358854294)
(X_163  0.10098039358854294)
(X_164  0.11274509876966476)
(X_165  0.11274509876966476)
(X_166  0.11274509876966476)
(X_167  0.11274509876966476)
(X_168  0.004901961423456669)
(X_169  0.004901961423456669)
(X_170  0.004901961423456669)
(X_171  0.008823529817163944)
(X_172  0.008823529817163944)
(X_173  0.008823529817163944)
(X_174  0.008823529817163944)
(X_175  0.008823529817163944)
(X_176  0.012745101936161518)
(X_177  0.012745101936161518)
(X_178  0.012745101936161518)
(X_179  0.11274509876966476)
(X_180  0.10882353037595749)
(X_181  0.10490196198225021)
(X_182  0.10098039358854294)
(X_183  0.09705882519483566)
(X_184  0.008823529817163944)
(X_185  0.004901961423456669)
(X_186  0.004901961423456669)
(X_187  0.0009803927969187498)
(X_188  0.0009803927969187498)
(X_189  0.0009803927969187498)
(X_190  0.0009803927969187498)
(X_191  0.0009803927969187498)
(X_192  0.020588237792253494)
(X_193  0.12058823555707932)
(X_194  0.12058823555707932)
(X_195  0.12058823555707932)
(X_196  0.11666666716337204)
(X_197  0.11666666716337204)
(X_198  0.11666666716337204)
(X_199  0.11666666716337204)
(X_200  0.01666666939854622)
(X_201  0.01666666939854622)
(X_202  0.01666666939854622)
(X_203  0.01666666939854622)
(X_204  0.008823529817163944)
(X_205  0.012745101936161518)
(X_206  0.11666666716337204)
(X_207  0.01666666939854622)
(X_208  0.01666666939854622)
(X_209  0.012745101936161518)
(X_210  0.012745101936161518)
(X_211  0.10882353037595749)
(X_212  0.10882353037595749)
(X_213  0.10882353037595749)
(X_214  0.10882353037595749)
(X_215  0.10882353037595749)
(X_216  0.11274509876966476)
(X_217  0.11666666716337204)
(X_218  0.12058823555707932)
(X_219  0.02450980618596077)
(X_220  0.10098039358854294)
(X_221  0.10098039358854294)
(X_222  0.0009803927969187498)
(X_223  0.0009803927969187498)
(X_224  0.04411764815449715)
(X_225  0.01666666939854622)
(X_226  -0.006862743757665157)
(X_227  0.09313725680112839)
(X_228  0.012745101936161518)
(X_229  0.02450980618596077)
(X_230  0.008823529817163944)
(X_231  -0.010784312151372433)
(X_232  0.10098039358854294)
(X_233  0.10882353037595749)
(X_234  0.11274509876966476)
(X_235  0.11274509876966476)
(X_236  0.10882353037595749)
(X_237  0.10490196198225021)
(X_238  0.10882353037595749)
(X_239  0.11666666716337204)
(X_240  0.09705882519483566)
(X_241  0.11274509876966476)
(X_242  0.028431374579668045)
(X_243  0.136274516582489)
(X_244  0.04019607976078987)
(X_245  0.04803921654820442)
(X_246  0.06372549384832382)
(X_247  0.07941177487373352)
(X_248  0.09509804844856262)
(X_249  0.11078432202339172)
(X_250  0.13823530077934265)
(X_251  0.2656862735748291)
(X_252  0.4107843339443207)
(X_253  0.3754902184009552)
(X_254  0.22843138873577118)
(X_255  0.2852941155433655)
(X_256  0.25)
(X_257  0.21078431606292725)
(X_258  0.1715686321258545)
(X_259  0.04019607976078987)
(X_260  0.01666666939854622)
(X_261  0.12058823555707932)
(X_262  0.12450980395078659)
(X_263  0.12450980395078659)
(X_264  0.11274509876966476)
(X_265  0.10882353037595749)
(X_266  0.10882353037595749)
(X_267  0.11274509876966476)
(X_268  0.0676470622420311)
(X_269  0.10686275362968445)
(X_270  0.16568627953529358)
(X_271  0.22058825194835663)
(X_272  0.2558823525905609)
(X_273  0.28333333134651184)
(X_274  0.3029411733150482)
(X_275  0.31470587849617004)
(X_276  0.32647058367729187)
(X_277  0.3382352888584137)
(X_278  0.4539215862751007)
(X_279  0.46568629145622253)
(X_280  0.29509803652763367)
(X_281  0.2911764681339264)
(X_282  0.2911764681339264)
(X_283  0.2872548997402191)
(X_284  0.28333333134651184)
(X_285  0.2754901945590973)
(X_286  0.3715686500072479)
(X_287  0.26372548937797546)
(X_288  0.3127451241016388)
(X_289  0.2656862735748291)
(X_290  0.19509804248809814)
(X_291  0.136274516582489)
(X_292  0.12843137979507446)
(X_293  0.1715686321258545)
(X_294  0.14215686917304993)
(X_295  0.19705882668495178)
(X_296  0.25196078419685364)
(X_297  0.36764708161354065)
(X_298  0.3911764919757843)
(X_299  0.3029411733150482)
(X_300  0.29509803652763367)
(X_301  0.27941176295280457)
(X_302  0.3637255132198334)
(X_303  0.2598039209842682)
(X_304  0.28333333134651184)
(X_305  0.2872548997402191)
(X_306  0.2911764681339264)
(X_307  0.2911764681339264)
(X_308  0.2088235467672348)
(X_309  0.2245098203420639)
(X_310  0.240196093916893)
(X_311  0.24411766231060028)
(X_312  0.240196093916893)
(X_313  0.23627452552318573)
(X_314  0.240196093916893)
(X_315  0.3480392396450043)
(X_316  0.32058826088905334)
(X_317  0.21274511516094208)
(X_318  0.19705882668495178)
(X_319  0.1774509847164154)
(X_320  0.2696078419685364)
(X_321  0.2774509787559509)
(X_322  0.29313725233078003)
(X_323  0.2088235467672348)
(X_324  0.26764705777168274)
(X_325  0.3637255132198334)
(X_326  0.3558823764324188)
(X_327  0.24803923070430756)
(X_328  0.240196093916893)
(X_329  0.23627452552318573)
(X_330  0.240196093916893)
(X_331  0.240196093916893)
(X_332  0.33627453446388245)
(X_333  0.33627453446388245)
(X_334  0.3401961028575897)
(X_335  0.344117671251297)
(X_336  0.20098040997982025)
(X_337  0.3127451241016388)
(X_338  0.22058825194835663)
(X_339  0.20490197837352753)
(X_340  0.2774509787559509)
(X_341  0.25784313678741455)
(X_342  0.25)
(X_343  0.15392157435417175)
(X_344  0.2774509787559509)
(X_345  0.2813725471496582)
(X_346  0.2813725471496582)
(X_347  0.27352941036224365)
(X_348  0.2696078419685364)
(X_349  0.2696078419685364)
(X_350  0.2813725471496582)
(X_351  0.18921568989753723)
(X_352  0.18529412150382996)
(X_353  0.2813725471496582)
(X_354  0.2813725471496582)
(X_355  0.2813725471496582)
(X_356  0.1931372582912445)
(X_357  0.20098040997982025)
(X_358  0.21274511516094208)
(X_359  0.21666668355464935)
(X_360  0.33235296607017517)
(X_361  0.33235296607017517)
(X_362  0.23235295712947845)
(X_363  0.33627453446388245)
(X_364  0.42450979351997375)
(X_365  0.44019606709480286)
(X_366  0.4480392038822174)
(X_367  0.5480391979217529)
(X_368  0.5401960611343384)
(X_369  0.5362744927406311)
(X_370  0.5441176295280457)
(X_371  0.551960825920105)
(X_372  0.4480392038822174)
(X_373  0.4205882251262665)
(X_374  0.47745099663734436)
(X_375  0.4421568810939789)
(X_376  0.43431374430656433)
(X_377  0.4696078598499298)
(X_378  0.5245097875595093)
(X_379  0.5637255311012268)
(X_380  0.5990196466445923)
(X_381  0.5911765098571777)
(X_382  0.48725491762161255)
(X_383  0.5754902362823486)
(X_384  0.5598039627075195)
(X_385  0.4323529303073883)
(X_386  0.4009803831577301)
(X_387  0.37745097279548645)
(X_388  0.5166666507720947)
(X_389  0.5166666507720947)
(X_390  0.4166666567325592)
(X_391  0.4205882251262665)
(X_392  0.36176469922065735)
(X_393  0.3656862676143646)
(X_394  0.36176469922065735)
(X_395  0.3578431308269501)
(X_396  0.3499999940395355)
(X_397  0.34607842564582825)
(X_398  0.45000001788139343)
(X_399  0.4539215862751007)
(X_400  0.3029411733150482)
(X_401  0.41862747073173523)
(X_402  0.3382352888584137)
(X_403  0.34215685725212097)
(X_404  0.3382352888584137)
(X_405  0.3225490152835846)
(X_406  0.41470590233802795)
(X_407  0.4107843339443207)
(X_408  0.2598039209842682)
(X_409  0.2558823525905609)
(X_410  0.25196078419685364)
(X_411  0.25196078419685364)
(X_412  0.24803923070430756)
(X_413  0.33627453446388245)
(X_414  0.3088235557079315)
(X_415  0.28921568393707275)
(X_416  0.18137255311012268)
(X_417  0.18529412150382996)
(X_418  0.2852941155433655)
(X_419  0.2852941155433655)
(X_420  0.11078432202339172)
(X_421  0.21078431606292725)
(X_422  0.20686274766921997)
(X_423  0.2029411792755127)
(X_424  0.21078431606292725)
(X_425  0.2186274528503418)
(X_426  0.22647058963775635)
(X_427  0.23039215803146362)
(X_428  0.1303921639919281)
(X_429  0.23039215803146362)
(X_430  0.23039215803146362)
(X_431  0.12254902720451355)
(X_432  0.21078431606292725)
(X_433  0.20686274766921997)
(X_434  0.21078431606292725)
(X_435  0.21470588445663452)
(X_436  0.12254902720451355)
(X_437  0.10686275362968445)
(X_438  0.08725491166114807)
(X_439  0.0833333432674408)
(X_440  0.19117647409439087)
(X_441  0.2029411792755127)
(X_442  0.10294118523597717)
(X_443  0.0990196168422699)
(X_444  0.09509804844856262)
(X_445  0.19901961088180542)
(X_446  0.20686274766921997)
(X_447  0.21078431606292725)
(X_448  0.04803921654820442)
(X_449  0.15196079015731812)
(X_450  0.15980392694473267)
(X_451  0.16764706373214722)
(X_452  0.1715686321258545)
(X_453  0.07549020648002625)
(X_454  0.17941176891326904)
(X_455  0.07941177487373352)
(X_456  0.08725491166114807)
(X_457  0.08725491166114807)
(X_458  0.08725491166114807)
(X_459  0.0833333432674408)
(X_460  0.0833333432674408)
(X_461  0.17941176891326904)
(X_462  0.17941176891326904)
(X_463  0.17941176891326904)
(X_464  0.1715686321258545)
(X_465  0.16764706373214722)
(X_466  0.06372549384832382)
(X_467  0.05980392172932625)
(X_468  0.05980392172932625)
(X_469  0.05980392172932625)
(X_470  0.05980392172932625)
(X_471  0.05980392172932625)
(X_472  0.1715686321258545)
(X_473  0.1715686321258545)
(X_474  0.16764706373214722)
(X_475  0.16764706373214722)
(X_476  0.036274511367082596)
(X_477  0.04019607976078987)
(X_478  0.04411764815449715)
(X_479  0.0519607849419117)
(X_480  0.05588235333561897)
(X_481  0.05980392172932625)
(X_482  0.05980392172932625)
(X_483  0.05980392172932625)
(X_484  0.05588235333561897)
(X_485  0.05588235333561897)
(X_486  0.0519607849419117)
(X_487  0.0519607849419117)
(X_488  0.14803922176361084)
(X_489  0.14803922176361084)
(X_490  0.14803922176361084)
(X_491  0.14411765336990356)
(X_492  0.15196079015731812)
(X_493  0.04803921654820442)
(X_494  0.04411764815449715)
(X_495  0.04019607976078987)
(X_496  0.036274511367082596)
(X_497  0.1401960849761963)
(X_498  0.1401960849761963)
(X_499  0.1401960849761963)
(X_500  0.14803922176361084)
(X_501  0.14803922176361084)
(X_502  0.04803921654820442)
(X_503  0.14803922176361084)
(X_504  0.020588237792253494)
(X_505  0.12450980395078659)
(X_506  0.12843137979507446)
(X_507  0.13235294818878174)
(X_508  0.13235294818878174)
(X_509  0.03235294297337532)
(X_510  0.13235294818878174)
(X_511  0.13235294818878174)
(X_512  0.02450980618596077)
(X_513  0.12450980395078659)
(X_514  0.12058823555707932)
(X_515  0.12058823555707932)
(X_516  0.12058823555707932)
(X_517  0.01666666939854622)
(X_518  0.11666666716337204)
(X_519  0.11666666716337204)
(X_520  0.12450980395078659)
(X_521  0.12058823555707932)
(X_522  0.11666666716337204)
(X_523  0.01666666939854622)
(X_524  0.012745101936161518)
(X_525  0.01666666939854622)
(X_526  0.01666666939854622)
(X_527  0.01666666939854622)
(X_528  0.02450980618596077)
(X_529  0.12450980395078659)
(X_530  0.02450980618596077)
(X_531  0.020588237792253494)
(X_532  0.008823529817163944)
(X_533  0.11274509876966476)
(X_534  0.012745101936161518)
(X_535  0.01666666939854622)
(X_536  0.01666666939854622)
(X_537  0.11274509876966476)
(X_538  0.10882353037595749)
(X_539  0.10882353037595749)
(X_540  0.11274509876966476)
(X_541  0.11274509876966476)
(X_542  0.012745101936161518)
(X_543  0.008823529817163944)
(X_544  0.008823529817163944)
(X_545  0.008823529817163944)
(X_546  0.008823529817163944)
(X_547  0.10882353037595749)
(X_548  0.10882353037595749)
(X_549  0.10882353037595749)
(X_550  0.10490196198225021)
(X_551  0.0009803927969187498)
(X_552  0.0009803927969187498)
(X_553  0.0009803927969187498)
(X_554  0.004901961423456669)
(X_555  0.008823529817163944)
(X_556  0.008823529817163944)
(X_557  0.008823529817163944)
(X_558  0.008823529817163944)
(X_559  0.004901961423456669)
(X_560  0.004901961423456669)
(X_561  0.10490196198225021)
(X_562  0.004901961423456669)
(X_563  0.008823529817163944)
(X_564  0.004901961423456669)
(X_565  0.0009803927969187498)
(X_566  -0.0029411755967885256)
(X_567  -0.0029411755967885256)
(X_568  0.10490196198225021)
(X_569  0.004901961423456669)
(X_570  0.004901961423456669)
(X_571  0.004901961423456669)
(X_572  0.10490196198225021)
(X_573  0.004901961423456669)
(X_574  0.004901961423456669)
(X_575  0.10490196198225021)
(X_576  0.004901961423456669)
(X_577  0.10490196198225021)
(X_578  0.10098039358854294)
(X_579  0.10098039358854294)
(X_580  0.0009803927969187498)
(X_581  0.0009803927969187498)
(X_582  0.004901961423456669)
(X_583  0.008823529817163944)
(X_584  0.004901961423456669)
(X_585  0.10490196198225021)
(X_586  0.004901961423456669)
(X_587  0.10098039358854294)
(X_588  0.09705882519483566)
(X_589  0.09705882519483566)
(X_590  0.0009803927969187498)
(X_591  0.0009803927969187498)
(X_592  0.0009803927969187498)
(X_593  -0.0029411755967885256)
(X_594  -0.006862743757665157)
(X_595  -0.006862743757665157)
(X_596  -0.010784312151372433)
(X_597  -0.010784312151372433)
(X_598  -0.006862743757665157)
(X_599  0.09313725680112839)
(X_600  0.09313725680112839)
(X_601  0.09313725680112839)
(X_602  0.09705882519483566)
(X_603  0.09705882519483566)
(X_604  0.0009803927969187498)
(X_605  -0.0029411755967885256)
(X_606  0.09705882519483566)
(X_607  0.09705882519483566)
(X_608  0.09705882519483566)
(X_609  0.0009803927969187498)
(X_610  0.004901961423456669)
(X_611  0.004901961423456669)
(X_612  0.10098039358854294)
(X_613  0.10098039358854294)
(X_614  0.10098039358854294)
(X_615  0.09705882519483566)
(X_616  0.08529412001371384)
(X_617  0.08921568840742111)
(X_618  0.08921568840742111)
(X_619  0.09313725680112839)
(X_620  -0.006862743757665157)
(X_621  -0.006862743757665157)
(X_622  -0.010784312151372433)
(X_623  -0.010784312151372433)
(X_624  0.08137255162000656)
(X_625  0.08137255162000656)
(X_626  0.08137255162000656)
(X_627  0.08529412001371384)
(X_628  -0.014705880545079708)
(X_629  0.08921568840742111)
(X_630  0.08921568840742111)
(X_631  0.08921568840742111)
(X_632  -0.010784312151372433)
(X_633  -0.010784312151372433)
(X_634  0.08529412001371384)
(X_635  0.08529412001371384)
(X_636  -0.010784312151372433)
(X_637  0.09313725680112839)
(X_638  0.09705882519483566)
(X_639  0.09705882519483566)
(X_640  0.09313725680112839)
(X_641  0.08921568840742111)
(X_642  0.08921568840742111)
(X_643  0.08921568840742111)
(X_644  0.07745098322629929)
(X_645  0.08137255162000656)
(X_646  -0.014705880545079708)
(X_647  -0.014705880545079708)
(X_648  -0.010784312151372433)
(X_649  -0.010784312151372433)
(X_650  -0.010784312151372433)
(X_651  0.08529412001371384)
(X_652  -0.018627449870109558)
(X_653  -0.018627449870109558)
(X_654  -0.018627449870109558)
(X_655  -0.014705880545079708)
(X_656  0.08529412001371384)
(X_657  0.08921568840742111)
(X_658  0.08921568840742111)
(X_659  0.09313725680112839)
(X_660  0.07745098322629929)
(X_661  -0.022549020126461983)
(X_662  -0.022549020126461983)
(X_663  -0.022549020126461983)
(X_664  -0.022549020126461983)
(X_665  -0.018627449870109558)
(X_666  -0.014705880545079708)
(X_667  -0.010784312151372433)
(X_668  -0.018627449870109558)
(X_669  -0.018627449870109558)
(X_670  0.07745098322629929)
(X_671  0.07745098322629929)
(X_672  -0.014705880545079708)
(X_673  0.08529412001371384)
(X_674  -0.014705880545079708)
(X_675  0.08529412001371384)
(X_676  0.08529412001371384)
(X_677  0.08529412001371384)
(X_678  0.08529412001371384)
(X_679  0.08529412001371384)
(X_680  0.08529412001371384)
(X_681  0.08529412001371384)
(X_682  0.08529412001371384)
(X_683  0.08529412001371384)
(X_684  0.08529412001371384)
(X_685  0.08529412001371384)
(X_686  0.08529412001371384)
(X_687  0.08529412001371384)
(X_688  0.08921568840742111)
(X_689  0.08921568840742111)
(X_690  0.08921568840742111)
(X_691  0.08529412001371384)
(X_692  0.08529412001371384)
(X_693  0.08137255162000656)
(X_694  0.08137255162000656)
(X_695  0.08137255162000656)
(X_696  0.08529412001371384)
(X_697  -0.014705880545079708)
(X_698  -0.014705880545079708)
(X_699  0.08529412001371384)
(X_700  0.08529412001371384)
(X_701  0.08529412001371384)
(X_702  -0.014705880545079708)
(X_703  0.08529412001371384)
(X_704  0.08529412001371384)
(X_705  0.08529412001371384)
(X_706  0.08529412001371384)
(X_707  -0.014705880545079708)
(X_708  -0.014705880545079708)
(X_709  -0.014705880545079708)
(X_710  -0.014705880545079708)
(X_711  -0.014705880545079708)
(X_712  -0.014705880545079708)
(X_713  -0.014705880545079708)
(X_714  0.08529412001371384)
(X_715  0.08529412001371384)
(X_716  -0.010784312151372433)
(X_717  -0.010784312151372433)
(X_718  -0.014705880545079708)
(X_719  -0.014705880545079708)
(X_720  -0.014705880545079708)
(X_721  -0.018627449870109558)
(X_722  -0.018627449870109558)
(X_723  -0.018627449870109558)
(X_724  -0.014705880545079708)
(X_725  -0.014705880545079708)
(X_726  -0.014705880545079708)
(X_727  0.08529412001371384)
(X_728  0.08529412001371384)
(X_729  0.08529412001371384)
(X_730  -0.014705880545079708)
(X_731  0.08529412001371384)
(X_732  0.08529412001371384)
(X_733  0.08529412001371384)
(X_734  0.08529412001371384)
(X_735  0.08529412001371384)
(X_736  -0.014705880545079708)
(X_737  -0.014705880545079708)
(X_738  -0.014705880545079708)
(X_739  -0.014705880545079708)
(X_740  -0.014705880545079708)
(X_741  -0.014705880545079708)
(X_742  -0.014705880545079708)
(X_743  -0.014705880545079708)
(X_744  -0.010784312151372433)
(X_745  -0.014705880545079708)
(X_746  -0.014705880545079708)
(X_747  -0.014705880545079708)
(X_748  -0.018627449870109558)
(X_749  0.08137255162000656)
(X_750  0.08137255162000656)
(X_751  -0.018627449870109558)
(X_752  0.08529412001371384)
(X_753  -0.014705880545079708)
(X_754  0.08529412001371384)
(X_755  0.08529412001371384)
(X_756  -0.018627449870109558)
(X_757  -0.018627449870109558)
(X_758  -0.018627449870109558)
(X_759  0.08137255162000656)
(X_760  0.08137255162000656)
(X_761  0.08137255162000656)
(X_762  0.08137255162000656)
(X_763  0.08137255162000656)
(X_764  0.08137255162000656)
(X_765  0.08137255162000656)
(X_766  0.08137255162000656)
(X_767  0.08137255162000656)
(X_768  0.08137255162000656)
(X_769  0.08137255162000656)
(X_770  0.08137255162000656)
(X_771  -0.018627449870109558)
(X_772  -0.014705880545079708)
(X_773  -0.014705880545079708)
(X_774  -0.014705880545079708)
(X_775  -0.018627449870109558)
(X_776  -0.018627449870109558)
(X_777  -0.018627449870109558)
(X_778  -0.022549020126461983)
(X_779  0.07745098322629929)
(X_780  0.08529412001371384)
(X_781  -0.014705880545079708)
(X_782  -0.014705880545079708)
(X_783  0.08529412001371384)
(Y_0 25.674278259277344)
(Y_1 8.475066184997559)
(Y_2 1.0700019598007202)
(Y_3 -36.86128616333008))