((X_0  0.1872549057006836)
(X_1  0.08725491166114807)
(X_2  0.08725491166114807)
(X_3  0.18333333730697632)
(X_4  0.0833333432674408)
(X_5  0.0833333432674408)
(X_6  0.17941176891326904)
(X_7  0.17941176891326904)
(X_8  0.15980392694473267)
(X_9  0.16372549533843994)
(X_10  0.06372549384832382)
(X_11  0.16764706373214722)
(X_12  0.16764706373214722)
(X_13  0.16372549533843994)
(X_14  0.06372549384832382)
(X_15  0.05980392172932625)
(X_16  0.07156863063573837)
(X_17  0.07549020648002625)
(X_18  0.0833333432674408)
(X_19  0.08725491166114807)
(X_20  0.09117648005485535)
(X_21  0.09117648005485535)
(X_22  0.08725491166114807)
(X_23  0.18333333730697632)
(X_24  0.0833333432674408)
(X_25  0.0833333432674408)
(X_26  0.0833333432674408)
(X_27  0.18333333730697632)
(X_28  0.17941176891326904)
(X_29  0.07941177487373352)
(X_30  0.07941177487373352)
(X_31  0.17941176891326904)
(X_32  0.17549020051956177)
(X_33  0.07549020648002625)
(X_34  0.07549020648002625)
(X_35  0.07156863063573837)
(X_36  0.05980392172932625)
(X_37  0.06372549384832382)
(X_38  0.16764706373214722)
(X_39  0.16764706373214722)
(X_40  0.16764706373214722)
(X_41  0.16764706373214722)
(X_42  0.16372549533843994)
(X_43  0.15980392694473267)
(X_44  0.15980392694473267)
(X_45  0.16372549533843994)
(X_46  0.07156863063573837)
(X_47  0.07549020648002625)
(X_48  0.07549020648002625)
(X_49  0.07549020648002625)
(X_50  0.1715686321258545)
(X_51  0.1715686321258545)
(X_52  0.16372549533843994)
(X_53  0.06372549384832382)
(X_54  0.06372549384832382)
(X_55  0.16372549533843994)
(X_56  0.17549020051956177)
(X_57  0.1715686321258545)
(X_58  0.07156863063573837)
(X_59  0.1715686321258545)
(X_60  0.0676470622420311)
(X_61  0.0676470622420311)
(X_62  0.0676470622420311)
(X_63  0.0676470622420311)
(X_64  0.06372549384832382)
(X_65  0.06372549384832382)
(X_66  0.16764706373214722)
(X_67  0.0676470622420311)
(X_68  0.0676470622420311)
(X_69  0.16764706373214722)
(X_70  0.16372549533843994)
(X_71  0.16372549533843994)
(X_72  0.05980392172932625)
(X_73  0.06372549384832382)
(X_74  0.0676470622420311)
(X_75  0.07156863063573837)
(X_76  0.07156863063573837)
(X_77  0.07156863063573837)
(X_78  0.16764706373214722)
(X_79  0.16764706373214722)
(X_80  0.16764706373214722)
(X_81  0.16764706373214722)
(X_82  0.16764706373214722)
(X_83  0.16764706373214722)
(X_84  0.07156863063573837)
(X_85  0.07156863063573837)
(X_86  0.07156863063573837)
(X_87  0.0676470622420311)
(X_88  0.16764706373214722)
(X_89  0.06372549384832382)
(X_90  0.06372549384832382)
(X_91  0.16372549533843994)
(X_92  0.06372549384832382)
(X_93  0.16372549533843994)
(X_94  0.16764706373214722)
(X_95  0.16764706373214722)
(X_96  0.16764706373214722)
(X_97  0.16764706373214722)
(X_98  0.16372549533843994)
(X_99  0.16372549533843994)
(X_100  0.17549020051956177)
(X_101  0.17549020051956177)
(X_102  0.07549020648002625)
(X_103  0.07549020648002625)
(X_104  0.17941176891326904)
(X_105  0.17549020051956177)
(X_106  0.17549020051956177)
(X_107  0.17549020051956177)
(X_108  0.08725491166114807)
(X_109  0.08725491166114807)
(X_110  0.08725491166114807)
(X_111  0.1872549057006836)
(X_112  0.1715686321258545)
(X_113  0.1715686321258545)
(X_114  0.07156863063573837)
(X_115  0.16764706373214722)
(X_116  0.16764706373214722)
(X_117  0.16372549533843994)
(X_118  0.16372549533843994)
(X_119  0.16372549533843994)
(X_120  0.05980392172932625)
(X_121  0.05980392172932625)
(X_122  0.06372549384832382)
(X_123  0.0676470622420311)
(X_124  0.16764706373214722)
(X_125  0.16372549533843994)
(X_126  0.05980392172932625)
(X_127  0.05980392172932625)
(X_128  0.07941177487373352)
(X_129  0.07941177487373352)
(X_130  0.17549020051956177)
(X_131  0.07549020648002625)
(X_132  0.17549020051956177)
(X_133  0.17549020051956177)
(X_134  0.07549020648002625)
(X_135  0.07549020648002625)
(X_136  0.19117647409439087)
(X_137  0.19117647409439087)
(X_138  0.19117647409439087)
(X_139  0.19117647409439087)
(X_140  0.16764706373214722)
(X_141  0.16764706373214722)
(X_142  0.16764706373214722)
(X_143  0.16764706373214722)
(X_144  0.16372549533843994)
(X_145  0.16372549533843994)
(X_146  0.06372549384832382)
(X_147  0.05980392172932625)
(X_148  0.15196079015731812)
(X_149  0.1558823585510254)
(X_150  0.15980392694473267)
(X_151  0.15980392694473267)
(X_152  0.15980392694473267)
(X_153  0.15980392694473267)
(X_154  0.05588235333561897)
(X_155  0.0519607849419117)
(X_156  0.07156863063573837)
(X_157  0.16764706373214722)
(X_158  0.16372549533843994)
(X_159  0.15980392694473267)
(X_160  0.15980392694473267)
(X_161  0.15980392694473267)
(X_162  0.15980392694473267)
(X_163  0.16372549533843994)
(X_164  0.16764706373214722)
(X_165  0.16764706373214722)
(X_166  0.16764706373214722)
(X_167  0.16764706373214722)
(X_168  0.06372549384832382)
(X_169  0.05980392172932625)
(X_170  0.05980392172932625)
(X_171  0.05980392172932625)
(X_172  0.05588235333561897)
(X_173  0.05588235333561897)
(X_174  0.05588235333561897)
(X_175  0.05588235333561897)
(X_176  0.04803921654820442)
(X_177  0.04803921654820442)
(X_178  0.15196079015731812)
(X_179  0.1558823585510254)
(X_180  0.1558823585510254)
(X_181  0.15196079015731812)
(X_182  0.14803922176361084)
(X_183  0.14803922176361084)
(X_184  0.06372549384832382)
(X_185  0.05980392172932625)
(X_186  0.0519607849419117)
(X_187  0.04803921654820442)
(X_188  0.04411764815449715)
(X_189  0.04803921654820442)
(X_190  0.0519607849419117)
(X_191  0.15196079015731812)
(X_192  0.0519607849419117)
(X_193  0.15196079015731812)
(X_194  0.15196079015731812)
(X_195  0.15196079015731812)
(X_196  0.1558823585510254)
(X_197  0.1558823585510254)
(X_198  0.15196079015731812)
(X_199  0.15196079015731812)
(X_200  0.0519607849419117)
(X_201  0.04803921654820442)
(X_202  0.14803922176361084)
(X_203  0.04803921654820442)
(X_204  0.04411764815449715)
(X_205  0.04411764815449715)
(X_206  0.14803922176361084)
(X_207  0.0519607849419117)
(X_208  0.0519607849419117)
(X_209  0.04803921654820442)
(X_210  0.04411764815449715)
(X_211  0.14411765336990356)
(X_212  0.16372549533843994)
(X_213  0.15980392694473267)
(X_214  0.0519607849419117)
(X_215  0.04803921654820442)
(X_216  0.04411764815449715)
(X_217  0.04411764815449715)
(X_218  0.14803922176361084)
(X_219  0.15196079015731812)
(X_220  0.05980392172932625)
(X_221  0.15980392694473267)
(X_222  0.05980392172932625)
(X_223  0.05980392172932625)
(X_224  0.05588235333561897)
(X_225  0.07156863063573837)
(X_226  0.05980392172932625)
(X_227  0.13235294818878174)
(X_228  0.02450980618596077)
(X_229  0.04411764815449715)
(X_230  0.05588235333561897)
(X_231  0.04803921654820442)
(X_232  0.13235294818878174)
(X_233  0.136274516582489)
(X_234  0.14411765336990356)
(X_235  0.1558823585510254)
(X_236  0.15980392694473267)
(X_237  0.1558823585510254)
(X_238  0.14411765336990356)
(X_239  0.12843137979507446)
(X_240  0.136274516582489)
(X_241  0.14411765336990356)
(X_242  0.1558823585510254)
(X_243  0.16372549533843994)
(X_244  0.15980392694473267)
(X_245  0.1558823585510254)
(X_246  0.05588235333561897)
(X_247  0.05588235333561897)
(X_248  0.0519607849419117)
(X_249  0.06372549384832382)
(X_250  0.07549020648002625)
(X_251  0.08725491166114807)
(X_252  0.387254923582077)
(X_253  0.3950980603694916)
(X_254  0.27156862616539)
(X_255  0.31666669249534607)
(X_256  0.2617647051811218)
(X_257  0.21470588445663452)
(X_258  0.16372549533843994)
(X_259  0.020588237792253494)
(X_260  0.0676470622420311)
(X_261  0.1558823585510254)
(X_262  0.1401960849761963)
(X_263  0.13235294818878174)
(X_264  0.136274516582489)
(X_265  0.14411765336990356)
(X_266  0.14803922176361084)
(X_267  0.15196079015731812)
(X_268  0.04803921654820442)
(X_269  0.06372549384832382)
(X_270  0.08725491166114807)
(X_271  0.10686275362968445)
(X_272  0.1303921639919281)
(X_273  0.1774509847164154)
(X_274  0.24411766231060028)
(X_275  0.2911764681339264)
(X_276  0.2872548997402191)
(X_277  0.2911764681339264)
(X_278  0.39901962876319885)
(X_279  0.4107843339443207)
(X_280  0.4166666567325592)
(X_281  0.42843136191368103)
(X_282  0.4166666567325592)
(X_283  0.385294109582901)
(X_284  0.34607842564582825)
(X_285  0.40294119715690613)
(X_286  0.3558823764324188)
(X_287  0.21666668355464935)
(X_288  0.114705890417099)
(X_289  0.0833333432674408)
(X_290  0.04411764815449715)
(X_291  0.11274509876966476)
(X_292  0.10882353037595749)
(X_293  0.12058823555707932)
(X_294  0.036274511367082596)
(X_295  0.04411764815449715)
(X_296  0.11078432202339172)
(X_297  0.28921568393707275)
(X_298  0.3911764919757843)
(X_299  0.3656862676143646)
(X_300  0.3970588147640228)
(X_301  0.5088235139846802)
(X_302  0.5284313559532166)
(X_303  0.44411763548851013)
(X_304  0.5323529243469238)
(X_305  0.42450979351997375)
(X_306  0.4166666567325592)
(X_307  0.40882351994514465)
(X_308  0.29901960492134094)
(X_309  0.3029411733150482)
(X_310  0.3068627417087555)
(X_311  0.31078431010246277)
(X_312  0.31470587849617004)
(X_313  0.31470587849617004)
(X_314  0.3068627417087555)
(X_315  0.39901962876319885)
(X_316  0.26372548937797546)
(X_317  0.23235295712947845)
(X_318  0.18921568989753723)
(X_319  0.15784314274787903)
(X_320  0.25)
(X_321  0.25784313678741455)
(X_322  0.2696078419685364)
(X_323  0.2774509787559509)
(X_324  0.2872548997402191)
(X_325  0.40294119715690613)
(X_326  0.4225490391254425)
(X_327  0.41862747073173523)
(X_328  0.3029411733150482)
(X_329  0.29509803652763367)
(X_330  0.3068627417087555)
(X_331  0.3225490152835846)
(X_332  0.43039217591285706)
(X_333  0.4264706075191498)
(X_334  0.41862747073173523)
(X_335  0.4107843339443207)
(X_336  0.24411766231060028)
(X_337  0.33627453446388245)
(X_338  0.23235295712947845)
(X_339  0.33627453446388245)
(X_340  0.33627453446388245)
(X_341  0.3245098292827606)
(X_342  0.20490197837352753)
(X_343  0.1931372582912445)
(X_344  0.30098041892051697)
(X_345  0.28921568393707275)
(X_346  0.18137255311012268)
(X_347  0.18137255311012268)
(X_348  0.29313725233078003)
(X_349  0.3088235557079315)
(X_350  0.32058826088905334)
(X_351  0.3245098292827606)
(X_352  0.22843138873577118)
(X_353  0.32058826088905334)
(X_354  0.3127451241016388)
(X_355  0.3127451241016388)
(X_356  0.2245098203420639)
(X_357  0.23627452552318573)
(X_358  0.24411766231060028)
(X_359  0.24803923070430756)
(X_360  0.31666669249534607)
(X_361  0.3245098292827606)
(X_362  0.33627453446388245)
(X_363  0.3480392396450043)
(X_364  0.45588237047195435)
(X_365  0.4480392038822174)
(X_366  0.4598039388656616)
(X_367  0.5794118046760559)
(X_368  0.5794118046760559)
(X_369  0.5480391979217529)
(X_370  0.5049019455909729)
(X_371  0.48137256503105164)
(X_372  0.2872548997402191)
(X_373  0.2911764681339264)
(X_374  0.3068627417087555)
(X_375  0.3382352888584137)
(X_376  0.47745099663734436)
(X_377  0.5127450823783875)
(X_378  0.5323529243469238)
(X_379  0.5401960611343384)
(X_380  0.45196080207824707)
(X_381  0.5598039627075195)
(X_382  0.4833333492279053)
(X_383  0.6225490570068359)
(X_384  0.6578431725502014)
(X_385  0.5696078538894653)
(X_386  0.550000011920929)
(X_387  0.5303921699523926)
(X_388  0.638235330581665)
(X_389  0.6421568989753723)
(X_390  0.5539215803146362)
(X_391  0.5617647171020508)
(X_392  0.29509803652763367)
(X_393  0.2872548997402191)
(X_394  0.3029411733150482)
(X_395  0.34607842564582825)
(X_396  0.3656862676143646)
(X_397  0.34607842564582825)
(X_398  0.3186274468898773)
(X_399  0.3029411733150482)
(X_400  0.3068627417087555)
(X_401  0.40294119715690613)
(X_402  0.4068627655506134)
(X_403  0.33039215207099915)
(X_404  0.3656862676143646)
(X_405  0.4049019515514374)
(X_406  0.5362744927406311)
(X_407  0.5480391979217529)
(X_408  0.5303921699523926)
(X_409  0.4950980544090271)
(X_410  0.44019606709480286)
(X_411  0.4009803831577301)
(X_412  0.385294109582901)
(X_413  0.4892157018184662)
(X_414  0.4009803831577301)
(X_415  0.40882351994514465)
(X_416  0.34607842564582825)
(X_417  0.4382353127002716)
(X_418  0.43039217591285706)
(X_419  0.41862747073173523)
(X_420  0.15000000596046448)
(X_421  0.11862745881080627)
(X_422  0.21078431606292725)
(X_423  0.24215686321258545)
(X_424  0.2656862735748291)
(X_425  0.25784313678741455)
(X_426  0.25)
(X_427  0.2539215683937073)
(X_428  0.2852941155433655)
(X_429  0.2656862735748291)
(X_430  0.23823529481887817)
(X_431  0.1303921639919281)
(X_432  0.25)
(X_433  0.2774509787559509)
(X_434  0.3088235557079315)
(X_435  0.2245098203420639)
(X_436  0.18921568989753723)
(X_437  0.20490197837352753)
(X_438  0.21666668355464935)
(X_439  0.21274511516094208)
(X_440  0.20098040997982025)
(X_441  0.2852941155433655)
(X_442  0.1774509847164154)
(X_443  0.17352941632270813)
(X_444  0.3245098292827606)
(X_445  0.3127451241016388)
(X_446  0.1931372582912445)
(X_447  0.2774509787559509)
(X_448  0.10686275362968445)
(X_449  0.21078431606292725)
(X_450  0.21078431606292725)
(X_451  0.20686274766921997)
(X_452  0.10294118523597717)
(X_453  0.09117648005485535)
(X_454  0.18333333730697632)
(X_455  0.07549020648002625)
(X_456  0.1872549057006836)
(X_457  0.08725491166114807)
(X_458  0.08725491166114807)
(X_459  0.08725491166114807)
(X_460  0.1872549057006836)
(X_461  0.1872549057006836)
(X_462  0.1872549057006836)
(X_463  0.1872549057006836)
(X_464  0.1872549057006836)
(X_465  0.1872549057006836)
(X_466  0.08725491166114807)
(X_467  0.09117648005485535)
(X_468  0.09117648005485535)
(X_469  0.09117648005485535)
(X_470  0.09117648005485535)
(X_471  0.19117647409439087)
(X_472  0.22254902124404907)
(X_473  0.22254902124404907)
(X_474  0.12254902720451355)
(X_475  0.22254902124404907)
(X_476  0.08725491166114807)
(X_477  0.08725491166114807)
(X_478  0.08725491166114807)
(X_479  0.0833333432674408)
(X_480  0.07941177487373352)
(X_481  0.07549020648002625)
(X_482  0.0676470622420311)
(X_483  0.06372549384832382)
(X_484  0.07156863063573837)
(X_485  0.07156863063573837)
(X_486  0.07156863063573837)
(X_487  0.07156863063573837)
(X_488  0.1715686321258545)
(X_489  0.1715686321258545)
(X_490  0.1715686321258545)
(X_491  0.1715686321258545)
(X_492  0.16764706373214722)
(X_493  0.07156863063573837)
(X_494  0.07156863063573837)
(X_495  0.07549020648002625)
(X_496  0.07941177487373352)
(X_497  0.0833333432674408)
(X_498  0.08725491166114807)
(X_499  0.08725491166114807)
(X_500  0.19901961088180542)
(X_501  0.19901961088180542)
(X_502  0.0990196168422699)
(X_503  0.19901961088180542)
(X_504  0.05980392172932625)
(X_505  0.1558823585510254)
(X_506  0.0519607849419117)
(X_507  0.14803922176361084)
(X_508  0.14803922176361084)
(X_509  0.14803922176361084)
(X_510  0.14803922176361084)
(X_511  0.14803922176361084)
(X_512  0.14803922176361084)
(X_513  0.14803922176361084)
(X_514  0.04803921654820442)
(X_515  0.04803921654820442)
(X_516  0.04803921654820442)
(X_517  0.04803921654820442)
(X_518  0.14803922176361084)
(X_519  0.14803922176361084)
(X_520  0.14411765336990356)
(X_521  0.14803922176361084)
(X_522  0.15196079015731812)
(X_523  0.05588235333561897)
(X_524  0.06372549384832382)
(X_525  0.0676470622420311)
(X_526  0.07156863063573837)
(X_527  0.07549020648002625)
(X_528  0.06372549384832382)
(X_529  0.06372549384832382)
(X_530  0.06372549384832382)
(X_531  0.16372549533843994)
(X_532  0.036274511367082596)
(X_533  0.03235294297337532)
(X_534  0.02450980618596077)
(X_535  0.020588237792253494)
(X_536  0.020588237792253494)
(X_537  0.028431374579668045)
(X_538  0.13235294818878174)
(X_539  0.136274516582489)
(X_540  0.12843137979507446)
(X_541  0.12843137979507446)
(X_542  0.12843137979507446)
(X_543  0.12843137979507446)
(X_544  0.028431374579668045)
(X_545  0.028431374579668045)
(X_546  0.028431374579668045)
(X_547  0.12843137979507446)
(X_548  0.12843137979507446)
(X_549  0.13235294818878174)
(X_550  0.13235294818878174)
(X_551  0.036274511367082596)
(X_552  0.04019607976078987)
(X_553  0.04411764815449715)
(X_554  0.04803921654820442)
(X_555  0.04803921654820442)
(X_556  0.036274511367082596)
(X_557  0.036274511367082596)
(X_558  0.036274511367082596)
(X_559  0.136274516582489)
(X_560  0.020588237792253494)
(X_561  0.11666666716337204)
(X_562  0.012745101936161518)
(X_563  0.008823529817163944)
(X_564  0.008823529817163944)
(X_565  0.01666666939854622)
(X_566  0.020588237792253494)
(X_567  0.028431374579668045)
(X_568  0.11666666716337204)
(X_569  0.01666666939854622)
(X_570  0.01666666939854622)
(X_571  0.01666666939854622)
(X_572  0.11666666716337204)
(X_573  0.11666666716337204)
(X_574  0.01666666939854622)
(X_575  0.11666666716337204)
(X_576  0.02450980618596077)
(X_577  0.12450980395078659)
(X_578  0.12450980395078659)
(X_579  0.12450980395078659)
(X_580  0.12450980395078659)
(X_581  0.12058823555707932)
(X_582  0.020588237792253494)
(X_583  0.12058823555707932)
(X_584  0.01666666939854622)
(X_585  0.11666666716337204)
(X_586  0.01666666939854622)
(X_587  0.11666666716337204)
(X_588  0.11274509876966476)
(X_589  0.10882353037595749)
(X_590  0.008823529817163944)
(X_591  0.008823529817163944)
(X_592  0.008823529817163944)
(X_593  0.008823529817163944)
(X_594  0.012745101936161518)
(X_595  0.11274509876966476)
(X_596  0.008823529817163944)
(X_597  0.008823529817163944)
(X_598  0.008823529817163944)
(X_599  0.10882353037595749)
(X_600  0.10882353037595749)
(X_601  0.10882353037595749)
(X_602  0.10882353037595749)
(X_603  0.10882353037595749)
(X_604  0.12058823555707932)
(X_605  0.12058823555707932)
(X_606  0.11666666716337204)
(X_607  0.11666666716337204)
(X_608  0.11274509876966476)
(X_609  0.10882353037595749)
(X_610  0.008823529817163944)
(X_611  0.004901961423456669)
(X_612  0.008823529817163944)
(X_613  0.10882353037595749)
(X_614  0.10882353037595749)
(X_615  0.10882353037595749)
(X_616  0.10490196198225021)
(X_617  0.10490196198225021)
(X_618  0.10882353037595749)
(X_619  0.10882353037595749)
(X_620  0.10882353037595749)
(X_621  0.004901961423456669)
(X_622  0.10098039358854294)
(X_623  0.10098039358854294)
(X_624  0.10098039358854294)
(X_625  0.10098039358854294)
(X_626  0.10098039358854294)
(X_627  0.10098039358854294)
(X_628  0.0009803927969187498)
(X_629  0.0009803927969187498)
(X_630  0.0009803927969187498)
(X_631  0.10098039358854294)
(X_632  0.012745101936161518)
(X_633  0.012745101936161518)
(X_634  0.10882353037595749)
(X_635  0.10882353037595749)
(X_636  0.10882353037595749)
(X_637  0.10882353037595749)
(X_638  0.10882353037595749)
(X_639  0.10882353037595749)
(X_640  0.10490196198225021)
(X_641  0.10490196198225021)
(X_642  0.10490196198225021)
(X_643  0.10490196198225021)
(X_644  0.09705882519483566)
(X_645  0.0009803927969187498)
(X_646  0.004901961423456669)
(X_647  0.008823529817163944)
(X_648  0.004901961423456669)
(X_649  0.0009803927969187498)
(X_650  -0.006862743757665157)
(X_651  0.08921568840742111)
(X_652  -0.0029411755967885256)
(X_653  -0.0029411755967885256)
(X_654  -0.0029411755967885256)
(X_655  -0.0029411755967885256)
(X_656  0.09705882519483566)
(X_657  0.09705882519483566)
(X_658  0.09705882519483566)
(X_659  0.09705882519483566)
(X_660  0.10098039358854294)
(X_661  0.10490196198225021)
(X_662  0.004901961423456669)
(X_663  0.008823529817163944)
(X_664  0.008823529817163944)
(X_665  0.012745101936161518)
(X_666  0.012745101936161518)
(X_667  0.012745101936161518)
(X_668  0.0009803927969187498)
(X_669  0.0009803927969187498)
(X_670  0.0009803927969187498)
(X_671  0.10098039358854294)
(X_672  0.12843137979507446)
(X_673  0.12843137979507446)
(X_674  0.028431374579668045)
(X_675  0.12843137979507446)
(X_676  0.12843137979507446)
(X_677  0.12843137979507446)
(X_678  0.12843137979507446)
(X_679  0.12843137979507446)
(X_680  0.12450980395078659)
(X_681  0.12450980395078659)
(X_682  0.12450980395078659)
(X_683  0.12450980395078659)
(X_684  0.12450980395078659)
(X_685  0.12450980395078659)
(X_686  0.12450980395078659)
(X_687  0.12450980395078659)
(X_688  0.12843137979507446)
(X_689  0.12843137979507446)
(X_690  0.12843137979507446)
(X_691  0.12843137979507446)
(X_692  0.12843137979507446)
(X_693  0.12843137979507446)
(X_694  0.12843137979507446)
(X_695  0.12843137979507446)
(X_696  0.12450980395078659)
(X_697  0.02450980618596077)
(X_698  0.02450980618596077)
(X_699  0.12450980395078659)
(X_700  0.7990196347236633)
(X_701  0.7990196347236633)
(X_702  0.6990196108818054)
(X_703  0.7990196347236633)
(X_704  0.7990196347236633)
(X_705  0.7990196347236633)
(X_706  0.6990196108818054)
(X_707  0.6990196108818054)
(X_708  0.6950980424880981)
(X_709  0.6950980424880981)
(X_710  0.6950980424880981)
(X_711  0.6950980424880981)
(X_712  0.6950980424880981)
(X_713  0.6950980424880981)
(X_714  0.795098066329956)
(X_715  0.795098066329956)
(X_716  0.6990196108818054)
(X_717  0.6990196108818054)
(X_718  0.6990196108818054)
(X_719  0.6990196108818054)
(X_720  0.6990196108818054)
(X_721  0.6990196108818054)
(X_722  0.6990196108818054)
(X_723  0.6990196108818054)
(X_724  0.6950980424880981)
(X_725  0.6950980424880981)
(X_726  0.6950980424880981)
(X_727  0.795098066329956)
(X_728  1.0499999523162842)
(X_729  1.0499999523162842)
(X_730  0.949999988079071)
(X_731  1.0499999523162842)
(X_732  1.0499999523162842)
(X_733  1.0499999523162842)
(X_734  1.0499999523162842)
(X_735  1.0499999523162842)
(X_736  0.949999988079071)
(X_737  0.949999988079071)
(X_738  0.949999988079071)
(X_739  0.949999988079071)
(X_740  0.949999988079071)
(X_741  0.949999988079071)
(X_742  0.949999988079071)
(X_743  0.949999988079071)
(X_744  0.949999988079071)
(X_745  0.949999988079071)
(X_746  0.949999988079071)
(X_747  0.949999988079071)
(X_748  0.949999988079071)
(X_749  1.0499999523162842)
(X_750  1.0499999523162842)
(X_751  1.0499999523162842)
(X_752  1.0499999523162842)
(X_753  0.949999988079071)
(X_754  1.0499999523162842)
(X_755  1.0499999523162842)
(X_756  0.9460784196853638)
(X_757  0.9460784196853638)
(X_758  0.9460784196853638)
(X_759  1.0460784435272217)
(X_760  1.0460784435272217)
(X_761  1.0460784435272217)
(X_762  1.0460784435272217)
(X_763  1.0460784435272217)
(X_764  0.9421568512916565)
(X_765  0.9421568512916565)
(X_766  1.0421568155288696)
(X_767  1.0421568155288696)
(X_768  1.0421568155288696)
(X_769  1.0421568155288696)
(X_770  1.0421568155288696)
(X_771  1.0421568155288696)
(X_772  1.0460784435272217)
(X_773  0.9460784196853638)
(X_774  0.9460784196853638)
(X_775  0.9460784196853638)
(X_776  0.9460784196853638)
(X_777  0.9460784196853638)
(X_778  0.9460784196853638)
(X_779  1.0460784435272217)
(X_780  1.0421568155288696)
(X_781  0.9421568512916565)
(X_782  0.9421568512916565)
(X_783  0.9421568512916565)
(Y_0 38.656982421875)
(Y_1 2.8466429710388184)
(Y_2 -1.1324490308761597)
(Y_3 -39.43821716308594))