((X_0  0.1558823585510254)
(X_1  0.1558823585510254)
(X_2  0.1558823585510254)
(X_3  0.15196079015731812)
(X_4  0.15196079015731812)
(X_5  0.0519607849419117)
(X_6  0.0519607849419117)
(X_7  0.0519607849419117)
(X_8  0.04411764815449715)
(X_9  0.04411764815449715)
(X_10  0.14803922176361084)
(X_11  0.04803921654820442)
(X_12  0.04803921654820442)
(X_13  0.14803922176361084)
(X_14  0.14411765336990356)
(X_15  0.14411765336990356)
(X_16  0.04411764815449715)
(X_17  0.04411764815449715)
(X_18  0.04411764815449715)
(X_19  0.04411764815449715)
(X_20  0.14411765336990356)
(X_21  0.14411765336990356)
(X_22  0.04411764815449715)
(X_23  0.04411764815449715)
(X_24  0.14411765336990356)
(X_25  0.15196079015731812)
(X_26  0.1558823585510254)
(X_27  0.16372549533843994)
(X_28  0.13235294818878174)
(X_29  0.136274516582489)
(X_30  0.036274511367082596)
(X_31  0.036274511367082596)
(X_32  0.036274511367082596)
(X_33  0.036274511367082596)
(X_34  0.036274511367082596)
(X_35  0.136274516582489)
(X_36  0.028431374579668045)
(X_37  0.028431374579668045)
(X_38  0.03235294297337532)
(X_39  0.036274511367082596)
(X_40  0.136274516582489)
(X_41  0.13235294818878174)
(X_42  0.12843137979507446)
(X_43  0.028431374579668045)
(X_44  0.12843137979507446)
(X_45  0.12843137979507446)
(X_46  0.12843137979507446)
(X_47  0.028431374579668045)
(X_48  0.028431374579668045)
(X_49  0.028431374579668045)
(X_50  0.028431374579668045)
(X_51  0.028431374579668045)
(X_52  0.136274516582489)
(X_53  0.1401960849761963)
(X_54  0.14803922176361084)
(X_55  0.15196079015731812)
(X_56  0.12058823555707932)
(X_57  0.020588237792253494)
(X_58  0.020588237792253494)
(X_59  0.02450980618596077)
(X_60  0.028431374579668045)
(X_61  0.028431374579668045)
(X_62  0.03235294297337532)
(X_63  0.03235294297337532)
(X_64  0.020588237792253494)
(X_65  0.020588237792253494)
(X_66  0.02450980618596077)
(X_67  0.02450980618596077)
(X_68  0.12450980395078659)
(X_69  0.12450980395078659)
(X_70  0.020588237792253494)
(X_71  0.020588237792253494)
(X_72  0.02450980618596077)
(X_73  0.02450980618596077)
(X_74  0.12450980395078659)
(X_75  0.12450980395078659)
(X_76  0.12450980395078659)
(X_77  0.12450980395078659)
(X_78  0.12450980395078659)
(X_79  0.12450980395078659)
(X_80  0.12843137979507446)
(X_81  0.12843137979507446)
(X_82  0.13235294818878174)
(X_83  0.136274516582489)
(X_84  0.12058823555707932)
(X_85  0.12058823555707932)
(X_86  0.12450980395078659)
(X_87  0.12843137979507446)
(X_88  0.03235294297337532)
(X_89  0.036274511367082596)
(X_90  0.04019607976078987)
(X_91  0.04019607976078987)
(X_92  0.12058823555707932)
(X_93  0.02450980618596077)
(X_94  0.02450980618596077)
(X_95  0.028431374579668045)
(X_96  0.028431374579668045)
(X_97  0.02450980618596077)
(X_98  0.12450980395078659)
(X_99  0.12058823555707932)
(X_100  0.13235294818878174)
(X_101  0.13235294818878174)
(X_102  0.13235294818878174)
(X_103  0.13235294818878174)
(X_104  0.03235294297337532)
(X_105  0.03235294297337532)
(X_106  0.03235294297337532)
(X_107  0.03235294297337532)
(X_108  0.02450980618596077)
(X_109  0.02450980618596077)
(X_110  0.02450980618596077)
(X_111  0.12450980395078659)
(X_112  0.02450980618596077)
(X_113  0.02450980618596077)
(X_114  0.12843137979507446)
(X_115  0.13235294818878174)
(X_116  0.136274516582489)
(X_117  0.1401960849761963)
(X_118  0.04019607976078987)
(X_119  0.14411765336990356)
(X_120  0.12058823555707932)
(X_121  0.12058823555707932)
(X_122  0.12450980395078659)
(X_123  0.12450980395078659)
(X_124  0.02450980618596077)
(X_125  0.02450980618596077)
(X_126  0.020588237792253494)
(X_127  0.020588237792253494)
(X_128  0.13235294818878174)
(X_129  0.13235294818878174)
(X_130  0.13235294818878174)
(X_131  0.13235294818878174)
(X_132  0.13235294818878174)
(X_133  0.13235294818878174)
(X_134  0.03235294297337532)
(X_135  0.13235294818878174)
(X_136  0.02450980618596077)
(X_137  0.02450980618596077)
(X_138  0.12450980395078659)
(X_139  0.12058823555707932)
(X_140  0.12058823555707932)
(X_141  0.12058823555707932)
(X_142  0.020588237792253494)
(X_143  0.12450980395078659)
(X_144  0.028431374579668045)
(X_145  0.028431374579668045)
(X_146  0.03235294297337532)
(X_147  0.13235294818878174)
(X_148  0.11666666716337204)
(X_149  0.11666666716337204)
(X_150  0.12058823555707932)
(X_151  0.12058823555707932)
(X_152  0.12058823555707932)
(X_153  0.12058823555707932)
(X_154  0.11666666716337204)
(X_155  0.01666666939854622)
(X_156  0.02450980618596077)
(X_157  0.02450980618596077)
(X_158  0.02450980618596077)
(X_159  0.12450980395078659)
(X_160  0.12450980395078659)
(X_161  0.02450980618596077)
(X_162  0.02450980618596077)
(X_163  0.12450980395078659)
(X_164  0.028431374579668045)
(X_165  0.02450980618596077)
(X_166  0.020588237792253494)
(X_167  0.11666666716337204)
(X_168  0.020588237792253494)
(X_169  0.020588237792253494)
(X_170  0.12450980395078659)
(X_171  0.12450980395078659)
(X_172  0.12450980395078659)
(X_173  0.12450980395078659)
(X_174  0.02450980618596077)
(X_175  0.12450980395078659)
(X_176  0.12058823555707932)
(X_177  0.12450980395078659)
(X_178  0.12450980395078659)
(X_179  0.12843137979507446)
(X_180  0.12843137979507446)
(X_181  0.12450980395078659)
(X_182  0.12450980395078659)
(X_183  0.020588237792253494)
(X_184  0.11666666716337204)
(X_185  0.11666666716337204)
(X_186  0.11666666716337204)
(X_187  0.11666666716337204)
(X_188  0.01666666939854622)
(X_189  0.01666666939854622)
(X_190  0.11666666716337204)
(X_191  0.11666666716337204)
(X_192  0.12450980395078659)
(X_193  0.12058823555707932)
(X_194  0.012745101936161518)
(X_195  0.008823529817163944)
(X_196  0.03235294297337532)
(X_197  0.13235294818878174)
(X_198  0.12843137979507446)
(X_199  0.028431374579668045)
(X_200  0.028431374579668045)
(X_201  0.12843137979507446)
(X_202  0.12843137979507446)
(X_203  0.12843137979507446)
(X_204  0.136274516582489)
(X_205  0.136274516582489)
(X_206  0.1401960849761963)
(X_207  0.1401960849761963)
(X_208  0.04019607976078987)
(X_209  0.04019607976078987)
(X_210  0.036274511367082596)
(X_211  0.136274516582489)
(X_212  0.12058823555707932)
(X_213  0.12058823555707932)
(X_214  0.020588237792253494)
(X_215  0.12058823555707932)
(X_216  0.12058823555707932)
(X_217  0.12058823555707932)
(X_218  0.12058823555707932)
(X_219  0.12058823555707932)
(X_220  0.12058823555707932)
(X_221  0.01666666939854622)
(X_222  0.008823529817163944)
(X_223  0.10490196198225021)
(X_224  0.0009803927969187498)
(X_225  0.0009803927969187498)
(X_226  0.004901961423456669)
(X_227  0.008823529817163944)
(X_228  0.004901961423456669)
(X_229  0.0009803927969187498)
(X_230  0.020588237792253494)
(X_231  0.04411764815449715)
(X_232  0.01666666939854622)
(X_233  0.12450980395078659)
(X_234  0.11666666716337204)
(X_235  0.11666666716337204)
(X_236  0.06372549384832382)
(X_237  0.11862745881080627)
(X_238  0.11078432202339172)
(X_239  0.0676470622420311)
(X_240  0.07549020648002625)
(X_241  0.136274516582489)
(X_242  0.11666666716337204)
(X_243  0.11274509876966476)
(X_244  0.10882353037595749)
(X_245  0.1401960849761963)
(X_246  0.13235294818878174)
(X_247  0.06960784643888474)
(X_248  -0.0029411755967885256)
(X_249  0.10882353037595749)
(X_250  0.020588237792253494)
(X_251  0.12450980395078659)
(X_252  0.0519607849419117)
(X_253  0.04019607976078987)
(X_254  0.12843137979507446)
(X_255  0.13235294818878174)
(X_256  0.13235294818878174)
(X_257  0.12058823555707932)
(X_258  0.10098039358854294)
(X_259  0.08529412001371384)
(X_260  0.03235294297337532)
(X_261  0.14411765336990356)
(X_262  0.2029411792755127)
(X_263  0.15784314274787903)
(X_264  0.15784314274787903)
(X_265  0.25784313678741455)
(X_266  0.3558823764324188)
(X_267  0.3813725411891937)
(X_268  0.40294119715690613)
(X_269  0.26372548937797546)
(X_270  0.3284313976764679)
(X_271  0.15392157435417175)
(X_272  0.036274511367082596)
(X_273  0.08137255162000656)
(X_274  0.10882353037595749)
(X_275  0.14803922176361084)
(X_276  0.15196079015731812)
(X_277  0.13235294818878174)
(X_278  0.008823529817163944)
(X_279  -0.010784312151372433)
(X_280  0.08137255162000656)
(X_281  0.08921568840742111)
(X_282  -0.006862743757665157)
(X_283  -0.006862743757665157)
(X_284  -0.0029411755967885256)
(X_285  0.10882353037595749)
(X_286  0.12450980395078659)
(X_287  0.136274516582489)
(X_288  0.0990196168422699)
(X_289  0.11078432202339172)
(X_290  0.1617647111415863)
(X_291  0.19705882668495178)
(X_292  0.1617647111415863)
(X_293  0.13431373238563538)
(X_294  0.22058825194835663)
(X_295  0.3539215624332428)
(X_296  0.3794117867946625)
(X_297  0.3382352888584137)
(X_298  0.4852941334247589)
(X_299  0.457843154668808)
(X_300  0.3715686500072479)
(X_301  0.2656862735748291)
(X_302  0.16372549533843994)
(X_303  -0.010784312151372433)
(X_304  0.11274509876966476)
(X_305  0.0009803927969187498)
(X_306  -0.0029411755967885256)
(X_307  0.004901961423456669)
(X_308  0.11274509876966476)
(X_309  0.1401960849761963)
(X_310  0.04803921654820442)
(X_311  0.012745101936161518)
(X_312  -0.018627449870109558)
(X_313  0.10882353037595749)
(X_314  0.17549020051956177)
(X_315  0.13431373238563538)
(X_316  0.15784314274787903)
(X_317  0.12647059559822083)
(X_318  0.1872549057006836)
(X_319  0.19117647409439087)
(X_320  0.2617647051811218)
(X_321  0.24411766231060028)
(X_322  0.28333333134651184)
(X_323  0.3794117867946625)
(X_324  0.45000001788139343)
(X_325  0.4480392038822174)
(X_326  0.45196080207824707)
(X_327  0.3696078360080719)
(X_328  0.33039215207099915)
(X_329  0.31470587849617004)
(X_330  0.240196093916893)
(X_331  0.1460784375667572)
(X_332  0.136274516582489)
(X_333  0.020588237792253494)
(X_334  0.004901961423456669)
(X_335  0.10882353037595749)
(X_336  -0.014705880545079708)
(X_337  0.10882353037595749)
(X_338  0.11666666716337204)
(X_339  0.11666666716337204)
(X_340  0.1401960849761963)
(X_341  0.2029411792755127)
(X_342  0.2696078419685364)
(X_343  0.20098040997982025)
(X_344  0.114705890417099)
(X_345  0.1401960849761963)
(X_346  0.10882353037595749)
(X_347  0.21470588445663452)
(X_348  0.32647058367729187)
(X_349  0.4911764860153198)
(X_350  0.522549033164978)
(X_351  0.5794118046760559)
(X_352  0.5558823943138123)
(X_353  0.6421568989753723)
(X_354  0.6264706254005432)
(X_355  0.5245097875595093)
(X_356  0.3578431308269501)
(X_357  0.4068627655506134)
(X_358  0.38333335518836975)
(X_359  0.41862747073173523)
(X_360  0.30490198731422424)
(X_361  0.15000000596046448)
(X_362  0.07549020648002625)
(X_363  0.13235294818878174)
(X_364  0.036274511367082596)
(X_365  0.12843137979507446)
(X_366  0.12843137979507446)
(X_367  0.1715686321258545)
(X_368  0.2617647051811218)
(X_369  0.33627453446388245)
(X_370  0.2245098203420639)
(X_371  0.16568627953529358)
(X_372  0.04019607976078987)
(X_373  0.0009803927969187498)
(X_374  0.09509804844856262)
(X_375  0.32647058367729187)
(X_376  0.4911764860153198)
(X_377  0.48725491762161255)
(X_378  0.44411763548851013)
(X_379  0.44411763548851013)
(X_380  0.4382353127002716)
(X_381  0.46176472306251526)
(X_382  0.4696078598499298)
(X_383  0.4362744987010956)
(X_384  0.46764707565307617)
(X_385  0.33039215207099915)
(X_386  0.22058825194835663)
(X_387  0.36764708161354065)
(X_388  0.3794117867946625)
(X_389  0.3480392396450043)
(X_390  0.20490197837352753)
(X_391  0.2774509787559509)
(X_392  0.3558823764324188)
(X_393  0.344117671251297)
(X_394  0.31666669249534607)
(X_395  0.31666669249534607)
(X_396  0.3558823764324188)
(X_397  0.3715686500072479)
(X_398  0.30098041892051697)
(X_399  0.10294118523597717)
(X_400  0.1558823585510254)
(X_401  0.10294118523597717)
(X_402  0.3598039448261261)
(X_403  0.520588219165802)
(X_404  0.40882351994514465)
(X_405  0.25196078419685364)
(X_406  0.15784314274787903)
(X_407  0.17352941632270813)
(X_408  0.2088235467672348)
(X_409  0.18529412150382996)
(X_410  0.12254902720451355)
(X_411  0.2970588207244873)
(X_412  0.46176472306251526)
(X_413  0.34607842564582825)
(X_414  0.23627452552318573)
(X_415  0.3401961028575897)
(X_416  0.23235295712947845)
(X_417  0.24411766231060028)
(X_418  0.3637255132198334)
(X_419  0.3794117867946625)
(X_420  0.2970588207244873)
(X_421  0.33235296607017517)
(X_422  0.3401961028575897)
(X_423  0.21666668355464935)
(X_424  0.21666668355464935)
(X_425  0.23235295712947845)
(X_426  0.3088235557079315)
(X_427  0.16568627953529358)
(X_428  0.1303921639919281)
(X_429  0.22843138873577118)
(X_430  0.33039215207099915)
(X_431  0.3225490152835846)
(X_432  0.21274511516094208)
(X_433  0.2029411792755127)
(X_434  0.07549020648002625)
(X_435  0.10294118523597717)
(X_436  0.19509804248809814)
(X_437  0.2970588207244873)
(X_438  0.2343137264251709)
(X_439  0.18333333730697632)
(X_440  0.33235296607017517)
(X_441  0.4225490391254425)
(X_442  0.24803923070430756)
(X_443  0.1931372582912445)
(X_444  0.22058825194835663)
(X_445  0.2245098203420639)
(X_446  0.22843138873577118)
(X_447  0.2245098203420639)
(X_448  0.3088235557079315)
(X_449  0.19705882668495178)
(X_450  0.28921568393707275)
(X_451  0.29313725233078003)
(X_452  0.30098041892051697)
(X_453  0.2970588207244873)
(X_454  0.2774509787559509)
(X_455  0.25784313678741455)
(X_456  0.28921568393707275)
(X_457  0.33235296607017517)
(X_458  0.40294119715690613)
(X_459  0.16960784792900085)
(X_460  0.16764706373214722)
(X_461  0.17549020051956177)
(X_462  0.12058823555707932)
(X_463  0.14803922176361084)
(X_464  0.06372549384832382)
(X_465  0.11862745881080627)
(X_466  0.19901961088180542)
(X_467  0.1401960849761963)
(X_468  0.19901961088180542)
(X_469  0.3401961028575897)
(X_470  0.3558823764324188)
(X_471  0.2696078419685364)
(X_472  0.2539215683937073)
(X_473  0.2774509787559509)
(X_474  0.2852941155433655)
(X_475  0.2774509787559509)
(X_476  0.18529412150382996)
(X_477  0.18529412150382996)
(X_478  0.2774509787559509)
(X_479  0.2656862735748291)
(X_480  0.15392157435417175)
(X_481  0.14215686917304993)
(X_482  0.13823530077934265)
(X_483  0.13823530077934265)
(X_484  0.09509804844856262)
(X_485  0.13823530077934265)
(X_486  0.20098040997982025)
(X_487  0.09117648005485535)
(X_488  0.020588237792253494)
(X_489  0.04411764815449715)
(X_490  0.004901961423456669)
(X_491  0.02450980618596077)
(X_492  0.05588235333561897)
(X_493  0.0676470622420311)
(X_494  0.14411765336990356)
(X_495  0.11666666716337204)
(X_496  0.1558823585510254)
(X_497  0.25784313678741455)
(X_498  0.33235296607017517)
(X_499  0.24803923070430756)
(X_500  0.22647058963775635)
(X_501  0.0990196168422699)
(X_502  0.10294118523597717)
(X_503  0.1460784375667572)
(X_504  0.1617647111415863)
(X_505  0.1617647111415863)
(X_506  0.24215686321258545)
(X_507  0.10294118523597717)
(X_508  0.05980392172932625)
(X_509  0.03235294297337532)
(X_510  0.028431374579668045)
(X_511  0.1401960849761963)
(X_512  0.07941177487373352)
(X_513  0.10294118523597717)
(X_514  0.22647058963775635)
(X_515  0.036274511367082596)
(X_516  -0.010784312151372433)
(X_517  0.01666666939854622)
(X_518  -0.006862743757665157)
(X_519  -0.0029411755967885256)
(X_520  0.03235294297337532)
(X_521  0.012745101936161518)
(X_522  0.008823529817163944)
(X_523  0.01666666939854622)
(X_524  0.020588237792253494)
(X_525  0.1558823585510254)
(X_526  0.25784313678741455)
(X_527  0.3637255132198334)
(X_528  0.1617647111415863)
(X_529  0.05588235333561897)
(X_530  -0.006862743757665157)
(X_531  0.11274509876966476)
(X_532  0.3794117867946625)
(X_533  0.3754902184009552)
(X_534  0.3598039448261261)
(X_535  0.3284313976764679)
(X_536  0.29313725233078003)
(X_537  0.16960784792900085)
(X_538  0.1617647111415863)
(X_539  0.1617647111415863)
(X_540  0.16960784792900085)
(X_541  0.1617647111415863)
(X_542  0.12647059559822083)
(X_543  0.036274511367082596)
(X_544  -0.006862743757665157)
(X_545  0.10490196198225021)
(X_546  0.09705882519483566)
(X_547  -0.010784312151372433)
(X_548  0.10490196198225021)
(X_549  0.0009803927969187498)
(X_550  0.01666666939854622)
(X_551  0.03235294297337532)
(X_552  0.11274509876966476)
(X_553  0.10098039358854294)
(X_554  0.16764706373214722)
(X_555  0.25784313678741455)
(X_556  0.23627452552318573)
(X_557  0.15392157435417175)
(X_558  0.0833333432674408)
(X_559  0.17549020051956177)
(X_560  0.25784313678741455)
(X_561  0.15392157435417175)
(X_562  0.25784313678741455)
(X_563  0.2696078419685364)
(X_564  0.2852941155433655)
(X_565  0.29313725233078003)
(X_566  0.18529412150382996)
(X_567  0.1774509847164154)
(X_568  0.21666668355464935)
(X_569  0.29313725233078003)
(X_570  0.20686274766921997)
(X_571  0.13235294818878174)
(X_572  -0.006862743757665157)
(X_573  0.0009803927969187498)
(X_574  0.01666666939854622)
(X_575  -0.006862743757665157)
(X_576  0.0009803927969187498)
(X_577  0.01666666939854622)
(X_578  0.12843137979507446)
(X_579  0.11274509876966476)
(X_580  0.09313725680112839)
(X_581  0.09705882519483566)
(X_582  0.12450980395078659)
(X_583  0.14803922176361084)
(X_584  0.23039215803146362)
(X_585  0.16960784792900085)
(X_586  0.1931372582912445)
(X_587  0.18921568989753723)
(X_588  0.10686275362968445)
(X_589  0.10294118523597717)
(X_590  0.21078431606292725)
(X_591  0.23823529481887817)
(X_592  0.16960784792900085)
(X_593  0.2852941155433655)
(X_594  0.2774509787559509)
(X_595  0.2617647051811218)
(X_596  0.15000000596046448)
(X_597  0.13823530077934265)
(X_598  0.1401960849761963)
(X_599  -0.0029411755967885256)
(X_600  -0.018627449870109558)
(X_601  -0.018627449870109558)
(X_602  0.02450980618596077)
(X_603  -0.0029411755967885256)
(X_604  0.004901961423456669)
(X_605  0.020588237792253494)
(X_606  0.10882353037595749)
(X_607  0.07352941483259201)
(X_608  0.07352941483259201)
(X_609  0.10882353037595749)
(X_610  0.12058823555707932)
(X_611  0.004901961423456669)
(X_612  0.004901961423456669)
(X_613  0.09117648005485535)
(X_614  0.13823530077934265)
(X_615  0.21078431606292725)
(X_616  0.17549020051956177)
(X_617  0.17549020051956177)
(X_618  0.07941177487373352)
(X_619  0.0833333432674408)
(X_620  0.09117648005485535)
(X_621  0.09509804844856262)
(X_622  0.09509804844856262)
(X_623  0.09509804844856262)
(X_624  0.1715686321258545)
(X_625  0.17941176891326904)
(X_626  0.09313725680112839)
(X_627  0.08921568840742111)
(X_628  0.08529412001371384)
(X_629  0.06960784643888474)
(X_630  0.12058823555707932)
(X_631  -0.018627449870109558)
(X_632  0.10098039358854294)
(X_633  0.0009803927969187498)
(X_634  -0.010784312151372433)
(X_635  -0.030392156913876534)
(X_636  -0.022549020126461983)
(X_637  0.10490196198225021)
(X_638  0.10882353037595749)
(X_639  -0.0029411755967885256)
(X_640  0.12843137979507446)
(X_641  0.1715686321258545)
(X_642  0.1872549057006836)
(X_643  0.1558823585510254)
(X_644  0.028431374579668045)
(X_645  0.036274511367082596)
(X_646  0.14411765336990356)
(X_647  0.1401960849761963)
(X_648  0.13235294818878174)
(X_649  0.136274516582489)
(X_650  0.05980392172932625)
(X_651  0.17941176891326904)
(X_652  0.14803922176361084)
(X_653  0.07549020648002625)
(X_654  -0.0029411755967885256)
(X_655  0.012745101936161518)
(X_656  0.004901961423456669)
(X_657  0.06568627804517746)
(X_658  0.10882353037595749)
(X_659  -0.04215686395764351)
(X_660  0.08529412001371384)
(X_661  0.07745098322629929)
(X_662  0.08137255162000656)
(X_663  0.10098039358854294)
(X_664  0.004901961423456669)
(X_665  -0.006862743757665157)
(X_666  0.08137255162000656)
(X_667  -0.014705880545079708)
(X_668  0.008823529817163944)
(X_669  0.03235294297337532)
(X_670  0.0676470622420311)
(X_671  0.09117648005485535)
(X_672  0.11274509876966476)
(X_673  0.012745101936161518)
(X_674  0.012745101936161518)
(X_675  0.012745101936161518)
(X_676  0.012745101936161518)
(X_677  0.11274509876966476)
(X_678  0.11274509876966476)
(X_679  0.11274509876966476)
(X_680  0.028431374579668045)
(X_681  0.11666666716337204)
(X_682  0.09705882519483566)
(X_683  0.08137255162000656)
(X_684  0.07352941483259201)
(X_685  -0.022549020126461983)
(X_686  -0.014705880545079708)
(X_687  -0.006862743757665157)
(X_688  0.08921568840742111)
(X_689  0.08921568840742111)
(X_690  -0.010784312151372433)
(X_691  -0.014705880545079708)
(X_692  -0.014705880545079708)
(X_693  -0.018627449870109558)
(X_694  -0.018627449870109558)
(X_695  -0.018627449870109558)
(X_696  0.012745101936161518)
(X_697  0.11274509876966476)
(X_698  0.11274509876966476)
(X_699  0.11274509876966476)
(X_700  0.10098039358854294)
(X_701  0.0009803927969187498)
(X_702  0.0009803927969187498)
(X_703  0.0009803927969187498)
(X_704  0.0009803927969187498)
(X_705  0.0009803927969187498)
(X_706  0.0009803927969187498)
(X_707  0.0009803927969187498)
(X_708  0.012745101936161518)
(X_709  0.004901961423456669)
(X_710  -0.006862743757665157)
(X_711  0.08137255162000656)
(X_712  0.07745098322629929)
(X_713  0.07745098322629929)
(X_714  -0.014705880545079708)
(X_715  -0.010784312151372433)
(X_716  0.08921568840742111)
(X_717  0.08921568840742111)
(X_718  0.08529412001371384)
(X_719  -0.014705880545079708)
(X_720  -0.014705880545079708)
(X_721  -0.018627449870109558)
(X_722  -0.018627449870109558)
(X_723  -0.018627449870109558)
(X_724  0.0009803927969187498)
(X_725  0.10098039358854294)
(X_726  0.10098039358854294)
(X_727  0.10098039358854294)
(X_728  0.08921568840742111)
(X_729  -0.010784312151372433)
(X_730  0.08921568840742111)
(X_731  -0.010784312151372433)
(X_732  -0.010784312151372433)
(X_733  -0.010784312151372433)
(X_734  -0.010784312151372433)
(X_735  0.08921568840742111)
(X_736  0.09313725680112839)
(X_737  0.08921568840742111)
(X_738  0.08529412001371384)
(X_739  -0.018627449870109558)
(X_740  0.07745098322629929)
(X_741  0.08137255162000656)
(X_742  0.08137255162000656)
(X_743  0.08529412001371384)
(X_744  0.08921568840742111)
(X_745  0.08529412001371384)
(X_746  0.08529412001371384)
(X_747  -0.014705880545079708)
(X_748  -0.018627449870109558)
(X_749  -0.018627449870109558)
(X_750  -0.018627449870109558)
(X_751  -0.018627449870109558)
(X_752  0.08921568840742111)
(X_753  0.08921568840742111)
(X_754  0.08921568840742111)
(X_755  0.08921568840742111)
(X_756  0.08137255162000656)
(X_757  0.08137255162000656)
(X_758  0.08137255162000656)
(X_759  -0.018627449870109558)
(X_760  -0.018627449870109558)
(X_761  -0.018627449870109558)
(X_762  -0.018627449870109558)
(X_763  0.08137255162000656)
(X_764  -0.026470588520169258)
(X_765  -0.026470588520169258)
(X_766  -0.022549020126461983)
(X_767  -0.018627449870109558)
(X_768  -0.018627449870109558)
(X_769  -0.018627449870109558)
(X_770  -0.018627449870109558)
(X_771  -0.018627449870109558)
(X_772  -0.014705880545079708)
(X_773  -0.014705880545079708)
(X_774  -0.014705880545079708)
(X_775  -0.018627449870109558)
(X_776  -0.018627449870109558)
(X_777  -0.018627449870109558)
(X_778  -0.022549020126461983)
(X_779  -0.022549020126461983)
(X_780  -0.018627449870109558)
(X_781  -0.018627449870109558)
(X_782  -0.018627449870109558)
(X_783  -0.018627449870109558)
(Y_0 -31.988117218017578)
(Y_1 37.74297332763672)
(Y_2 -18.046937942504883)
(Y_3 14.071611404418945))