((X_0  1.0499999523162842)
(X_1  0.949999988079071)
(X_2  0.949999988079071)
(X_3  0.949999988079071)
(X_4  0.949999988079071)
(X_5  0.949999988079071)
(X_6  0.949999988079071)
(X_7  0.949999988079071)
(X_8  0.949999988079071)
(X_9  1.0460784435272217)
(X_10  1.0382353067398071)
(X_11  0.9421568512916565)
(X_12  0.949999988079071)
(X_13  1.0499999523162842)
(X_14  1.0499999523162842)
(X_15  0.949999988079071)
(X_16  0.949999988079071)
(X_17  0.949999988079071)
(X_18  0.949999988079071)
(X_19  0.949999988079071)
(X_20  1.0499999523162842)
(X_21  1.0499999523162842)
(X_22  1.0499999523162842)
(X_23  0.949999988079071)
(X_24  1.0421568155288696)
(X_25  1.0460784435272217)
(X_26  0.949999988079071)
(X_27  1.0499999523162842)
(X_28  0.9950980544090271)
(X_29  1.0147058963775635)
(X_30  0.9382352828979492)
(X_31  0.949999988079071)
(X_32  0.949999988079071)
(X_33  0.9421568512916565)
(X_34  0.9343137145042419)
(X_35  1.0303921699523926)
(X_36  0.949999988079071)
(X_37  0.949999988079071)
(X_38  0.949999988079071)
(X_39  0.949999988079071)
(X_40  0.949999988079071)
(X_41  1.0421568155288696)
(X_42  1.0303921699523926)
(X_43  0.9225490093231201)
(X_44  1.0499999523162842)
(X_45  1.0460784435272217)
(X_46  1.0303921699523926)
(X_47  1.0303921699523926)
(X_48  1.0382353067398071)
(X_49  0.9460784196853638)
(X_50  0.9421568512916565)
(X_51  0.9343137145042419)
(X_52  1.0499999523162842)
(X_53  1.0499999523162842)
(X_54  0.949999988079071)
(X_55  1.0499999523162842)
(X_56  0.28333333134651184)
(X_57  0.34607842564582825)
(X_58  0.45588237047195435)
(X_59  0.5813725590705872)
(X_60  0.70686274766922)
(X_61  0.8166666626930237)
(X_62  0.9029411673545837)
(X_63  0.949999988079071)
(X_64  0.9382352828979492)
(X_65  0.9460784196853638)
(X_66  0.949999988079071)
(X_67  0.949999988079071)
(X_68  1.0460784435272217)
(X_69  1.0499999523162842)
(X_70  1.0499999523162842)
(X_71  0.949999988079071)
(X_72  0.949999988079071)
(X_73  0.949999988079071)
(X_74  0.949999988079071)
(X_75  0.949999988079071)
(X_76  0.949999988079071)
(X_77  1.0499999523162842)
(X_78  1.0499999523162842)
(X_79  1.0460784435272217)
(X_80  1.0107842683792114)
(X_81  0.9186274409294128)
(X_82  0.9303921461105347)
(X_83  1.0382353067398071)
(X_84  0.09313725680112839)
(X_85  0.10490196198225021)
(X_86  0.12450980395078659)
(X_87  0.14803922176361084)
(X_88  0.0833333432674408)
(X_89  0.1303921639919281)
(X_90  0.1774509847164154)
(X_91  0.2088235467672348)
(X_92  0.5166666507720947)
(X_93  0.5107843279838562)
(X_94  0.6519607901573181)
(X_95  0.7696078419685364)
(X_96  0.9401960968971252)
(X_97  0.9715686440467834)
(X_98  0.9833333492279053)
(X_99  0.9911764860153198)
(X_100  0.9990196228027344)
(X_101  1.022549033164978)
(X_102  1.0499999523162842)
(X_103  1.0499999523162842)
(X_104  0.949999988079071)
(X_105  0.9460784196853638)
(X_106  0.9343137145042419)
(X_107  0.9264705777168274)
(X_108  0.949999988079071)
(X_109  0.949999988079071)
(X_110  0.949999988079071)
(X_111  1.0499999523162842)
(X_112  0.012745101936161518)
(X_113  0.008823529817163944)
(X_114  -0.0029411755967885256)
(X_115  -0.014705880545079708)
(X_116  -0.018627449870109558)
(X_117  -0.010784312151372433)
(X_118  0.012745101936161518)
(X_119  0.03235294297337532)
(X_120  0.12058823555707932)
(X_121  0.020588237792253494)
(X_122  0.02450980618596077)
(X_123  0.1401960849761963)
(X_124  0.19509804248809814)
(X_125  0.30098041892051697)
(X_126  0.4264706075191498)
(X_127  0.5166666507720947)
(X_128  0.6617647409439087)
(X_129  0.7245098352432251)
(X_130  0.8107843399047852)
(X_131  0.8735294342041016)
(X_132  0.9166666865348816)
(X_133  0.9676470756530762)
(X_134  1.0303921699523926)
(X_135  1.0499999523162842)
(X_136  1.0147058963775635)
(X_137  0.9343137145042419)
(X_138  1.0499999523162842)
(X_139  1.0499999523162842)
(X_140  0.10098039358854294)
(X_141  0.11274509876966476)
(X_142  0.020588237792253494)
(X_143  0.020588237792253494)
(X_144  0.11274509876966476)
(X_145  0.008823529817163944)
(X_146  0.008823529817163944)
(X_147  0.10882353037595749)
(X_148  0.07745098322629929)
(X_149  0.09313725680112839)
(X_150  0.10490196198225021)
(X_151  0.004901961423456669)
(X_152  0.09313725680112839)
(X_153  0.08137255162000656)
(X_154  0.08137255162000656)
(X_155  0.08529412001371384)
(X_156  0.053921569138765335)
(X_157  0.09705882519483566)
(X_158  0.1558823585510254)
(X_159  0.19901961088180542)
(X_160  0.23823529481887817)
(X_161  0.2088235467672348)
(X_162  0.3029411733150482)
(X_163  0.4735294282436371)
(X_164  0.6264706254005432)
(X_165  0.5774509906768799)
(X_166  0.6519607901573181)
(X_167  0.8147059082984924)
(X_168  0.07352941483259201)
(X_169  0.08529412001371384)
(X_170  0.10098039358854294)
(X_171  0.10490196198225021)
(X_172  0.10098039358854294)
(X_173  0.09705882519483566)
(X_174  -0.006862743757665157)
(X_175  0.09705882519483566)
(X_176  0.02450980618596077)
(X_177  0.020588237792253494)
(X_178  0.01666666939854622)
(X_179  0.01666666939854622)
(X_180  0.01666666939854622)
(X_181  0.02450980618596077)
(X_182  0.036274511367082596)
(X_183  0.04411764815449715)
(X_184  0.1401960849761963)
(X_185  0.136274516582489)
(X_186  0.12058823555707932)
(X_187  0.09313725680112839)
(X_188  0.07352941483259201)
(X_189  0.07352941483259201)
(X_190  0.09313725680112839)
(X_191  0.11666666716337204)
(X_192  0.09705882519483566)
(X_193  0.02450980618596077)
(X_194  0.06372549384832382)
(X_195  0.08725491166114807)
(X_196  0.004901961423456669)
(X_197  0.10490196198225021)
(X_198  -0.0029411755967885256)
(X_199  -0.010784312151372433)
(X_200  -0.014705880545079708)
(X_201  -0.010784312151372433)
(X_202  0.004901961423456669)
(X_203  0.01666666939854622)
(X_204  -0.010784312151372433)
(X_205  -0.014705880545079708)
(X_206  -0.010784312151372433)
(X_207  -0.006862743757665157)
(X_208  0.0009803927969187498)
(X_209  0.004901961423456669)
(X_210  -0.0029411755967885256)
(X_211  0.08921568840742111)
(X_212  0.09705882519483566)
(X_213  0.09313725680112839)
(X_214  0.09705882519483566)
(X_215  0.11274509876966476)
(X_216  0.12450980395078659)
(X_217  0.12843137979507446)
(X_218  0.12058823555707932)
(X_219  0.10882353037595749)
(X_220  0.11666666716337204)
(X_221  0.11666666716337204)
(X_222  0.008823529817163944)
(X_223  0.10098039358854294)
(X_224  0.05588235333561897)
(X_225  0.04803921654820442)
(X_226  0.13235294818878174)
(X_227  0.12450980395078659)
(X_228  0.01666666939854622)
(X_229  0.008823529817163944)
(X_230  -0.0029411755967885256)
(X_231  -0.014705880545079708)
(X_232  0.10882353037595749)
(X_233  0.10882353037595749)
(X_234  0.10490196198225021)
(X_235  0.10490196198225021)
(X_236  0.0009803927969187498)
(X_237  -0.006862743757665157)
(X_238  -0.010784312151372433)
(X_239  0.08137255162000656)
(X_240  0.08529412001371384)
(X_241  0.10098039358854294)
(X_242  0.11274509876966476)
(X_243  0.10882353037595749)
(X_244  0.09313725680112839)
(X_245  0.09313725680112839)
(X_246  0.10882353037595749)
(X_247  0.03235294297337532)
(X_248  0.02450980618596077)
(X_249  0.028431374579668045)
(X_250  0.03235294297337532)
(X_251  0.13235294818878174)
(X_252  0.28333333134651184)
(X_253  0.26372548937797546)
(X_254  0.240196093916893)
(X_255  0.3127451241016388)
(X_256  0.2852941155433655)
(X_257  0.25784313678741455)
(X_258  0.2343137264251709)
(X_259  0.21470588445663452)
(X_260  0.020588237792253494)
(X_261  0.12058823555707932)
(X_262  0.12058823555707932)
(X_263  0.11274509876966476)
(X_264  0.11274509876966476)
(X_265  0.12843137979507446)
(X_266  0.1558823585510254)
(X_267  0.17549020051956177)
(X_268  0.1872549057006836)
(X_269  0.1715686321258545)
(X_270  0.14803922176361084)
(X_271  0.028431374579668045)
(X_272  0.01666666939854622)
(X_273  0.0009803927969187498)
(X_274  0.08137255162000656)
(X_275  -0.03431372344493866)
(X_276  0.08529412001371384)
(X_277  -0.010784312151372433)
(X_278  -0.006862743757665157)
(X_279  -0.0029411755967885256)
(X_280  0.2813725471496582)
(X_281  0.2813725471496582)
(X_282  0.18137255311012268)
(X_283  0.18921568989753723)
(X_284  0.20490197837352753)
(X_285  0.3127451241016388)
(X_286  0.31666669249534607)
(X_287  0.3127451241016388)
(X_288  0.21274511516094208)
(X_289  0.19705882668495178)
(X_290  0.17352941632270813)
(X_291  0.14215686917304993)
(X_292  0.12647059559822083)
(X_293  0.14215686917304993)
(X_294  0.1774509847164154)
(X_295  0.2088235467672348)
(X_296  0.3480392396450043)
(X_297  0.2245098203420639)
(X_298  0.18529412150382996)
(X_299  0.14215686917304993)
(X_300  0.19901961088180542)
(X_301  0.16764706373214722)
(X_302  0.15196079015731812)
(X_303  0.04411764815449715)
(X_304  0.12450980395078659)
(X_305  0.01666666939854622)
(X_306  0.008823529817163944)
(X_307  0.0009803927969187498)
(X_308  0.2970588207244873)
(X_309  0.28921568393707275)
(X_310  0.2852941155433655)
(X_311  0.18921568989753723)
(X_312  0.1931372582912445)
(X_313  0.19705882668495178)
(X_314  0.1931372582912445)
(X_315  0.18529412150382996)
(X_316  0.2852941155433655)
(X_317  0.16960784792900085)
(X_318  0.2539215683937073)
(X_319  0.2539215683937073)
(X_320  0.18529412150382996)
(X_321  0.23235295712947845)
(X_322  0.28333333134651184)
(X_323  0.31470587849617004)
(X_324  0.31078431010246277)
(X_325  0.3186274468898773)
(X_326  0.3068627417087555)
(X_327  0.2558823525905609)
(X_328  0.28921568393707275)
(X_329  0.2539215683937073)
(X_330  0.2656862735748291)
(X_331  0.28921568393707275)
(X_332  0.240196093916893)
(X_333  0.22843138873577118)
(X_334  0.21274511516094208)
(X_335  0.19705882668495178)
(X_336  0.21274511516094208)
(X_337  0.30098041892051697)
(X_338  0.28921568393707275)
(X_339  0.18137255311012268)
(X_340  0.27352941036224365)
(X_341  0.2656862735748291)
(X_342  0.15000000596046448)
(X_343  0.14215686917304993)
(X_344  0.18921568989753723)
(X_345  0.2617647051811218)
(X_346  0.14215686917304993)
(X_347  0.15392157435417175)
(X_348  0.1931372582912445)
(X_349  0.23235295712947845)
(X_350  0.25196078419685364)
(X_351  0.3558823764324188)
(X_352  0.3480392396450043)
(X_353  0.36764708161354065)
(X_354  0.387254923582077)
(X_355  0.28333333134651184)
(X_356  0.3637255132198334)
(X_357  0.33627453446388245)
(X_358  0.31666669249534607)
(X_359  0.3088235557079315)
(X_360  0.23235295712947845)
(X_361  0.2245098203420639)
(X_362  0.21666668355464935)
(X_363  0.3088235557079315)
(X_364  0.23627452552318573)
(X_365  0.23627452552318573)
(X_366  0.33627453446388245)
(X_367  0.344117671251297)
(X_368  0.3558823764324188)
(X_369  0.3637255132198334)
(X_370  0.26372548937797546)
(X_371  0.2598039209842682)
(X_372  0.2872548997402191)
(X_373  0.2598039209842682)
(X_374  0.3245098292827606)
(X_375  0.3127451241016388)
(X_376  0.21274511516094208)
(X_377  0.20490197837352753)
(X_378  0.1774509847164154)
(X_379  0.15392157435417175)
(X_380  0.2852941155433655)
(X_381  0.2813725471496582)
(X_382  0.30098041892051697)
(X_383  0.3598039448261261)
(X_384  0.31470587849617004)
(X_385  0.3068627417087555)
(X_386  0.240196093916893)
(X_387  0.17352941632270813)
(X_388  0.28921568393707275)
(X_389  0.18529412150382996)
(X_390  0.1774509847164154)
(X_391  0.17352941632270813)
(X_392  0.2813725471496582)
(X_393  0.27352941036224365)
(X_394  0.2656862735748291)
(X_395  0.25784313678741455)
(X_396  0.25784313678741455)
(X_397  0.2539215683937073)
(X_398  0.24215686321258545)
(X_399  0.2343137264251709)
(X_400  0.1617647111415863)
(X_401  0.2656862735748291)
(X_402  0.2696078419685364)
(X_403  0.2656862735748291)
(X_404  0.2539215683937073)
(X_405  0.24215686321258545)
(X_406  0.1303921639919281)
(X_407  0.12647059559822083)
(X_408  0.22647058963775635)
(X_409  0.2186274528503418)
(X_410  0.23039215803146362)
(X_411  0.2813725471496582)
(X_412  0.344117671251297)
(X_413  0.27156862616539)
(X_414  0.24803923070430756)
(X_415  0.31666669249534607)
(X_416  0.15784314274787903)
(X_417  0.15392157435417175)
(X_418  0.15000000596046448)
(X_419  0.14215686917304993)
(X_420  0.13823530077934265)
(X_421  0.13431373238563538)
(X_422  0.12647059559822083)
(X_423  0.1303921639919281)
(X_424  0.13431373238563538)
(X_425  0.13431373238563538)
(X_426  0.1303921639919281)
(X_427  0.22647058963775635)
(X_428  0.20686274766921997)
(X_429  0.23039215803146362)
(X_430  0.1460784375667572)
(X_431  0.12647059559822083)
(X_432  0.0833333432674408)
(X_433  0.0519607849419117)
(X_434  0.04803921654820442)
(X_435  0.05980392172932625)
(X_436  0.14411765336990356)
(X_437  0.15980392694473267)
(X_438  0.1715686321258545)
(X_439  0.17549020051956177)
(X_440  0.19117647409439087)
(X_441  0.24215686321258545)
(X_442  0.2245098203420639)
(X_443  0.2872548997402191)
(X_444  0.27941176295280457)
(X_445  0.28333333134651184)
(X_446  0.2911764681339264)
(X_447  0.40294119715690613)
(X_448  0.17941176891326904)
(X_449  0.07941177487373352)
(X_450  0.07941177487373352)
(X_451  0.0833333432674408)
(X_452  0.0833333432674408)
(X_453  0.08725491166114807)
(X_454  0.1872549057006836)
(X_455  0.1872549057006836)
(X_456  0.1872549057006836)
(X_457  0.2029411792755127)
(X_458  0.21470588445663452)
(X_459  0.20686274766921997)
(X_460  0.17941176891326904)
(X_461  0.1558823585510254)
(X_462  0.1558823585510254)
(X_463  0.05980392172932625)
(X_464  0.06372549384832382)
(X_465  0.04019607976078987)
(X_466  0.01666666939854622)
(X_467  0.11666666716337204)
(X_468  0.1401960849761963)
(X_469  0.16764706373214722)
(X_470  0.17941176891326904)
(X_471  0.17941176891326904)
(X_472  0.21078431606292725)
(X_473  0.22254902124404907)
(X_474  0.2343137264251709)
(X_475  0.25)
(X_476  0.04411764815449715)
(X_477  0.04803921654820442)
(X_478  0.14803922176361084)
(X_479  0.14803922176361084)
(X_480  0.0519607849419117)
(X_481  0.0519607849419117)
(X_482  0.0519607849419117)
(X_483  0.1558823585510254)
(X_484  0.16372549533843994)
(X_485  0.17941176891326904)
(X_486  0.09117648005485535)
(X_487  0.0833333432674408)
(X_488  0.05980392172932625)
(X_489  0.04019607976078987)
(X_490  0.04019607976078987)
(X_491  0.04411764815449715)
(X_492  0.05588235333561897)
(X_493  0.03235294297337532)
(X_494  0.008823529817163944)
(X_495  0.11274509876966476)
(X_496  0.13235294818878174)
(X_497  0.1558823585510254)
(X_498  0.16764706373214722)
(X_499  0.16764706373214722)
(X_500  0.17549020051956177)
(X_501  0.0833333432674408)
(X_502  0.09509804844856262)
(X_503  0.10686275362968445)
(X_504  0.012745101936161518)
(X_505  0.01666666939854622)
(X_506  0.11666666716337204)
(X_507  0.01666666939854622)
(X_508  0.020588237792253494)
(X_509  0.12058823555707932)
(X_510  0.12058823555707932)
(X_511  0.02450980618596077)
(X_512  0.03235294297337532)
(X_513  0.04411764815449715)
(X_514  0.05588235333561897)
(X_515  0.0519607849419117)
(X_516  0.03235294297337532)
(X_517  0.020588237792253494)
(X_518  0.020588237792253494)
(X_519  0.02450980618596077)
(X_520  0.04019607976078987)
(X_521  0.020588237792253494)
(X_522  0.004901961423456669)
(X_523  0.004901961423456669)
(X_524  0.020588237792253494)
(X_525  0.1401960849761963)
(X_526  0.15196079015731812)
(X_527  0.15196079015731812)
(X_528  0.06372549384832382)
(X_529  0.07156863063573837)
(X_530  0.07941177487373352)
(X_531  0.0833333432674408)
(X_532  0.10490196198225021)
(X_533  0.10490196198225021)
(X_534  0.10490196198225021)
(X_535  0.10490196198225021)
(X_536  0.10882353037595749)
(X_537  0.10882353037595749)
(X_538  0.10882353037595749)
(X_539  0.11274509876966476)
(X_540  0.008823529817163944)
(X_541  0.01666666939854622)
(X_542  0.02450980618596077)
(X_543  0.02450980618596077)
(X_544  0.012745101936161518)
(X_545  0.004901961423456669)
(X_546  0.004901961423456669)
(X_547  0.012745101936161518)
(X_548  0.12058823555707932)
(X_549  0.008823529817163944)
(X_550  -0.0029411755967885256)
(X_551  -0.0029411755967885256)
(X_552  0.10882353037595749)
(X_553  0.12450980395078659)
(X_554  0.12843137979507446)
(X_555  0.13235294818878174)
(X_556  0.15980392694473267)
(X_557  0.16372549533843994)
(X_558  0.16764706373214722)
(X_559  0.1715686321258545)
(X_560  0.09705882519483566)
(X_561  -0.0029411755967885256)
(X_562  -0.0029411755967885256)
(X_563  0.0009803927969187498)
(X_564  0.0009803927969187498)
(X_565  0.0009803927969187498)
(X_566  0.004901961423456669)
(X_567  0.004901961423456669)
(X_568  -0.0029411755967885256)
(X_569  0.0009803927969187498)
(X_570  0.004901961423456669)
(X_571  0.004901961423456669)
(X_572  0.0009803927969187498)
(X_573  -0.0029411755967885256)
(X_574  0.0009803927969187498)
(X_575  0.0009803927969187498)
(X_576  0.004901961423456669)
(X_577  -0.0029411755967885256)
(X_578  -0.006862743757665157)
(X_579  0.09313725680112839)
(X_580  0.09705882519483566)
(X_581  0.10490196198225021)
(X_582  0.10882353037595749)
(X_583  0.11274509876966476)
(X_584  0.13235294818878174)
(X_585  0.03235294297337532)
(X_586  0.03235294297337532)
(X_587  0.03235294297337532)
(X_588  0.08137255162000656)
(X_589  -0.014705880545079708)
(X_590  -0.014705880545079708)
(X_591  -0.014705880545079708)
(X_592  -0.010784312151372433)
(X_593  0.08921568840742111)
(X_594  0.08921568840742111)
(X_595  0.08921568840742111)
(X_596  0.09313725680112839)
(X_597  -0.006862743757665157)
(X_598  -0.006862743757665157)
(X_599  -0.006862743757665157)
(X_600  -0.006862743757665157)
(X_601  -0.006862743757665157)
(X_602  -0.0029411755967885256)
(X_603  -0.0029411755967885256)
(X_604  0.09313725680112839)
(X_605  0.09313725680112839)
(X_606  0.08921568840742111)
(X_607  0.08921568840742111)
(X_608  0.08921568840742111)
(X_609  0.09313725680112839)
(X_610  0.09313725680112839)
(X_611  0.09705882519483566)
(X_612  0.11274509876966476)
(X_613  0.012745101936161518)
(X_614  0.10882353037595749)
(X_615  0.10882353037595749)
(X_616  0.07352941483259201)
(X_617  0.07352941483259201)
(X_618  -0.026470588520169258)
(X_619  -0.022549020126461983)
(X_620  -0.022549020126461983)
(X_621  0.08137255162000656)
(X_622  -0.018627449870109558)
(X_623  -0.018627449870109558)
(X_624  0.09313725680112839)
(X_625  -0.010784312151372433)
(X_626  -0.014705880545079708)
(X_627  -0.014705880545079708)
(X_628  -0.010784312151372433)
(X_629  -0.010784312151372433)
(X_630  -0.010784312151372433)
(X_631  -0.010784312151372433)
(X_632  -0.014705880545079708)
(X_633  -0.010784312151372433)
(X_634  -0.010784312151372433)
(X_635  -0.010784312151372433)
(X_636  -0.014705880545079708)
(X_637  0.08529412001371384)
(X_638  0.08529412001371384)
(X_639  0.08529412001371384)
(X_640  0.004901961423456669)
(X_641  0.004901961423456669)
(X_642  0.10098039358854294)
(X_643  0.10098039358854294)
(X_644  0.07352941483259201)
(X_645  -0.026470588520169258)
(X_646  0.07352941483259201)
(X_647  0.07745098322629929)
(X_648  0.07745098322629929)
(X_649  0.08137255162000656)
(X_650  0.08137255162000656)
(X_651  0.08137255162000656)
(X_652  -0.006862743757665157)
(X_653  -0.010784312151372433)
(X_654  -0.018627449870109558)
(X_655  -0.018627449870109558)
(X_656  -0.014705880545079708)
(X_657  -0.014705880545079708)
(X_658  -0.014705880545079708)
(X_659  -0.018627449870109558)
(X_660  0.08137255162000656)
(X_661  0.08529412001371384)
(X_662  0.09313725680112839)
(X_663  0.08921568840742111)
(X_664  -0.014705880545079708)
(X_665  0.08137255162000656)
(X_666  0.08137255162000656)
(X_667  -0.018627449870109558)
(X_668  -0.006862743757665157)
(X_669  -0.010784312151372433)
(X_670  0.08529412001371384)
(X_671  -0.014705880545079708)
(X_672  0.07745098322629929)
(X_673  -0.022549020126461983)
(X_674  -0.022549020126461983)
(X_675  -0.022549020126461983)
(X_676  -0.022549020126461983)
(X_677  0.07745098322629929)
(X_678  0.07745098322629929)
(X_679  0.07745098322629929)
(X_680  -0.022549020126461983)
(X_681  -0.022549020126461983)
(X_682  -0.022549020126461983)
(X_683  -0.022549020126461983)
(X_684  0.07745098322629929)
(X_685  -0.022549020126461983)
(X_686  -0.022549020126461983)
(X_687  -0.022549020126461983)
(X_688  0.08137255162000656)
(X_689  -0.018627449870109558)
(X_690  -0.018627449870109558)
(X_691  -0.018627449870109558)
(X_692  -0.018627449870109558)
(X_693  -0.018627449870109558)
(X_694  -0.018627449870109558)
(X_695  0.08137255162000656)
(X_696  0.07745098322629929)
(X_697  0.08137255162000656)
(X_698  0.08529412001371384)
(X_699  0.08921568840742111)
(X_700  0.07745098322629929)
(X_701  0.07745098322629929)
(X_702  0.07745098322629929)
(X_703  0.07745098322629929)
(X_704  0.07745098322629929)
(X_705  -0.022549020126461983)
(X_706  -0.022549020126461983)
(X_707  -0.022549020126461983)
(X_708  -0.022549020126461983)
(X_709  -0.022549020126461983)
(X_710  -0.022549020126461983)
(X_711  -0.022549020126461983)
(X_712  -0.022549020126461983)
(X_713  -0.022549020126461983)
(X_714  -0.022549020126461983)
(X_715  -0.022549020126461983)
(X_716  0.08137255162000656)
(X_717  -0.018627449870109558)
(X_718  -0.018627449870109558)
(X_719  -0.018627449870109558)
(X_720  0.08137255162000656)
(X_721  0.08137255162000656)
(X_722  0.08137255162000656)
(X_723  0.08137255162000656)
(X_724  0.07745098322629929)
(X_725  0.08137255162000656)
(X_726  0.08529412001371384)
(X_727  0.08921568840742111)
(X_728  0.07745098322629929)
(X_729  0.07745098322629929)
(X_730  0.07745098322629929)
(X_731  0.07745098322629929)
(X_732  0.07745098322629929)
(X_733  0.07745098322629929)
(X_734  0.07745098322629929)
(X_735  0.07745098322629929)
(X_736  -0.022549020126461983)
(X_737  -0.022549020126461983)
(X_738  -0.022549020126461983)
(X_739  -0.022549020126461983)
(X_740  -0.022549020126461983)
(X_741  -0.022549020126461983)
(X_742  -0.022549020126461983)
(X_743  -0.022549020126461983)
(X_744  -0.018627449870109558)
(X_745  -0.018627449870109558)
(X_746  -0.018627449870109558)
(X_747  -0.018627449870109558)
(X_748  -0.018627449870109558)
(X_749  0.08137255162000656)
(X_750  -0.018627449870109558)
(X_751  0.08137255162000656)
(X_752  0.07745098322629929)
(X_753  0.08137255162000656)
(X_754  0.08529412001371384)
(X_755  0.08921568840742111)
(X_756  0.07745098322629929)
(X_757  0.07745098322629929)
(X_758  0.07745098322629929)
(X_759  0.07745098322629929)
(X_760  -0.022549020126461983)
(X_761  -0.022549020126461983)
(X_762  -0.022549020126461983)
(X_763  -0.022549020126461983)
(X_764  -0.022549020126461983)
(X_765  -0.022549020126461983)
(X_766  -0.022549020126461983)
(X_767  -0.022549020126461983)
(X_768  -0.022549020126461983)
(X_769  -0.022549020126461983)
(X_770  -0.022549020126461983)
(X_771  -0.022549020126461983)
(X_772  -0.018627449870109558)
(X_773  -0.018627449870109558)
(X_774  -0.018627449870109558)
(X_775  -0.018627449870109558)
(X_776  0.08137255162000656)
(X_777  0.08137255162000656)
(X_778  -0.018627449870109558)
(X_779  0.08137255162000656)
(X_780  -0.022549020126461983)
(X_781  0.08137255162000656)
(X_782  0.08529412001371384)
(X_783  -0.010784312151372433)
(Y_0 -5.5508527755737305)
(Y_1 5.596185684204102)
(Y_2 -2.297454833984375)
(Y_3 3.0087485313415527))