((X_0  0.15196079015731812)
(X_1  0.1558823585510254)
(X_2  0.05980392172932625)
(X_3  0.05980392172932625)
(X_4  0.15980392694473267)
(X_5  0.0519607849419117)
(X_6  0.04803921654820442)
(X_7  0.04019607976078987)
(X_8  0.16372549533843994)
(X_9  0.1558823585510254)
(X_10  0.15196079015731812)
(X_11  0.1558823585510254)
(X_12  0.16372549533843994)
(X_13  0.15980392694473267)
(X_14  0.14411765336990356)
(X_15  0.13235294818878174)
(X_16  0.028431374579668045)
(X_17  0.03235294297337532)
(X_18  0.04411764815449715)
(X_19  0.05980392172932625)
(X_20  0.1715686321258545)
(X_21  0.1715686321258545)
(X_22  0.06372549384832382)
(X_23  0.05588235333561897)
(X_24  0.15980392694473267)
(X_25  0.16372549533843994)
(X_26  0.0676470622420311)
(X_27  0.16372549533843994)
(X_28  0.14803922176361084)
(X_29  0.15196079015731812)
(X_30  0.05588235333561897)
(X_31  0.05980392172932625)
(X_32  0.05588235333561897)
(X_33  0.0519607849419117)
(X_34  0.04803921654820442)
(X_35  0.14411765336990356)
(X_36  0.16764706373214722)
(X_37  0.05980392172932625)
(X_38  0.05588235333561897)
(X_39  0.05980392172932625)
(X_40  0.06372549384832382)
(X_41  0.05980392172932625)
(X_42  0.04411764815449715)
(X_43  0.03235294297337532)
(X_44  0.10686275362968445)
(X_45  0.19117647409439087)
(X_46  0.16764706373214722)
(X_47  0.04803921654820442)
(X_48  0.04019607976078987)
(X_49  0.04803921654820442)
(X_50  0.05588235333561897)
(X_51  0.05980392172932625)
(X_52  0.16764706373214722)
(X_53  0.16764706373214722)
(X_54  0.06372549384832382)
(X_55  0.1558823585510254)
(X_56  0.14411765336990356)
(X_57  0.04803921654820442)
(X_58  0.04803921654820442)
(X_59  0.0519607849419117)
(X_60  0.0519607849419117)
(X_61  0.0519607849419117)
(X_62  0.04803921654820442)
(X_63  0.04803921654820442)
(X_64  0.14803922176361084)
(X_65  0.04411764815449715)
(X_66  0.04019607976078987)
(X_67  0.04411764815449715)
(X_68  0.15196079015731812)
(X_69  0.0519607849419117)
(X_70  0.04411764815449715)
(X_71  0.036274511367082596)
(X_72  0.004901961423456669)
(X_73  0.012745101936161518)
(X_74  0.020588237792253494)
(X_75  0.036274511367082596)
(X_76  0.14803922176361084)
(X_77  0.15980392694473267)
(X_78  0.16764706373214722)
(X_79  0.17549020051956177)
(X_80  0.16764706373214722)
(X_81  0.16372549533843994)
(X_82  0.15980392694473267)
(X_83  0.15196079015731812)
(X_84  0.136274516582489)
(X_85  0.1401960849761963)
(X_86  0.1401960849761963)
(X_87  0.14411765336990356)
(X_88  0.14411765336990356)
(X_89  0.14411765336990356)
(X_90  0.14411765336990356)
(X_91  0.14411765336990356)
(X_92  0.036274511367082596)
(X_93  0.036274511367082596)
(X_94  0.04019607976078987)
(X_95  0.04411764815449715)
(X_96  0.04803921654820442)
(X_97  0.0519607849419117)
(X_98  0.15196079015731812)
(X_99  0.15196079015731812)
(X_100  0.15196079015731812)
(X_101  0.1558823585510254)
(X_102  0.15980392694473267)
(X_103  0.15980392694473267)
(X_104  0.15196079015731812)
(X_105  0.04411764815449715)
(X_106  0.04019607976078987)
(X_107  0.04019607976078987)
(X_108  0.0519607849419117)
(X_109  0.04803921654820442)
(X_110  0.04411764815449715)
(X_111  0.14411765336990356)
(X_112  0.036274511367082596)
(X_113  0.136274516582489)
(X_114  0.136274516582489)
(X_115  0.136274516582489)
(X_116  0.136274516582489)
(X_117  0.136274516582489)
(X_118  0.036274511367082596)
(X_119  0.04019607976078987)
(X_120  0.04803921654820442)
(X_121  0.0519607849419117)
(X_122  0.0519607849419117)
(X_123  0.04803921654820442)
(X_124  0.04411764815449715)
(X_125  0.04411764815449715)
(X_126  0.04803921654820442)
(X_127  0.04803921654820442)
(X_128  0.1558823585510254)
(X_129  0.1558823585510254)
(X_130  0.14803922176361084)
(X_131  0.136274516582489)
(X_132  0.12843137979507446)
(X_133  0.13235294818878174)
(X_134  0.15196079015731812)
(X_135  0.16764706373214722)
(X_136  0.05588235333561897)
(X_137  0.04019607976078987)
(X_138  0.12843137979507446)
(X_139  0.12450980395078659)
(X_140  0.14803922176361084)
(X_141  0.14411765336990356)
(X_142  0.1401960849761963)
(X_143  0.136274516582489)
(X_144  0.036274511367082596)
(X_145  0.036274511367082596)
(X_146  0.036274511367082596)
(X_147  0.1401960849761963)
(X_148  0.1401960849761963)
(X_149  0.14411765336990356)
(X_150  0.14411765336990356)
(X_151  0.136274516582489)
(X_152  0.12450980395078659)
(X_153  0.12058823555707932)
(X_154  0.12843137979507446)
(X_155  0.13235294818878174)
(X_156  0.02450980618596077)
(X_157  0.06372549384832382)
(X_158  0.21470588445663452)
(X_159  0.2539215683937073)
(X_160  0.2656862735748291)
(X_161  0.16960784792900085)
(X_162  0.17352941632270813)
(X_163  0.2774509787559509)
(X_164  0.13823530077934265)
(X_165  0.10686275362968445)
(X_166  0.07156863063573837)
(X_167  0.1558823585510254)
(X_168  0.0676470622420311)
(X_169  0.06372549384832382)
(X_170  0.05588235333561897)
(X_171  0.14803922176361084)
(X_172  0.14411765336990356)
(X_173  0.04411764815449715)
(X_174  0.04411764815449715)
(X_175  0.04411764815449715)
(X_176  0.13235294818878174)
(X_177  0.1401960849761963)
(X_178  0.14803922176361084)
(X_179  0.14803922176361084)
(X_180  0.14803922176361084)
(X_181  0.05588235333561897)
(X_182  0.07156863063573837)
(X_183  0.08725491166114807)
(X_184  0.28921568393707275)
(X_185  0.33235296607017517)
(X_186  0.3911764919757843)
(X_187  0.4264706075191498)
(X_188  0.33039215207099915)
(X_189  0.3225490152835846)
(X_190  0.31470587849617004)
(X_191  0.41470590233802795)
(X_192  0.40294119715690613)
(X_193  0.3637255132198334)
(X_194  0.2088235467672348)
(X_195  0.17352941632270813)
(X_196  0.0833333432674408)
(X_197  0.17549020051956177)
(X_198  0.16764706373214722)
(X_199  0.05980392172932625)
(X_200  0.0519607849419117)
(X_201  0.14803922176361084)
(X_202  0.0519607849419117)
(X_203  0.0519607849419117)
(X_204  0.04411764815449715)
(X_205  0.05980392172932625)
(X_206  0.18333333730697632)
(X_207  0.19901961088180542)
(X_208  0.21470588445663452)
(X_209  0.13823530077934265)
(X_210  0.16568627953529358)
(X_211  0.18921568989753723)
(X_212  0.32058826088905334)
(X_213  0.3245098292827606)
(X_214  0.3284313976764679)
(X_215  0.3401961028575897)
(X_216  0.27156862616539)
(X_217  0.3382352888584137)
(X_218  0.5245097875595093)
(X_219  0.5872549414634705)
(X_220  0.551960825920105)
(X_221  0.4049019515514374)
(X_222  0.34215685725212097)
(X_223  0.39901962876319885)
(X_224  0.3696078360080719)
(X_225  0.4009803831577301)
(X_226  0.5049019455909729)
(X_227  0.4539215862751007)
(X_228  0.4068627655506134)
(X_229  0.29509803652763367)
(X_230  0.29509803652763367)
(X_231  0.2911764681339264)
(X_232  0.2598039209842682)
(X_233  0.26372548937797546)
(X_234  0.3754902184009552)
(X_235  0.3794117867946625)
(X_236  0.26764705777168274)
(X_237  0.22058825194835663)
(X_238  0.15392157435417175)
(X_239  0.10686275362968445)
(X_240  0.27156862616539)
(X_241  0.3911764919757843)
(X_242  0.3950980603694916)
(X_243  0.3911764919757843)
(X_244  0.5127450823783875)
(X_245  0.5872549414634705)
(X_246  0.5284313559532166)
(X_247  0.5676470994949341)
(X_248  0.5833333730697632)
(X_249  0.5598039627075195)
(X_250  0.5166666507720947)
(X_251  0.47745099663734436)
(X_252  0.37745097279548645)
(X_253  0.3892156779766083)
(X_254  0.3813725411891937)
(X_255  0.3499999940395355)
(X_256  0.4382353127002716)
(X_257  0.45000001788139343)
(X_258  0.46176472306251526)
(X_259  0.4539215862751007)
(X_260  0.385294109582901)
(X_261  0.32647058367729187)
(X_262  0.24803923070430756)
(X_263  0.19705882668495178)
(X_264  0.19705882668495178)
(X_265  0.23235295712947845)
(X_266  0.3715686500072479)
(X_267  0.39901962876319885)
(X_268  0.5637255311012268)
(X_269  0.5323529243469238)
(X_270  0.49313727021217346)
(X_271  0.44607844948768616)
(X_272  0.4696078598499298)
(X_273  0.4539215862751007)
(X_274  0.43039217591285706)
(X_275  0.47156864404678345)
(X_276  0.5872549414634705)
(X_277  0.5794118046760559)
(X_278  0.46764707565307617)
(X_279  0.4598039388656616)
(X_280  0.31078431010246277)
(X_281  0.41470590233802795)
(X_282  0.4107843339443207)
(X_283  0.3068627417087555)
(X_284  0.3225490152835846)
(X_285  0.4421568810939789)
(X_286  0.43431374430656433)
(X_287  0.41862747073173523)
(X_288  0.2598039209842682)
(X_289  0.23627452552318573)
(X_290  0.2245098203420639)
(X_291  0.2598039209842682)
(X_292  0.3382352888584137)
(X_293  0.44411763548851013)
(X_294  0.5343137383460999)
(X_295  0.5852941274642944)
(X_296  0.5715686678886414)
(X_297  0.44607844948768616)
(X_298  0.3637255132198334)
(X_299  0.3558823764324188)
(X_300  0.4107843339443207)
(X_301  0.36764708161354065)
(X_302  0.22843138873577118)
(X_303  0.385294109582901)
(X_304  0.4480392038822174)
(X_305  0.44411763548851013)
(X_306  0.44411763548851013)
(X_307  0.44411763548851013)
(X_308  0.41862747073173523)
(X_309  0.4264706075191498)
(X_310  0.34215685725212097)
(X_311  0.3539215624332428)
(X_312  0.36176469922065735)
(X_313  0.3539215624332428)
(X_314  0.33039215207099915)
(X_315  0.3068627417087555)
(X_316  0.4225490391254425)
(X_317  0.43431374430656433)
(X_318  0.4696078598499298)
(X_319  0.5166666507720947)
(X_320  0.5637255311012268)
(X_321  0.48725491762161255)
(X_322  0.48725491762161255)
(X_323  0.479411780834198)
(X_324  0.3186274468898773)
(X_325  0.23235295712947845)
(X_326  0.30490198731422424)
(X_327  0.344117671251297)
(X_328  0.32647058367729187)
(X_329  0.29901960492134094)
(X_330  0.24411766231060028)
(X_331  0.3813725411891937)
(X_332  0.551960825920105)
(X_333  0.5441176295280457)
(X_334  0.4362744987010956)
(X_335  0.42450979351997375)
(X_336  0.479411780834198)
(X_337  0.5872549414634705)
(X_338  0.595098078250885)
(X_339  0.595098078250885)
(X_340  0.5833333730697632)
(X_341  0.5676470994949341)
(X_342  0.4598039388656616)
(X_343  0.4637255072593689)
(X_344  0.5833333730697632)
(X_345  0.5637255311012268)
(X_346  0.4362744987010956)
(X_347  0.40882351994514465)
(X_348  0.3735294044017792)
(X_349  0.32647058367729187)
(X_350  0.2754901945590973)
(X_351  0.33627453446388245)
(X_352  0.2656862735748291)
(X_353  0.3284313976764679)
(X_354  0.2911764681339264)
(X_355  0.2754901945590973)
(X_356  0.27941176295280457)
(X_357  0.344117671251297)
(X_358  0.3245098292827606)
(X_359  0.4696078598499298)
(X_360  0.5049019455909729)
(X_361  0.49313727021217346)
(X_362  0.3813725411891937)
(X_363  0.3696078360080719)
(X_364  0.33039215207099915)
(X_365  0.41470590233802795)
(X_366  0.3950980603694916)
(X_367  0.38333335518836975)
(X_368  0.3715686500072479)
(X_369  0.36764708161354065)
(X_370  0.2911764681339264)
(X_371  0.32647058367729187)
(X_372  0.3382352888584137)
(X_373  0.3186274468898773)
(X_374  0.2911764681339264)
(X_375  0.3754902184009552)
(X_376  0.3637255132198334)
(X_377  0.24803923070430756)
(X_378  0.22058825194835663)
(X_379  0.20098040997982025)
(X_380  0.22254902124404907)
(X_381  0.20490197837352753)
(X_382  0.3558823764324188)
(X_383  0.20098040997982025)
(X_384  0.20490197837352753)
(X_385  0.20098040997982025)
(X_386  0.15784314274787903)
(X_387  0.24803923070430756)
(X_388  0.41862747073173523)
(X_389  0.4068627655506134)
(X_390  0.387254923582077)
(X_391  0.3715686500072479)
(X_392  0.32058826088905334)
(X_393  0.2813725471496582)
(X_394  0.25784313678741455)
(X_395  0.25784313678741455)
(X_396  0.2617647051811218)
(X_397  0.2617647051811218)
(X_398  0.2774509787559509)
(X_399  0.20098040997982025)
(X_400  0.15784314274787903)
(X_401  0.15392157435417175)
(X_402  0.15000000596046448)
(X_403  0.25784313678741455)
(X_404  0.2696078419685364)
(X_405  0.16568627953529358)
(X_406  0.1460784375667572)
(X_407  0.22647058963775635)
(X_408  0.22254902124404907)
(X_409  0.15392157435417175)
(X_410  0.16960784792900085)
(X_411  0.24215686321258545)
(X_412  0.30490198731422424)
(X_413  0.31666669249534607)
(X_414  0.23039215803146362)
(X_415  0.2656862735748291)
(X_416  0.24411766231060028)
(X_417  0.23627452552318573)
(X_418  0.22058825194835663)
(X_419  0.20490197837352753)
(X_420  0.13823530077934265)
(X_421  0.0990196168422699)
(X_422  0.18333333730697632)
(X_423  0.11078432202339172)
(X_424  0.13431373238563538)
(X_425  0.11862745881080627)
(X_426  0.09509804844856262)
(X_427  0.1872549057006836)
(X_428  0.09509804844856262)
(X_429  0.07549020648002625)
(X_430  0.05588235333561897)
(X_431  0.0519607849419117)
(X_432  0.05980392172932625)
(X_433  0.16372549533843994)
(X_434  0.15980392694473267)
(X_435  0.0519607849419117)
(X_436  0.11666666716337204)
(X_437  0.1715686321258545)
(X_438  0.22254902124404907)
(X_439  0.21470588445663452)
(X_440  0.24607843160629272)
(X_441  0.11862745881080627)
(X_442  0.04019607976078987)
(X_443  0.114705890417099)
(X_444  0.11078432202339172)
(X_445  0.11078432202339172)
(X_446  0.11078432202339172)
(X_447  0.21078431606292725)
(X_448  0.1715686321258545)
(X_449  0.16764706373214722)
(X_450  0.16372549533843994)
(X_451  0.15980392694473267)
(X_452  0.1558823585510254)
(X_453  0.15196079015731812)
(X_454  0.14803922176361084)
(X_455  0.14803922176361084)
(X_456  0.1558823585510254)
(X_457  0.15196079015731812)
(X_458  0.15196079015731812)
(X_459  0.14803922176361084)
(X_460  0.14411765336990356)
(X_461  0.1401960849761963)
(X_462  0.036274511367082596)
(X_463  0.036274511367082596)
(X_464  0.04019607976078987)
(X_465  0.04019607976078987)
(X_466  0.04411764815449715)
(X_467  0.14411765336990356)
(X_468  0.14803922176361084)
(X_469  0.14803922176361084)
(X_470  0.15196079015731812)
(X_471  0.15196079015731812)
(X_472  0.19901961088180542)
(X_473  0.19509804248809814)
(X_474  0.19117647409439087)
(X_475  0.1872549057006836)
(X_476  0.0519607849419117)
(X_477  0.15196079015731812)
(X_478  0.14803922176361084)
(X_479  0.14411765336990356)
(X_480  0.04411764815449715)
(X_481  0.04019607976078987)
(X_482  0.036274511367082596)
(X_483  0.036274511367082596)
(X_484  0.14411765336990356)
(X_485  0.14411765336990356)
(X_486  0.1401960849761963)
(X_487  0.136274516582489)
(X_488  0.13235294818878174)
(X_489  0.12843137979507446)
(X_490  0.028431374579668045)
(X_491  0.02450980618596077)
(X_492  0.028431374579668045)
(X_493  0.028431374579668045)
(X_494  0.028431374579668045)
(X_495  0.13235294818878174)
(X_496  0.13235294818878174)
(X_497  0.136274516582489)
(X_498  0.136274516582489)
(X_499  0.036274511367082596)
(X_500  0.16764706373214722)
(X_501  0.06372549384832382)
(X_502  0.06372549384832382)
(X_503  0.05980392172932625)
(X_504  0.12843137979507446)
(X_505  0.12843137979507446)
(X_506  0.12450980395078659)
(X_507  0.02450980618596077)
(X_508  0.02450980618596077)
(X_509  0.02450980618596077)
(X_510  0.02450980618596077)
(X_511  0.02450980618596077)
(X_512  0.028431374579668045)
(X_513  0.028431374579668045)
(X_514  0.02450980618596077)
(X_515  0.02450980618596077)
(X_516  0.020588237792253494)
(X_517  0.01666666939854622)
(X_518  0.01666666939854622)
(X_519  0.012745101936161518)
(X_520  0.012745101936161518)
(X_521  0.012745101936161518)
(X_522  0.012745101936161518)
(X_523  0.01666666939854622)
(X_524  0.01666666939854622)
(X_525  0.01666666939854622)
(X_526  0.11666666716337204)
(X_527  0.12058823555707932)
(X_528  0.136274516582489)
(X_529  0.036274511367082596)
(X_530  0.03235294297337532)
(X_531  0.03235294297337532)
(X_532  0.10882353037595749)
(X_533  0.10882353037595749)
(X_534  0.11274509876966476)
(X_535  0.11274509876966476)
(X_536  0.11666666716337204)
(X_537  0.01666666939854622)
(X_538  0.01666666939854622)
(X_539  0.12058823555707932)
(X_540  0.020588237792253494)
(X_541  0.01666666939854622)
(X_542  0.11666666716337204)
(X_543  0.11274509876966476)
(X_544  0.11274509876966476)
(X_545  0.10882353037595749)
(X_546  0.10882353037595749)
(X_547  0.008823529817163944)
(X_548  0.10490196198225021)
(X_549  0.10490196198225021)
(X_550  0.10490196198225021)
(X_551  0.10490196198225021)
(X_552  0.10490196198225021)
(X_553  0.10490196198225021)
(X_554  0.10490196198225021)
(X_555  0.004901961423456669)
(X_556  0.12058823555707932)
(X_557  0.020588237792253494)
(X_558  0.020588237792253494)
(X_559  0.12058823555707932)
(X_560  0.10098039358854294)
(X_561  0.004901961423456669)
(X_562  0.10490196198225021)
(X_563  0.008823529817163944)
(X_564  0.012745101936161518)
(X_565  0.012745101936161518)
(X_566  0.01666666939854622)
(X_567  0.01666666939854622)
(X_568  0.012745101936161518)
(X_569  0.012745101936161518)
(X_570  0.11274509876966476)
(X_571  0.11274509876966476)
(X_572  0.008823529817163944)
(X_573  0.008823529817163944)
(X_574  0.008823529817163944)
(X_575  0.008823529817163944)
(X_576  0.004901961423456669)
(X_577  0.004901961423456669)
(X_578  0.004901961423456669)
(X_579  0.10098039358854294)
(X_580  0.10098039358854294)
(X_581  0.10098039358854294)
(X_582  0.10098039358854294)
(X_583  0.10098039358854294)
(X_584  0.008823529817163944)
(X_585  0.008823529817163944)
(X_586  0.008823529817163944)
(X_587  0.008823529817163944)
(X_588  0.10098039358854294)
(X_589  0.0009803927969187498)
(X_590  0.10490196198225021)
(X_591  0.10490196198225021)
(X_592  0.10882353037595749)
(X_593  0.012745101936161518)
(X_594  0.012745101936161518)
(X_595  0.012745101936161518)
(X_596  0.10882353037595749)
(X_597  0.10882353037595749)
(X_598  0.008823529817163944)
(X_599  0.008823529817163944)
(X_600  0.008823529817163944)
(X_601  0.008823529817163944)
(X_602  0.008823529817163944)
(X_603  0.008823529817163944)
(X_604  0.10490196198225021)
(X_605  0.10490196198225021)
(X_606  0.10490196198225021)
(X_607  0.10098039358854294)
(X_608  0.10098039358854294)
(X_609  0.10098039358854294)
(X_610  0.10098039358854294)
(X_611  0.09705882519483566)
(X_612  -0.0029411755967885256)
(X_613  -0.0029411755967885256)
(X_614  -0.0029411755967885256)
(X_615  0.09705882519483566)
(X_616  0.10098039358854294)
(X_617  0.0009803927969187498)
(X_618  0.10490196198225021)
(X_619  0.10490196198225021)
(X_620  0.10490196198225021)
(X_621  0.10490196198225021)
(X_622  0.004901961423456669)
(X_623  0.10490196198225021)
(X_624  0.0009803927969187498)
(X_625  0.10098039358854294)
(X_626  0.10098039358854294)
(X_627  0.10098039358854294)
(X_628  0.10098039358854294)
(X_629  0.0009803927969187498)
(X_630  0.10098039358854294)
(X_631  0.10098039358854294)
(X_632  0.004901961423456669)
(X_633  0.004901961423456669)
(X_634  0.0009803927969187498)
(X_635  0.0009803927969187498)
(X_636  0.10098039358854294)
(X_637  0.09705882519483566)
(X_638  0.09705882519483566)
(X_639  0.09705882519483566)
(X_640  -0.0029411755967885256)
(X_641  0.09705882519483566)
(X_642  0.09705882519483566)
(X_643  0.09705882519483566)
(X_644  0.10098039358854294)
(X_645  0.0009803927969187498)
(X_646  0.10098039358854294)
(X_647  0.10098039358854294)
(X_648  0.10098039358854294)
(X_649  0.10098039358854294)
(X_650  0.10098039358854294)
(X_651  0.10098039358854294)
(X_652  0.09705882519483566)
(X_653  0.09705882519483566)
(X_654  0.09705882519483566)
(X_655  0.09705882519483566)
(X_656  -0.0029411755967885256)
(X_657  -0.0029411755967885256)
(X_658  -0.0029411755967885256)
(X_659  -0.0029411755967885256)
(X_660  0.10098039358854294)
(X_661  0.10098039358854294)
(X_662  0.10098039358854294)
(X_663  0.09705882519483566)
(X_664  -0.0029411755967885256)
(X_665  -0.006862743757665157)
(X_666  -0.006862743757665157)
(X_667  -0.006862743757665157)
(X_668  0.004901961423456669)
(X_669  0.004901961423456669)
(X_670  0.004901961423456669)
(X_671  0.0009803927969187498)
(X_672  0.08529412001371384)
(X_673  -0.010784312151372433)
(X_674  -0.0029411755967885256)
(X_675  0.0009803927969187498)
(X_676  0.004901961423456669)
(X_677  0.10490196198225021)
(X_678  0.10490196198225021)
(X_679  0.004901961423456669)
(X_680  0.09705882519483566)
(X_681  0.09313725680112839)
(X_682  0.09313725680112839)
(X_683  0.09705882519483566)
(X_684  0.10490196198225021)
(X_685  0.10490196198225021)
(X_686  -0.0029411755967885256)
(X_687  -0.006862743757665157)
(X_688  0.09705882519483566)
(X_689  0.09705882519483566)
(X_690  0.0009803927969187498)
(X_691  -0.006862743757665157)
(X_692  0.08529412001371384)
(X_693  -0.018627449870109558)
(X_694  -0.018627449870109558)
(X_695  -0.014705880545079708)
(X_696  -0.010784312151372433)
(X_697  0.08529412001371384)
(X_698  0.08921568840742111)
(X_699  0.10490196198225021)
(X_700  0.004901961423456669)
(X_701  0.004901961423456669)
(X_702  0.10490196198225021)
(X_703  0.10490196198225021)
(X_704  0.0009803927969187498)
(X_705  -0.006862743757665157)
(X_706  -0.010784312151372433)
(X_707  -0.014705880545079708)
(X_708  -0.014705880545079708)
(X_709  -0.018627449870109558)
(X_710  0.08137255162000656)
(X_711  0.08921568840742111)
(X_712  0.09705882519483566)
(X_713  0.0009803927969187498)
(X_714  -0.006862743757665157)
(X_715  -0.014705880545079708)
(X_716  0.09705882519483566)
(X_717  0.10098039358854294)
(X_718  0.004901961423456669)
(X_719  0.004901961423456669)
(X_720  0.0009803927969187498)
(X_721  0.10098039358854294)
(X_722  0.10490196198225021)
(X_723  0.10490196198225021)
(X_724  -0.014705880545079708)
(X_725  0.07745098322629929)
(X_726  0.08137255162000656)
(X_727  0.09313725680112839)
(X_728  0.2539215683937073)
(X_729  0.15000000596046448)
(X_730  0.24215686321258545)
(X_731  0.2343137264251709)
(X_732  0.11862745881080627)
(X_733  0.10686275362968445)
(X_734  0.09509804844856262)
(X_735  0.1872549057006836)
(X_736  0.1558823585510254)
(X_737  0.14803922176361084)
(X_738  0.14411765336990356)
(X_739  0.14411765336990356)
(X_740  0.14411765336990356)
(X_741  0.136274516582489)
(X_742  0.12450980395078659)
(X_743  0.11666666716337204)
(X_744  0.10098039358854294)
(X_745  0.10098039358854294)
(X_746  0.09705882519483566)
(X_747  -0.006862743757665157)
(X_748  -0.010784312151372433)
(X_749  -0.014705880545079708)
(X_750  -0.018627449870109558)
(X_751  -0.018627449870109558)
(X_752  0.008823529817163944)
(X_753  0.09313725680112839)
(X_754  0.08921568840742111)
(X_755  0.09705882519483566)
(X_756  0.979411780834198)
(X_757  0.8754901885986328)
(X_758  0.9637255072593689)
(X_759  0.8519607782363892)
(X_760  0.8323529362678528)
(X_761  0.8127450942993164)
(X_762  0.8970588445663452)
(X_763  0.8892157077789307)
(X_764  0.8460784554481506)
(X_765  0.8343137502670288)
(X_766  0.8186274766921997)
(X_767  0.7029411792755127)
(X_768  0.6911764740943909)
(X_769  0.6715686321258545)
(X_770  0.6519607901573181)
(X_771  0.636274516582489)
(X_772  0.6049019694328308)
(X_773  0.593137264251709)
(X_774  0.5774509906768799)
(X_775  0.5578431487083435)
(X_776  0.5421568751335144)
(X_777  0.5264706015586853)
(X_778  0.5107843279838562)
(X_779  0.4990196228027344)
(X_780  0.4362744987010956)
(X_781  0.4166666567325592)
(X_782  0.4049019515514374)
(X_783  0.41274508833885193)
(Y_0 -31.39421844482422)
(Y_1 27.093963623046875)
(Y_2 -17.56016731262207)
(Y_3 22.043182373046875))