((X_0  0.21274511516094208)
(X_1  0.2245098203420639)
(X_2  0.33627453446388245)
(X_3  0.25196078419685364)
(X_4  0.26372548937797546)
(X_5  0.26764705777168274)
(X_6  0.27156862616539)
(X_7  0.3715686500072479)
(X_8  0.4264706075191498)
(X_9  0.4225490391254425)
(X_10  0.4382353127002716)
(X_11  0.46176472306251526)
(X_12  0.46568629145622253)
(X_13  0.45000001788139343)
(X_14  0.3382352888584137)
(X_15  0.4421568810939789)
(X_16  0.5127450823783875)
(X_17  0.5088235139846802)
(X_18  0.5049019455909729)
(X_19  0.5088235139846802)
(X_20  0.520588219165802)
(X_21  0.5441176295280457)
(X_22  0.5637255311012268)
(X_23  0.5794118046760559)
(X_24  0.45588237047195435)
(X_25  0.45588237047195435)
(X_26  0.45588237047195435)
(X_27  0.4598039388656616)
(X_28  0.08725491166114807)
(X_29  0.19117647409439087)
(X_30  0.19901961088180542)
(X_31  0.0990196168422699)
(X_32  0.2029411792755127)
(X_33  0.19901961088180542)
(X_34  0.09509804844856262)
(X_35  0.09117648005485535)
(X_36  0.18333333730697632)
(X_37  0.1715686321258545)
(X_38  0.07549020648002625)
(X_39  0.19117647409439087)
(X_40  0.19509804248809814)
(X_41  0.18333333730697632)
(X_42  0.08725491166114807)
(X_43  0.19901961088180542)
(X_44  0.0676470622420311)
(X_45  0.16764706373214722)
(X_46  0.16764706373214722)
(X_47  0.16764706373214722)
(X_48  0.17549020051956177)
(X_49  0.0833333432674408)
(X_50  0.19117647409439087)
(X_51  0.19509804248809814)
(X_52  0.07549020648002625)
(X_53  0.07941177487373352)
(X_54  0.0833333432674408)
(X_55  0.08725491166114807)
(X_56  0.0990196168422699)
(X_57  0.19901961088180542)
(X_58  0.19901961088180542)
(X_59  0.0990196168422699)
(X_60  0.19509804248809814)
(X_61  0.1872549057006836)
(X_62  0.18333333730697632)
(X_63  0.17941176891326904)
(X_64  0.21078431606292725)
(X_65  0.19117647409439087)
(X_66  0.18333333730697632)
(X_67  0.19117647409439087)
(X_68  0.19509804248809814)
(X_69  0.19117647409439087)
(X_70  0.20686274766921997)
(X_71  0.22647058963775635)
(X_72  0.1872549057006836)
(X_73  0.19117647409439087)
(X_74  0.19509804248809814)
(X_75  0.0990196168422699)
(X_76  0.10294118523597717)
(X_77  0.10294118523597717)
(X_78  0.19901961088180542)
(X_79  0.0990196168422699)
(X_80  0.0833333432674408)
(X_81  0.08725491166114807)
(X_82  0.09509804844856262)
(X_83  0.10294118523597717)
(X_84  0.09117648005485535)
(X_85  0.19117647409439087)
(X_86  0.19509804248809814)
(X_87  0.19509804248809814)
(X_88  0.19901961088180542)
(X_89  0.19901961088180542)
(X_90  0.19901961088180542)
(X_91  0.19901961088180542)
(X_92  0.19901961088180542)
(X_93  0.17941176891326904)
(X_94  0.1715686321258545)
(X_95  0.17941176891326904)
(X_96  0.17941176891326904)
(X_97  0.17549020051956177)
(X_98  0.08725491166114807)
(X_99  0.10686275362968445)
(X_100  0.07156863063573837)
(X_101  0.07156863063573837)
(X_102  0.17549020051956177)
(X_103  0.17941176891326904)
(X_104  0.0833333432674408)
(X_105  0.08725491166114807)
(X_106  0.19117647409439087)
(X_107  0.19509804248809814)
(X_108  0.07941177487373352)
(X_109  0.18333333730697632)
(X_110  0.19117647409439087)
(X_111  0.09509804844856262)
(X_112  0.1558823585510254)
(X_113  0.1558823585510254)
(X_114  0.15980392694473267)
(X_115  0.06372549384832382)
(X_116  0.07156863063573837)
(X_117  0.07549020648002625)
(X_118  0.07941177487373352)
(X_119  0.0833333432674408)
(X_120  0.19509804248809814)
(X_121  0.18333333730697632)
(X_122  0.0833333432674408)
(X_123  0.0990196168422699)
(X_124  0.0990196168422699)
(X_125  0.1872549057006836)
(X_126  0.19117647409439087)
(X_127  0.2029411792755127)
(X_128  0.09509804844856262)
(X_129  0.08725491166114807)
(X_130  0.07941177487373352)
(X_131  0.07549020648002625)
(X_132  0.07941177487373352)
(X_133  0.08725491166114807)
(X_134  0.19901961088180542)
(X_135  0.20686274766921997)
(X_136  0.19901961088180542)
(X_137  0.2029411792755127)
(X_138  0.10294118523597717)
(X_139  0.10686275362968445)
(X_140  0.08725491166114807)
(X_141  0.0833333432674408)
(X_142  0.0833333432674408)
(X_143  0.0833333432674408)
(X_144  0.08725491166114807)
(X_145  0.09117648005485535)
(X_146  0.19509804248809814)
(X_147  0.0990196168422699)
(X_148  0.05980392172932625)
(X_149  0.0519607849419117)
(X_150  0.05980392172932625)
(X_151  0.07549020648002625)
(X_152  0.07549020648002625)
(X_153  0.05980392172932625)
(X_154  0.1558823585510254)
(X_155  0.16372549533843994)
(X_156  0.19509804248809814)
(X_157  0.1872549057006836)
(X_158  0.1715686321258545)
(X_159  0.05588235333561897)
(X_160  0.05588235333561897)
(X_161  0.15980392694473267)
(X_162  0.07156863063573837)
(X_163  0.07941177487373352)
(X_164  0.17549020051956177)
(X_165  0.17941176891326904)
(X_166  0.07941177487373352)
(X_167  0.07941177487373352)
(X_168  0.17941176891326904)
(X_169  0.17941176891326904)
(X_170  0.17549020051956177)
(X_171  0.07549020648002625)
(X_172  0.07549020648002625)
(X_173  0.07941177487373352)
(X_174  0.1872549057006836)
(X_175  0.19117647409439087)
(X_176  0.10294118523597717)
(X_177  0.09509804844856262)
(X_178  0.0990196168422699)
(X_179  0.114705890417099)
(X_180  0.114705890417099)
(X_181  0.0990196168422699)
(X_182  0.09509804844856262)
(X_183  0.10294118523597717)
(X_184  0.19901961088180542)
(X_185  0.09117648005485535)
(X_186  0.0833333432674408)
(X_187  0.07549020648002625)
(X_188  0.17549020051956177)
(X_189  0.17549020051956177)
(X_190  0.18333333730697632)
(X_191  0.08725491166114807)
(X_192  0.07549020648002625)
(X_193  0.07941177487373352)
(X_194  0.17941176891326904)
(X_195  0.0833333432674408)
(X_196  0.07549020648002625)
(X_197  0.17549020051956177)
(X_198  0.07156863063573837)
(X_199  0.07549020648002625)
(X_200  0.07941177487373352)
(X_201  0.09117648005485535)
(X_202  0.0990196168422699)
(X_203  0.10686275362968445)
(X_204  0.1872549057006836)
(X_205  0.07156863063573837)
(X_206  0.07156863063573837)
(X_207  0.07941177487373352)
(X_208  0.17941176891326904)
(X_209  0.16764706373214722)
(X_210  0.1715686321258545)
(X_211  0.18333333730697632)
(X_212  0.0676470622420311)
(X_213  0.07156863063573837)
(X_214  0.17549020051956177)
(X_215  0.17941176891326904)
(X_216  0.18333333730697632)
(X_217  0.1872549057006836)
(X_218  0.08725491166114807)
(X_219  0.09117648005485535)
(X_220  0.0676470622420311)
(X_221  0.1715686321258545)
(X_222  0.17549020051956177)
(X_223  0.0833333432674408)
(X_224  0.14803922176361084)
(X_225  0.14411765336990356)
(X_226  0.14411765336990356)
(X_227  0.1558823585510254)
(X_228  0.17549020051956177)
(X_229  0.1872549057006836)
(X_230  0.18333333730697632)
(X_231  0.17549020051956177)
(X_232  0.07941177487373352)
(X_233  0.14803922176361084)
(X_234  0.15980392694473267)
(X_235  0.17941176891326904)
(X_236  0.1558823585510254)
(X_237  0.15196079015731812)
(X_238  0.16764706373214722)
(X_239  0.15980392694473267)
(X_240  0.1558823585510254)
(X_241  0.19509804248809814)
(X_242  0.07549020648002625)
(X_243  0.04411764815449715)
(X_244  0.06372549384832382)
(X_245  0.07549020648002625)
(X_246  0.16764706373214722)
(X_247  0.07941177487373352)
(X_248  0.14411765336990356)
(X_249  0.0519607849419117)
(X_250  0.15980392694473267)
(X_251  0.16764706373214722)
(X_252  0.10686275362968445)
(X_253  0.10686275362968445)
(X_254  0.21470588445663452)
(X_255  0.13431373238563538)
(X_256  0.15784314274787903)
(X_257  0.17352941632270813)
(X_258  0.1774509847164154)
(X_259  0.16960784792900085)
(X_260  0.23235295712947845)
(X_261  0.3558823764324188)
(X_262  0.36764708161354065)
(X_263  0.24411766231060028)
(X_264  0.18137255311012268)
(X_265  0.11862745881080627)
(X_266  0.11078432202339172)
(X_267  0.1460784375667572)
(X_268  0.22647058963775635)
(X_269  0.13823530077934265)
(X_270  0.114705890417099)
(X_271  0.09509804844856262)
(X_272  0.2029411792755127)
(X_273  0.07941177487373352)
(X_274  0.1558823585510254)
(X_275  0.18333333730697632)
(X_276  0.0833333432674408)
(X_277  0.07941177487373352)
(X_278  0.16764706373214722)
(X_279  0.15980392694473267)
(X_280  0.4696078598499298)
(X_281  0.4696078598499298)
(X_282  0.47745099663734436)
(X_283  0.49313727021217346)
(X_284  0.5088235139846802)
(X_285  0.4166666567325592)
(X_286  0.41274508833885193)
(X_287  0.40882351994514465)
(X_288  0.4421568810939789)
(X_289  0.4735294282436371)
(X_290  0.43431374430656433)
(X_291  0.387254923582077)
(X_292  0.26372548937797546)
(X_293  0.2774509787559509)
(X_294  0.21078431606292725)
(X_295  0.25)
(X_296  0.387254923582077)
(X_297  0.3186274468898773)
(X_298  0.3343137204647064)
(X_299  0.46176472306251526)
(X_300  0.4892157018184662)
(X_301  0.3499999940395355)
(X_302  0.3068627417087555)
(X_303  0.4225490391254425)
(X_304  0.344117671251297)
(X_305  0.33627453446388245)
(X_306  0.31666669249534607)
(X_307  0.30098041892051697)
(X_308  0.45196080207824707)
(X_309  0.5441176295280457)
(X_310  0.5323529243469238)
(X_311  0.4166666567325592)
(X_312  0.3970588147640228)
(X_313  0.3735294044017792)
(X_314  0.3499999940395355)
(X_315  0.3382352888584137)
(X_316  0.43039217591285706)
(X_317  0.3068627417087555)
(X_318  0.18921568989753723)
(X_319  0.15784314274787903)
(X_320  0.24803923070430756)
(X_321  0.30098041892051697)
(X_322  0.19509804248809814)
(X_323  0.2029411792755127)
(X_324  0.23627452552318573)
(X_325  0.28333333134651184)
(X_326  0.27941176295280457)
(X_327  0.3794117867946625)
(X_328  0.43039217591285706)
(X_329  0.36176469922065735)
(X_330  0.36176469922065735)
(X_331  0.4696078598499298)
(X_332  0.4323529303073883)
(X_333  0.4323529303073883)
(X_334  0.42843136191368103)
(X_335  0.42843136191368103)
(X_336  0.457843154668808)
(X_337  0.34607842564582825)
(X_338  0.32647058367729187)
(X_339  0.2911764681339264)
(X_340  0.2558823525905609)
(X_341  0.22058825194835663)
(X_342  0.2970588207244873)
(X_343  0.2852941155433655)
(X_344  0.27156862616539)
(X_345  0.22058825194835663)
(X_346  0.17549020051956177)
(X_347  0.15980392694473267)
(X_348  0.2970588207244873)
(X_349  0.30490198731422424)
(X_350  0.22254902124404907)
(X_351  0.13823530077934265)
(X_352  0.23235295712947845)
(X_353  0.26372548937797546)
(X_354  0.18529412150382996)
(X_355  0.09509804844856262)
(X_356  0.1460784375667572)
(X_357  0.26764705777168274)
(X_358  0.32647058367729187)
(X_359  0.3382352888584137)
(X_360  0.36176469922065735)
(X_361  0.3735294044017792)
(X_362  0.3892156779766083)
(X_363  0.5088235139846802)
(X_364  0.3480392396450043)
(X_365  0.3480392396450043)
(X_366  0.24411766231060028)
(X_367  0.23235295712947845)
(X_368  0.22058825194835663)
(X_369  0.22058825194835663)
(X_370  0.3245098292827606)
(X_371  0.23235295712947845)
(X_372  0.32058826088905334)
(X_373  0.28921568393707275)
(X_374  0.2029411792755127)
(X_375  0.07941177487373352)
(X_376  0.2539215683937073)
(X_377  0.2696078419685364)
(X_378  0.2656862735748291)
(X_379  0.32058826088905334)
(X_380  0.13431373238563538)
(X_381  0.27352941036224365)
(X_382  0.2186274528503418)
(X_383  0.1401960849761963)
(X_384  0.19509804248809814)
(X_385  0.2970588207244873)
(X_386  0.3284313976764679)
(X_387  0.22058825194835663)
(X_388  0.2245098203420639)
(X_389  0.240196093916893)
(X_390  0.26372548937797546)
(X_391  0.28333333134651184)
(X_392  0.344117671251297)
(X_393  0.3401961028575897)
(X_394  0.3284313976764679)
(X_395  0.3088235557079315)
(X_396  0.29313725233078003)
(X_397  0.1931372582912445)
(X_398  0.3088235557079315)
(X_399  0.3245098292827606)
(X_400  0.29313725233078003)
(X_401  0.1774509847164154)
(X_402  0.15392157435417175)
(X_403  0.13823530077934265)
(X_404  0.13823530077934265)
(X_405  0.24607843160629272)
(X_406  0.2852941155433655)
(X_407  0.23627452552318573)
(X_408  0.22254902124404907)
(X_409  0.24607843160629272)
(X_410  0.23823529481887817)
(X_411  0.1460784375667572)
(X_412  0.20098040997982025)
(X_413  0.22058825194835663)
(X_414  0.20098040997982025)
(X_415  0.20490197837352753)
(X_416  0.31666669249534607)
(X_417  0.3245098292827606)
(X_418  0.33627453446388245)
(X_419  0.24411766231060028)
(X_420  0.5754902362823486)
(X_421  0.551960825920105)
(X_422  0.5009803771972656)
(X_423  0.43039217591285706)
(X_424  0.36764708161354065)
(X_425  0.3245098292827606)
(X_426  0.2088235467672348)
(X_427  0.21274511516094208)
(X_428  0.19705882668495178)
(X_429  0.1617647111415863)
(X_430  0.2696078419685364)
(X_431  0.2774509787559509)
(X_432  0.2539215683937073)
(X_433  0.1617647111415863)
(X_434  0.1931372582912445)
(X_435  0.30490198731422424)
(X_436  0.2813725471496582)
(X_437  0.1303921639919281)
(X_438  0.08725491166114807)
(X_439  0.2186274528503418)
(X_440  0.16568627953529358)
(X_441  0.13823530077934265)
(X_442  0.23039215803146362)
(X_443  0.2970588207244873)
(X_444  0.2539215683937073)
(X_445  0.2539215683937073)
(X_446  0.2539215683937073)
(X_447  0.15392157435417175)
(X_448  0.3186274468898773)
(X_449  0.31078431010246277)
(X_450  0.3029411733150482)
(X_451  0.3029411733150482)
(X_452  0.31470587849617004)
(X_453  0.3343137204647064)
(X_454  0.3578431308269501)
(X_455  0.3735294044017792)
(X_456  0.34215685725212097)
(X_457  0.34215685725212097)
(X_458  0.4264706075191498)
(X_459  0.3911764919757843)
(X_460  0.3558823764324188)
(X_461  0.3401961028575897)
(X_462  0.3558823764324188)
(X_463  0.3715686500072479)
(X_464  0.3127451241016388)
(X_465  0.3088235557079315)
(X_466  0.21666668355464935)
(X_467  0.3480392396450043)
(X_468  0.387254923582077)
(X_469  0.31078431010246277)
(X_470  0.31078431010246277)
(X_471  0.29901960492134094)
(X_472  0.27156862616539)
(X_473  0.27156862616539)
(X_474  0.26764705777168274)
(X_475  0.2598039209842682)
(X_476  0.2813725471496582)
(X_477  0.1774509847164154)
(X_478  0.16960784792900085)
(X_479  0.16568627953529358)
(X_480  0.2696078419685364)
(X_481  0.2852941155433655)
(X_482  0.30098041892051697)
(X_483  0.3088235557079315)
(X_484  0.2813725471496582)
(X_485  0.2970588207244873)
(X_486  0.3127451241016388)
(X_487  0.3127451241016388)
(X_488  0.3127451241016388)
(X_489  0.3245098292827606)
(X_490  0.3480392396450043)
(X_491  0.3715686500072479)
(X_492  0.35196080803871155)
(X_493  0.24411766231060028)
(X_494  0.24411766231060028)
(X_495  0.2598039209842682)
(X_496  0.2872548997402191)
(X_497  0.29509803652763367)
(X_498  0.2872548997402191)
(X_499  0.2754901945590973)
(X_500  0.27941176295280457)
(X_501  0.3794117867946625)
(X_502  0.3754902184009552)
(X_503  0.27156862616539)
(X_504  0.22647058963775635)
(X_505  0.12254902720451355)
(X_506  0.2186274528503418)
(X_507  0.21470588445663452)
(X_508  0.21470588445663452)
(X_509  0.2186274528503418)
(X_510  0.12254902720451355)
(X_511  0.12647059559822083)
(X_512  0.07941177487373352)
(X_513  0.0990196168422699)
(X_514  0.11862745881080627)
(X_515  0.1303921639919281)
(X_516  0.2343137264251709)
(X_517  0.24215686321258545)
(X_518  0.25784313678741455)
(X_519  0.17352941632270813)
(X_520  0.24215686321258545)
(X_521  0.23039215803146362)
(X_522  0.12647059559822083)
(X_523  0.2343137264251709)
(X_524  0.24607843160629272)
(X_525  0.25)
(X_526  0.23823529481887817)
(X_527  0.12254902720451355)
(X_528  0.24607843160629272)
(X_529  0.24607843160629272)
(X_530  0.24215686321258545)
(X_531  0.14215686917304993)
(X_532  0.07156863063573837)
(X_533  0.07156863063573837)
(X_534  0.1715686321258545)
(X_535  0.1715686321258545)
(X_536  0.16764706373214722)
(X_537  0.16764706373214722)
(X_538  0.16764706373214722)
(X_539  0.07156863063573837)
(X_540  0.16764706373214722)
(X_541  0.17549020051956177)
(X_542  0.07941177487373352)
(X_543  0.07549020648002625)
(X_544  0.16764706373214722)
(X_545  0.15980392694473267)
(X_546  0.16372549533843994)
(X_547  0.07156863063573837)
(X_548  0.0676470622420311)
(X_549  0.05980392172932625)
(X_550  0.05980392172932625)
(X_551  0.06372549384832382)
(X_552  0.07549020648002625)
(X_553  0.17941176891326904)
(X_554  0.17549020051956177)
(X_555  0.16764706373214722)
(X_556  0.1715686321258545)
(X_557  0.1715686321258545)
(X_558  0.1715686321258545)
(X_559  0.07156863063573837)
(X_560  0.04019607976078987)
(X_561  0.04411764815449715)
(X_562  0.14803922176361084)
(X_563  0.04803921654820442)
(X_564  0.0519607849419117)
(X_565  0.15196079015731812)
(X_566  0.15196079015731812)
(X_567  0.15196079015731812)
(X_568  0.15196079015731812)
(X_569  0.15196079015731812)
(X_570  0.14803922176361084)
(X_571  0.14803922176361084)
(X_572  0.14411765336990356)
(X_573  0.14803922176361084)
(X_574  0.15980392694473267)
(X_575  0.1715686321258545)
(X_576  0.16372549533843994)
(X_577  0.15980392694473267)
(X_578  0.05980392172932625)
(X_579  0.06372549384832382)
(X_580  0.16764706373214722)
(X_581  0.07549020648002625)
(X_582  0.07549020648002625)
(X_583  0.07549020648002625)
(X_584  0.05980392172932625)
(X_585  0.15980392694473267)
(X_586  0.16372549533843994)
(X_587  0.16372549533843994)
(X_588  0.04411764815449715)
(X_589  0.14411765336990356)
(X_590  0.14803922176361084)
(X_591  0.15196079015731812)
(X_592  0.1558823585510254)
(X_593  0.05980392172932625)
(X_594  0.06372549384832382)
(X_595  0.06372549384832382)
(X_596  0.0519607849419117)
(X_597  0.04803921654820442)
(X_598  0.04019607976078987)
(X_599  0.1401960849761963)
(X_600  0.14411765336990356)
(X_601  0.15196079015731812)
(X_602  0.16372549533843994)
(X_603  0.1715686321258545)
(X_604  0.14803922176361084)
(X_605  0.14411765336990356)
(X_606  0.04019607976078987)
(X_607  0.04019607976078987)
(X_608  0.036274511367082596)
(X_609  0.04019607976078987)
(X_610  0.04019607976078987)
(X_611  0.04411764815449715)
(X_612  0.136274516582489)
(X_613  0.136274516582489)
(X_614  0.136274516582489)
(X_615  0.036274511367082596)
(X_616  0.012745101936161518)
(X_617  0.012745101936161518)
(X_618  0.11274509876966476)
(X_619  0.11274509876966476)
(X_620  0.11666666716337204)
(X_621  0.020588237792253494)
(X_622  0.02450980618596077)
(X_623  0.028431374579668045)
(X_624  0.0519607849419117)
(X_625  0.04803921654820442)
(X_626  0.04411764815449715)
(X_627  0.04411764815449715)
(X_628  0.14411765336990356)
(X_629  0.1401960849761963)
(X_630  0.036274511367082596)
(X_631  0.13235294818878174)
(X_632  0.0519607849419117)
(X_633  0.15196079015731812)
(X_634  0.14803922176361084)
(X_635  0.14411765336990356)
(X_636  0.04019607976078987)
(X_637  0.04019607976078987)
(X_638  0.04803921654820442)
(X_639  0.0519607849419117)
(X_640  0.04803921654820442)
(X_641  0.04803921654820442)
(X_642  0.04803921654820442)
(X_643  0.04803921654820442)
(X_644  0.1401960849761963)
(X_645  0.136274516582489)
(X_646  0.12843137979507446)
(X_647  0.02450980618596077)
(X_648  0.12843137979507446)
(X_649  0.13235294818878174)
(X_650  0.136274516582489)
(X_651  0.04019607976078987)
(X_652  0.020588237792253494)
(X_653  0.02450980618596077)
(X_654  0.028431374579668045)
(X_655  0.04019607976078987)
(X_656  0.14411765336990356)
(X_657  0.04019607976078987)
(X_658  0.02450980618596077)
(X_659  0.11666666716337204)
(X_660  0.020588237792253494)
(X_661  0.12450980395078659)
(X_662  0.02450980618596077)
(X_663  0.12058823555707932)
(X_664  0.12058823555707932)
(X_665  0.12450980395078659)
(X_666  0.136274516582489)
(X_667  0.14411765336990356)
(X_668  0.136274516582489)
(X_669  0.136274516582489)
(X_670  0.13235294818878174)
(X_671  0.13235294818878174)
(X_672  0.01666666939854622)
(X_673  0.020588237792253494)
(X_674  0.12450980395078659)
(X_675  0.12450980395078659)
(X_676  0.12450980395078659)
(X_677  0.12450980395078659)
(X_678  0.020588237792253494)
(X_679  0.01666666939854622)
(X_680  0.020588237792253494)
(X_681  0.020588237792253494)
(X_682  0.020588237792253494)
(X_683  0.020588237792253494)
(X_684  0.020588237792253494)
(X_685  0.020588237792253494)
(X_686  0.020588237792253494)
(X_687  0.020588237792253494)
(X_688  0.020588237792253494)
(X_689  0.020588237792253494)
(X_690  0.020588237792253494)
(X_691  0.020588237792253494)
(X_692  0.020588237792253494)
(X_693  0.020588237792253494)
(X_694  0.12058823555707932)
(X_695  0.12058823555707932)
(X_696  0.11666666716337204)
(X_697  0.12058823555707932)
(X_698  0.02450980618596077)
(X_699  0.028431374579668045)
(X_700  0.11666666716337204)
(X_701  0.11666666716337204)
(X_702  0.12058823555707932)
(X_703  0.020588237792253494)
(X_704  0.12058823555707932)
(X_705  0.020588237792253494)
(X_706  0.11666666716337204)
(X_707  0.11666666716337204)
(X_708  0.11666666716337204)
(X_709  0.11666666716337204)
(X_710  0.01666666939854622)
(X_711  0.01666666939854622)
(X_712  0.01666666939854622)
(X_713  0.01666666939854622)
(X_714  0.11666666716337204)
(X_715  0.11666666716337204)
(X_716  0.12058823555707932)
(X_717  0.12058823555707932)
(X_718  0.12058823555707932)
(X_719  0.12058823555707932)
(X_720  0.12058823555707932)
(X_721  0.12058823555707932)
(X_722  0.12058823555707932)
(X_723  0.12058823555707932)
(X_724  0.01666666939854622)
(X_725  0.12058823555707932)
(X_726  0.12450980395078659)
(X_727  0.02450980618596077)
(X_728  0.008823529817163944)
(X_729  0.11274509876966476)
(X_730  0.11274509876966476)
(X_731  0.11666666716337204)
(X_732  0.11666666716337204)
(X_733  0.012745101936161518)
(X_734  0.012745101936161518)
(X_735  0.008823529817163944)
(X_736  0.012745101936161518)
(X_737  0.012745101936161518)
(X_738  0.012745101936161518)
(X_739  0.012745101936161518)
(X_740  0.012745101936161518)
(X_741  0.012745101936161518)
(X_742  0.012745101936161518)
(X_743  0.012745101936161518)
(X_744  0.020588237792253494)
(X_745  0.12058823555707932)
(X_746  0.12058823555707932)
(X_747  0.12058823555707932)
(X_748  0.12058823555707932)
(X_749  0.12058823555707932)
(X_750  0.12058823555707932)
(X_751  0.12058823555707932)
(X_752  0.01666666939854622)
(X_753  0.11666666716337204)
(X_754  0.12058823555707932)
(X_755  0.02450980618596077)
(X_756  0.004901961423456669)
(X_757  0.10882353037595749)
(X_758  0.10882353037595749)
(X_759  0.11274509876966476)
(X_760  0.11274509876966476)
(X_761  0.008823529817163944)
(X_762  0.008823529817163944)
(X_763  0.004901961423456669)
(X_764  0.008823529817163944)
(X_765  0.008823529817163944)
(X_766  0.10882353037595749)
(X_767  0.10882353037595749)
(X_768  0.10882353037595749)
(X_769  0.10882353037595749)
(X_770  0.10882353037595749)
(X_771  0.10882353037595749)
(X_772  0.01666666939854622)
(X_773  0.11666666716337204)
(X_774  0.11666666716337204)
(X_775  0.11666666716337204)
(X_776  0.11666666716337204)
(X_777  0.11666666716337204)
(X_778  0.11666666716337204)
(X_779  0.11666666716337204)
(X_780  0.11274509876966476)
(X_781  0.11666666716337204)
(X_782  0.12058823555707932)
(X_783  0.12450980395078659)
(Y_0 57.43861770629883)
(Y_1 -81.84867095947266)
(Y_2 3.3692522048950195)
(Y_3 23.990365982055664))