((X_0  1.0499999523162842)
(X_1  0.949999988079071)
(X_2  0.949999988079071)
(X_3  1.0460784435272217)
(X_4  1.0421568155288696)
(X_5  0.9421568512916565)
(X_6  0.9382352828979492)
(X_7  0.9382352828979492)
(X_8  0.9460784196853638)
(X_9  0.9912859797477722)
(X_10  1.0460784435272217)
(X_11  0.949999988079071)
(X_12  0.9460784196853638)
(X_13  1.0421568155288696)
(X_14  1.0382353067398071)
(X_15  0.9382352828979492)
(X_16  0.9343137145042419)
(X_17  0.9382352828979492)
(X_18  0.9382352828979492)
(X_19  0.9343137145042419)
(X_20  1.034313678741455)
(X_21  1.034313678741455)
(X_22  0.9421568512916565)
(X_23  0.9460784196853638)
(X_24  1.0382353067398071)
(X_25  1.0421568155288696)
(X_26  0.949999988079071)
(X_27  1.0499999523162842)
(X_28  1.0499999523162842)
(X_29  0.949999988079071)
(X_30  0.949999988079071)
(X_31  0.949999988079071)
(X_32  0.949999988079071)
(X_33  0.949999988079071)
(X_34  0.949999988079071)
(X_35  1.004792332649231)
(X_36  0.949999988079071)
(X_37  0.949999988079071)
(X_38  0.949999988079071)
(X_39  0.949999988079071)
(X_40  0.949999988079071)
(X_41  0.949999988079071)
(X_42  1.0499999523162842)
(X_43  0.949999988079071)
(X_44  1.0499999523162842)
(X_45  1.0499999523162842)
(X_46  1.0499999523162842)
(X_47  0.949999988079071)
(X_48  0.949999988079071)
(X_49  0.949999988079071)
(X_50  0.949999988079071)
(X_51  0.949999988079071)
(X_52  1.0499999523162842)
(X_53  1.0499999523162842)
(X_54  0.9952075481414795)
(X_55  1.0499999523162842)
(X_56  1.0421568155288696)
(X_57  0.9460784196853638)
(X_58  0.9460784196853638)
(X_59  0.9460784196853638)
(X_60  0.949999988079071)
(X_61  0.949999988079071)
(X_62  0.949999988079071)
(X_63  0.949999988079071)
(X_64  0.949999988079071)
(X_65  0.949999988079071)
(X_66  0.949999988079071)
(X_67  0.949999988079071)
(X_68  0.949999988079071)
(X_69  0.949999988079071)
(X_70  0.949999988079071)
(X_71  0.949999988079071)
(X_72  0.9186274409294128)
(X_73  0.9225490093231201)
(X_74  0.9264705777168274)
(X_75  1.034313678741455)
(X_76  1.0382353067398071)
(X_77  1.0460784435272217)
(X_78  1.0499999523162842)
(X_79  1.0499999523162842)
(X_80  1.0421568155288696)
(X_81  0.9382352828979492)
(X_82  0.9343137145042419)
(X_83  1.034313678741455)
(X_84  1.0499999523162842)
(X_85  1.0499999523162842)
(X_86  1.0499999523162842)
(X_87  1.0499999523162842)
(X_88  0.949999988079071)
(X_89  0.949999988079071)
(X_90  0.949999988079071)
(X_91  0.949999988079071)
(X_92  1.0499999523162842)
(X_93  0.949999988079071)
(X_94  0.949999988079071)
(X_95  0.9460784196853638)
(X_96  1.0460784435272217)
(X_97  0.9460784196853638)
(X_98  1.004792332649231)
(X_99  1.0499999523162842)
(X_100  1.0499999523162842)
(X_101  1.0499999523162842)
(X_102  1.0499999523162842)
(X_103  1.0499999523162842)
(X_104  1.0499999523162842)
(X_105  0.949999988079071)
(X_106  0.9382352828979492)
(X_107  0.9264705777168274)
(X_108  0.9421568512916565)
(X_109  0.949999988079071)
(X_110  0.949999988079071)
(X_111  1.0499999523162842)
(X_112  0.949999988079071)
(X_113  0.949999988079071)
(X_114  1.0499999523162842)
(X_115  1.0499999523162842)
(X_116  1.0499999523162842)
(X_117  0.949999988079071)
(X_118  0.9460784196853638)
(X_119  1.0008708238601685)
(X_120  1.0499999523162842)
(X_121  1.004792332649231)
(X_122  1.004792332649231)
(X_123  0.949999988079071)
(X_124  0.949999988079071)
(X_125  0.949999988079071)
(X_126  0.949999988079071)
(X_127  0.949999988079071)
(X_128  1.022549033164978)
(X_129  1.022549033164978)
(X_130  1.0264705419540405)
(X_131  1.0382353067398071)
(X_132  1.0499999523162842)
(X_133  1.0499999523162842)
(X_134  1.004792332649231)
(X_135  1.0499999523162842)
(X_136  0.9264705777168274)
(X_137  0.9264705777168274)
(X_138  0.9755997061729431)
(X_139  1.034313678741455)
(X_140  1.0499999523162842)
(X_141  0.949999988079071)
(X_142  0.949999988079071)
(X_143  0.949999988079071)
(X_144  0.949999988079071)
(X_145  0.949999988079071)
(X_146  0.9460784196853638)
(X_147  1.0460784435272217)
(X_148  1.0421568155288696)
(X_149  1.0460784435272217)
(X_150  1.0499999523162842)
(X_151  1.0499999523162842)
(X_152  0.9952075481414795)
(X_153  0.949999988079071)
(X_154  1.0499999523162842)
(X_155  1.0499999523162842)
(X_156  0.9952075481414795)
(X_157  0.949999988079071)
(X_158  0.9912859797477722)
(X_159  1.0499999523162842)
(X_160  1.0499999523162842)
(X_161  0.949999988079071)
(X_162  0.9460784196853638)
(X_163  0.9303921461105347)
(X_164  0.9952075481414795)
(X_165  0.949999988079071)
(X_166  1.022549033164978)
(X_167  0.9833333492279053)
(X_168  0.906862735748291)
(X_169  1.0107842683792114)
(X_170  1.0147058963775635)
(X_171  1.018627405166626)
(X_172  1.0264705419540405)
(X_173  0.9851846098899841)
(X_174  0.9343137145042419)
(X_175  1.0382353067398071)
(X_176  1.018627405166626)
(X_177  1.022549033164978)
(X_178  1.0264705419540405)
(X_179  1.0264705419540405)
(X_180  1.018627405166626)
(X_181  0.9029411673545837)
(X_182  0.8911764621734619)
(X_183  0.979411780834198)
(X_184  0.979411780834198)
(X_185  0.9480392336845398)
(X_186  0.9049019813537598)
(X_187  0.8617647290229797)
(X_188  0.7773414850234985)
(X_189  0.6715686321258545)
(X_190  0.7127451300621033)
(X_191  0.6735294461250305)
(X_192  0.5009803771972656)
(X_193  0.41873699426651)
(X_194  0.32647058367729187)
(X_195  0.38333335518836975)
(X_196  0.32647058367729187)
(X_197  0.3343137204647064)
(X_198  0.4421568810939789)
(X_199  0.3499999940395355)
(X_200  0.36176469922065735)
(X_201  0.3735294044017792)
(X_202  0.3813725411891937)
(X_203  0.385294109582901)
(X_204  0.457843154668808)
(X_205  0.46176472306251526)
(X_206  0.457843154668808)
(X_207  0.45000001788139343)
(X_208  0.33039215207099915)
(X_209  0.29901960492134094)
(X_210  0.27156862616539)
(X_211  0.2558823525905609)
(X_212  0.3088235557079315)
(X_213  0.28921568393707275)
(X_214  0.16568627953529358)
(X_215  0.1991291493177414)
(X_216  0.1460784375667572)
(X_217  0.12254902720451355)
(X_218  0.1872549057006836)
(X_219  0.1558823585510254)
(X_220  0.1872549057006836)
(X_221  0.1872549057006836)
(X_222  0.0833333432674408)
(X_223  0.18333333730697632)
(X_224  0.0990196168422699)
(X_225  0.0990196168422699)
(X_226  0.0990196168422699)
(X_227  0.0990196168422699)
(X_228  0.09509804844856262)
(X_229  0.09117648005485535)
(X_230  0.08725491166114807)
(X_231  0.0833333432674408)
(X_232  0.09509804844856262)
(X_233  0.09509804844856262)
(X_234  0.19901961088180542)
(X_235  0.19901961088180542)
(X_236  0.0990196168422699)
(X_237  0.0990196168422699)
(X_238  0.09509804844856262)
(X_239  0.09117648005485535)
(X_240  0.07549020648002625)
(X_241  0.07549020648002625)
(X_242  0.17549020051956177)
(X_243  0.17941176891326904)
(X_244  0.19509804248809814)
(X_245  0.20686274766921997)
(X_246  0.19509804248809814)
(X_247  0.1715686321258545)
(X_248  0.08725491166114807)
(X_249  0.15000000596046448)
(X_250  0.21666668355464935)
(X_251  0.23627452552318573)
(X_252  0.0833333432674408)
(X_253  0.0833333432674408)
(X_254  0.0833333432674408)
(X_255  0.0833333432674408)
(X_256  0.0833333432674408)
(X_257  0.12461934983730316)
(X_258  0.17941176891326904)
(X_259  0.17941176891326904)
(X_260  0.09509804844856262)
(X_261  0.09117648005485535)
(X_262  0.17941176891326904)
(X_263  0.1715686321258545)
(X_264  0.11285463720560074)
(X_265  0.11677620559930801)
(X_266  0.17941176891326904)
(X_267  0.08725491166114807)
(X_268  0.18333333730697632)
(X_269  0.1872549057006836)
(X_270  0.17549020051956177)
(X_271  0.0519607849419117)
(X_272  0.04803921654820442)
(X_273  0.18333333730697632)
(X_274  0.24607843160629272)
(X_275  0.1931372582912445)
(X_276  0.387254923582077)
(X_277  0.4225490391254425)
(X_278  0.31078431010246277)
(X_279  0.3128546476364136)
(X_280  0.15980392694473267)
(X_281  0.16372549533843994)
(X_282  0.06372549384832382)
(X_283  0.06372549384832382)
(X_284  0.06372549384832382)
(X_285  0.16764706373214722)
(X_286  0.16764706373214722)
(X_287  0.16764706373214722)
(X_288  0.06372549384832382)
(X_289  0.05980392172932625)
(X_290  0.10501149296760559)
(X_291  0.05980392172932625)
(X_292  0.0676470622420311)
(X_293  0.07549020648002625)
(X_294  0.0833333432674408)
(X_295  0.08725491166114807)
(X_296  0.19509804248809814)
(X_297  0.1558823585510254)
(X_298  0.036274511367082596)
(X_299  0.07156863063573837)
(X_300  0.15000000596046448)
(X_301  0.32058826088905334)
(X_302  0.3598039448261261)
(X_303  0.36764708161354065)
(X_304  0.3224394917488098)
(X_305  0.21666668355464935)
(X_306  0.22058825194835663)
(X_307  0.34596890211105347)
(X_308  0.15980392694473267)
(X_309  0.16372549533843994)
(X_310  0.1715686321258545)
(X_311  0.17549020051956177)
(X_312  0.13028262555599213)
(X_313  0.12636105716228485)
(X_314  0.12243948876857758)
(X_315  0.15980392694473267)
(X_316  0.14803922176361084)
(X_317  0.1558823585510254)
(X_318  0.16764706373214722)
(X_319  0.17549020051956177)
(X_320  0.17941176891326904)
(X_321  0.07156863063573837)
(X_322  0.06372549384832382)
(X_323  0.15980392694473267)
(X_324  0.17941176891326904)
(X_325  0.0676470622420311)
(X_326  0.0990196168422699)
(X_327  0.18921568989753723)
(X_328  0.27941176295280457)
(X_329  0.4107843339443207)
(X_330  0.38333335518836975)
(X_331  0.3480392396450043)
(X_332  0.20098040997982025)
(X_333  0.22058825194835663)
(X_334  0.3343137204647064)
(X_335  0.479411780834198)
(X_336  0.16372549533843994)
(X_337  0.16764706373214722)
(X_338  0.17941176891326904)
(X_339  0.18333333730697632)
(X_340  0.18333333730697632)
(X_341  0.17549020051956177)
(X_342  0.05980392172932625)
(X_343  0.0519607849419117)
(X_344  0.15980392694473267)
(X_345  0.15980392694473267)
(X_346  0.05980392172932625)
(X_347  0.05980392172932625)
(X_348  0.05980392172932625)
(X_349  0.05980392172932625)
(X_350  0.05980392172932625)
(X_351  0.15980392694473267)
(X_352  0.21078431606292725)
(X_353  0.27352941036224365)
(X_354  0.26372548937797546)
(X_355  0.3068627417087555)
(X_356  0.2754901945590973)
(X_357  0.3284313976764679)
(X_358  0.3245098292827606)
(X_359  0.2558823525905609)
(X_360  0.3578431308269501)
(X_361  0.48725491762161255)
(X_362  0.5539215803146362)
(X_363  0.6068627834320068)
(X_364  0.04803921654820442)
(X_365  0.10675321519374847)
(X_366  0.1558823585510254)
(X_367  0.05980392172932625)
(X_368  0.05980392172932625)
(X_369  0.1558823585510254)
(X_370  0.0519607849419117)
(X_371  0.04803921654820442)
(X_372  0.0519607849419117)
(X_373  0.04411764815449715)
(X_374  0.0871453732252121)
(X_375  0.136274516582489)
(X_376  0.06372549384832382)
(X_377  0.10294118523597717)
(X_378  0.1460784375667572)
(X_379  0.17352941632270813)
(X_380  0.33235296607017517)
(X_381  0.35196080803871155)
(X_382  0.3794117867946625)
(X_383  0.3381257653236389)
(X_384  0.240196093916893)
(X_385  0.21274511516094208)
(X_386  0.2598039209842682)
(X_387  0.3891061544418335)
(X_388  0.5872549414634705)
(X_389  0.5794118046760559)
(X_390  0.44618797302246094)
(X_391  0.387254923582077)
(X_392  0.18333333730697632)
(X_393  0.17549020051956177)
(X_394  0.16372549533843994)
(X_395  0.05980392172932625)
(X_396  0.11285463720560074)
(X_397  0.18333333730697632)
(X_398  0.19901961088180542)
(X_399  0.21078431606292725)
(X_400  0.09509804844856262)
(X_401  0.09509804844856262)
(X_402  0.0990196168422699)
(X_403  0.2186274528503418)
(X_404  0.2539215683937073)
(X_405  0.30098041892051697)
(X_406  0.24803923070430756)
(X_407  0.2754901945590973)
(X_408  0.3715686500072479)
(X_409  0.33235296607017517)
(X_410  0.30490198731422424)
(X_411  0.3088235557079315)
(X_412  0.31666669249534607)
(X_413  0.23235295712947845)
(X_414  0.3029411733150482)
(X_415  0.4852941334247589)
(X_416  0.41274508833885193)
(X_417  0.3794117867946625)
(X_418  0.2322434037923813)
(X_419  0.2852941155433655)
(X_420  0.1617647111415863)
(X_421  0.14215686917304993)
(X_422  0.12254902720451355)
(X_423  0.11078432202339172)
(X_424  0.12254902720451355)
(X_425  0.15392157435417175)
(X_426  0.1931372582912445)
(X_427  0.27145910263061523)
(X_428  0.30098041892051697)
(X_429  0.21274511516094208)
(X_430  0.22843138873577118)
(X_431  0.24411766231060028)
(X_432  0.2558823525905609)
(X_433  0.3089330792427063)
(X_434  0.26764705777168274)
(X_435  0.26764705777168274)
(X_436  0.2852941155433655)
(X_437  0.28921568393707275)
(X_438  0.30490198731422424)
(X_439  0.30098041892051697)
(X_440  0.25784313678741455)
(X_441  0.25)
(X_442  0.25196078419685364)
(X_443  0.3735294044017792)
(X_444  0.2911764681339264)
(X_445  0.240196093916893)
(X_446  0.17352941632270813)
(X_447  0.23823529481887817)
(X_448  0.3401961028575897)
(X_449  0.24803923070430756)
(X_450  0.21666668355464935)
(X_451  0.2696078419685364)
(X_452  0.2617647051811218)
(X_453  0.30098041892051697)
(X_454  0.32058826088905334)
(X_455  0.3088235557079315)
(X_456  0.30490198731422424)
(X_457  0.3245098292827606)
(X_458  0.31666669249534607)
(X_459  0.3088235557079315)
(X_460  0.21666668355464935)
(X_461  0.1931372582912445)
(X_462  0.18529412150382996)
(X_463  0.23235295712947845)
(X_464  0.22058825194835663)
(X_465  0.1931372582912445)
(X_466  0.25784313678741455)
(X_467  0.25784313678741455)
(X_468  0.32058826088905334)
(X_469  0.4068627655506134)
(X_470  0.46568629145622253)
(X_471  0.48137256503105164)
(X_472  0.30490198731422424)
(X_473  0.27352941036224365)
(X_474  0.2343137264251709)
(X_475  0.20686274766921997)
(X_476  0.1931372582912445)
(X_477  0.20098040997982025)
(X_478  0.30098041892051697)
(X_479  0.29313725233078003)
(X_480  0.2088235467672348)
(X_481  0.24411766231060028)
(X_482  0.3224394917488098)
(X_483  0.3715686500072479)
(X_484  0.46568629145622253)
(X_485  0.42832183837890625)
(X_486  0.3343137204647064)
(X_487  0.28333333134651184)
(X_488  0.25196078419685364)
(X_489  0.2088235467672348)
(X_490  0.21274511516094208)
(X_491  0.2754901945590973)
(X_492  0.3539215624332428)
(X_493  0.44607844948768616)
(X_494  0.43431374430656433)
(X_495  0.43431374430656433)
(X_496  0.45000001788139343)
(X_497  0.46176472306251526)
(X_498  0.4382353127002716)
(X_499  0.3029411733150482)
(X_500  0.19302771985530853)
(X_501  0.11862745881080627)
(X_502  0.0990196168422699)
(X_503  0.08725491166114807)
(X_504  0.44607844948768616)
(X_505  0.34607842564582825)
(X_506  0.3656862676143646)
(X_507  0.4009803831577301)
(X_508  0.42450979351997375)
(X_509  0.49106693267822266)
(X_510  0.5480391979217529)
(X_511  0.5676470994949341)
(X_512  0.550000011920929)
(X_513  0.5696078538894653)
(X_514  0.5382353067398071)
(X_515  0.4911764860153198)
(X_516  0.45196080207824707)
(X_517  0.4049019515514374)
(X_518  0.41274508833885193)
(X_519  0.4754902124404907)
(X_520  0.4166666567325592)
(X_521  0.4205882251262665)
(X_522  0.41274508833885193)
(X_523  0.39313724637031555)
(X_524  0.3696078360080719)
(X_525  0.4225490391254425)
(X_526  0.344117671251297)
(X_527  0.228321835398674)
(X_528  0.15381203591823578)
(X_529  0.09509804844856262)
(X_530  0.09117648005485535)
(X_531  0.09117648005485535)
(X_532  0.5009803771972656)
(X_533  0.49313727021217346)
(X_534  0.5166666507720947)
(X_535  0.5676470994949341)
(X_536  0.5794118046760559)
(X_537  0.45196080207824707)
(X_538  0.44019606709480286)
(X_539  0.5145964026451111)
(X_540  0.4362744987010956)
(X_541  0.46764707565307617)
(X_542  0.5715686678886414)
(X_543  0.4637255072593689)
(X_544  0.45196080207824707)
(X_545  0.3970588147640228)
(X_546  0.3656862676143646)
(X_547  0.3970588147640228)
(X_548  0.45000001788139343)
(X_549  0.34215685725212097)
(X_550  0.31078431010246277)
(X_551  0.27156862616539)
(X_552  0.3401961028575897)
(X_553  0.30490198731422424)
(X_554  0.25)
(X_555  0.09509804844856262)
(X_556  0.19117647409439087)
(X_557  0.09117648005485535)
(X_558  0.09117648005485535)
(X_559  0.14596889913082123)
(X_560  0.4892157018184662)
(X_561  0.47745099663734436)
(X_562  0.4557728171348572)
(X_563  0.44411763548851013)
(X_564  0.4480392038822174)
(X_565  0.40882351994514465)
(X_566  0.39313724637031555)
(X_567  0.4049019515514374)
(X_568  0.42450979351997375)
(X_569  0.5362744927406311)
(X_570  0.5245097875595093)
(X_571  0.5284313559532166)
(X_572  0.42843136191368103)
(X_573  0.36176469922065735)
(X_574  0.2911764681339264)
(X_575  0.28333333134651184)
(X_576  0.2558823525905609)
(X_577  0.23627452552318573)
(X_578  0.20098040997982025)
(X_579  0.25784313678741455)
(X_580  0.24215686321258545)
(X_581  0.24215686321258545)
(X_582  0.22647058963775635)
(X_583  0.2029411792755127)
(X_584  0.17941176891326904)
(X_585  0.07549020648002625)
(X_586  0.07156863063573837)
(X_587  0.06372549384832382)
(X_588  0.43431374430656433)
(X_589  0.3382352888584137)
(X_590  0.3578431308269501)
(X_591  0.3892156779766083)
(X_592  0.3970588147640228)
(X_593  0.3813725411891937)
(X_594  0.4735294282436371)
(X_595  0.4735294282436371)
(X_596  0.457843154668808)
(X_597  0.4421568810939789)
(X_598  0.39901962876319885)
(X_599  0.387254923582077)
(X_600  0.29901960492134094)
(X_601  0.24803923070430756)
(X_602  0.18137255311012268)
(X_603  0.17352941632270813)
(X_604  0.18137255311012268)
(X_605  0.2774509787559509)
(X_606  0.25784313678741455)
(X_607  0.23039215803146362)
(X_608  0.22254902124404907)
(X_609  0.23039215803146362)
(X_610  0.22254902124404907)
(X_611  0.20686274766921997)
(X_612  0.17549020051956177)
(X_613  0.07156863063573837)
(X_614  0.15980392694473267)
(X_615  0.14803922176361084)
(X_616  0.2813725471496582)
(X_617  0.2970588207244873)
(X_618  0.2088235467672348)
(X_619  0.2088235467672348)
(X_620  0.22058825194835663)
(X_621  0.33627453446388245)
(X_622  0.23627452552318573)
(X_623  0.2793022394180298)
(X_624  0.3754902184009552)
(X_625  0.3598039448261261)
(X_626  0.32058826088905334)
(X_627  0.3088235557079315)
(X_628  0.2736389636993408)
(X_629  0.19705882668495178)
(X_630  0.20305071771144867)
(X_631  0.2148154228925705)
(X_632  0.2343137264251709)
(X_633  0.14215686917304993)
(X_634  0.13431373238563538)
(X_635  0.11862745881080627)
(X_636  0.11078432202339172)
(X_637  0.21078431606292725)
(X_638  0.19509804248809814)
(X_639  0.1715686321258545)
(X_640  0.06372549384832382)
(X_641  0.10893306881189346)
(X_642  0.16372549533843994)
(X_643  0.14803922176361084)
(X_644  0.2813725471496582)
(X_645  0.30490198731422424)
(X_646  0.30098041892051697)
(X_647  0.27352941036224365)
(X_648  0.27352941036224365)
(X_649  0.2461879849433899)
(X_650  0.30490198731422424)
(X_651  0.2852941155433655)
(X_652  0.1931372582912445)
(X_653  0.20098040997982025)
(X_654  0.1774509847164154)
(X_655  0.17352941632270813)
(X_656  0.18137255311012268)
(X_657  0.1460784375667572)
(X_658  0.114705890417099)
(X_659  0.13823530077934265)
(X_660  0.2186274528503418)
(X_661  0.22647058963775635)
(X_662  0.22254902124404907)
(X_663  0.0990196168422699)
(X_664  0.09117648005485535)
(X_665  0.14204733073711395)
(X_666  0.1715686321258545)
(X_667  0.0519607849419117)
(X_668  0.036274511367082596)
(X_669  0.04411764815449715)
(X_670  0.0519607849419117)
(X_671  0.04411764815449715)
(X_672  0.2343137264251709)
(X_673  0.12254902720451355)
(X_674  0.12254902720451355)
(X_675  0.12254902720451355)
(X_676  0.114705890417099)
(X_677  0.14814876019954681)
(X_678  0.20686274766921997)
(X_679  0.22647058963775635)
(X_680  0.11078432202339172)
(X_681  0.21078431606292725)
(X_682  0.11078432202339172)
(X_683  0.11862745881080627)
(X_684  0.12254902720451355)
(X_685  0.11862745881080627)
(X_686  0.10294118523597717)
(X_687  0.09117648005485535)
(X_688  0.16372549533843994)
(X_689  0.16372549533843994)
(X_690  0.06372549384832382)
(X_691  0.06372549384832382)
(X_692  0.05980392172932625)
(X_693  0.05980392172932625)
(X_694  0.05980392172932625)
(X_695  0.1558823585510254)
(X_696  0.14411765336990356)
(X_697  0.14411765336990356)
(X_698  0.14411765336990356)
(X_699  0.14411765336990356)
(X_700  0.18333333730697632)
(X_701  0.11677620559930801)
(X_702  0.11677620559930801)
(X_703  0.07549020648002625)
(X_704  0.07156863063573837)
(X_705  0.05588235333561897)
(X_706  0.06372549384832382)
(X_707  0.08725491166114807)
(X_708  0.07941177487373352)
(X_709  0.07549020648002625)
(X_710  0.07941177487373352)
(X_711  0.0833333432674408)
(X_712  0.08725491166114807)
(X_713  0.0833333432674408)
(X_714  0.07156863063573837)
(X_715  0.05980392172932625)
(X_716  0.15196079015731812)
(X_717  0.15196079015731812)
(X_718  0.0519607849419117)
(X_719  0.0519607849419117)
(X_720  0.04803921654820442)
(X_721  0.04803921654820442)
(X_722  0.04411764815449715)
(X_723  0.09891007840633392)
(X_724  0.12843137979507446)
(X_725  0.12843137979507446)
(X_726  0.12843137979507446)
(X_727  0.12843137979507446)
(X_728  0.15196079015731812)
(X_729  0.14803922176361084)
(X_730  0.14803922176361084)
(X_731  0.1558823585510254)
(X_732  0.15196079015731812)
(X_733  0.1401960849761963)
(X_734  0.14803922176361084)
(X_735  0.1715686321258545)
(X_736  0.14803922176361084)
(X_737  0.14803922176361084)
(X_738  0.04803921654820442)
(X_739  0.0519607849419117)
(X_740  0.05588235333561897)
(X_741  0.05588235333561897)
(X_742  0.04411764815449715)
(X_743  0.13235294818878174)
(X_744  0.04019607976078987)
(X_745  0.136274516582489)
(X_746  0.136274516582489)
(X_747  0.036274511367082596)
(X_748  0.03235294297337532)
(X_749  0.13235294818878174)
(X_750  0.03235294297337532)
(X_751  0.13235294818878174)
(X_752  0.12058823555707932)
(X_753  0.12058823555707932)
(X_754  0.12058823555707932)
(X_755  0.12058823555707932)
(X_756  0.14411765336990356)
(X_757  0.136274516582489)
(X_758  0.14411765336990356)
(X_759  0.1558823585510254)
(X_760  0.0519607849419117)
(X_761  0.04411764815449715)
(X_762  0.0519607849419117)
(X_763  0.07156863063573837)
(X_764  0.04411764815449715)
(X_765  0.04019607976078987)
(X_766  0.04019607976078987)
(X_767  0.04411764815449715)
(X_768  0.04803921654820442)
(X_769  0.04803921654820442)
(X_770  0.04019607976078987)
(X_771  0.03235294297337532)
(X_772  0.03235294297337532)
(X_773  0.03235294297337532)
(X_774  0.028431374579668045)
(X_775  0.028431374579668045)
(X_776  0.07930222898721695)
(X_777  0.02450980618596077)
(X_778  0.02450980618596077)
(X_779  0.02450980618596077)
(X_780  0.028431374579668045)
(X_781  0.12843137979507446)
(X_782  0.12843137979507446)
(X_783  0.08322380483150482)
(Y_0 -24.490211486816406)
(Y_1 49.883453369140625)
(Y_2 -20.37188720703125)
(Y_3 -5.633047580718994))