((X_0  0.9225490093231201)
(X_1  0.9303921461105347)
(X_2  0.9225490093231201)
(X_3  0.9029411673545837)
(X_4  0.9029411673545837)
(X_5  0.9225490093231201)
(X_6  1.0264705419540405)
(X_7  1.022549033164978)
(X_8  1.0107842683792114)
(X_9  1.0147058963775635)
(X_10  1.0147058963775635)
(X_11  1.0107842683792114)
(X_12  1.006862759590149)
(X_13  1.0107842683792114)
(X_14  0.9225490093231201)
(X_15  0.9303921461105347)
(X_16  1.0147058963775635)
(X_17  0.9147058725357056)
(X_18  0.9186274409294128)
(X_19  0.9225490093231201)
(X_20  0.9264705777168274)
(X_21  0.9264705777168274)
(X_22  1.0303921699523926)
(X_23  1.0303921699523926)
(X_24  0.9264705777168274)
(X_25  0.9264705777168274)
(X_26  0.9264705777168274)
(X_27  0.9264705777168274)
(X_28  0.32647058367729187)
(X_29  0.4382353127002716)
(X_30  0.4382353127002716)
(X_31  0.4264706075191498)
(X_32  0.4225490391254425)
(X_33  0.33039215207099915)
(X_34  0.33039215207099915)
(X_35  0.31470587849617004)
(X_36  0.32647058367729187)
(X_37  0.43039217591285706)
(X_38  0.43431374430656433)
(X_39  0.43039217591285706)
(X_40  0.4264706075191498)
(X_41  0.4264706075191498)
(X_42  0.43431374430656433)
(X_43  0.4421568810939789)
(X_44  0.457843154668808)
(X_45  0.457843154668808)
(X_46  0.36176469922065735)
(X_47  0.46568629145622253)
(X_48  0.4735294282436371)
(X_49  0.47745099663734436)
(X_50  0.48137256503105164)
(X_51  0.3813725411891937)
(X_52  0.48137256503105164)
(X_53  0.3813725411891937)
(X_54  0.3813725411891937)
(X_55  0.3813725411891937)
(X_56  0.11078432202339172)
(X_57  0.12647059559822083)
(X_58  0.23039215803146362)
(X_59  0.22254902124404907)
(X_60  0.21470588445663452)
(X_61  0.2186274528503418)
(X_62  0.10686275362968445)
(X_63  0.08725491166114807)
(X_64  0.10686275362968445)
(X_65  0.21470588445663452)
(X_66  0.22254902124404907)
(X_67  0.22254902124404907)
(X_68  0.2186274528503418)
(X_69  0.21470588445663452)
(X_70  0.2186274528503418)
(X_71  0.22254902124404907)
(X_72  0.19509804248809814)
(X_73  0.19509804248809814)
(X_74  0.0990196168422699)
(X_75  0.10294118523597717)
(X_76  0.11078432202339172)
(X_77  0.21470588445663452)
(X_78  0.2186274528503418)
(X_79  0.22254902124404907)
(X_80  0.21470588445663452)
(X_81  0.21470588445663452)
(X_82  0.21078431606292725)
(X_83  0.11078432202339172)
(X_84  0.1303921639919281)
(X_85  0.14215686917304993)
(X_86  0.14215686917304993)
(X_87  0.12647059559822083)
(X_88  0.2186274528503418)
(X_89  0.22254902124404907)
(X_90  0.21078431606292725)
(X_91  0.19509804248809814)
(X_92  0.2029411792755127)
(X_93  0.21470588445663452)
(X_94  0.22254902124404907)
(X_95  0.22647058963775635)
(X_96  0.2186274528503418)
(X_97  0.21470588445663452)
(X_98  0.114705890417099)
(X_99  0.114705890417099)
(X_100  0.11862745881080627)
(X_101  0.11862745881080627)
(X_102  0.11862745881080627)
(X_103  0.12254902720451355)
(X_104  0.22254902124404907)
(X_105  0.22647058963775635)
(X_106  0.12647059559822083)
(X_107  0.22647058963775635)
(X_108  0.13431373238563538)
(X_109  0.1303921639919281)
(X_110  0.12647059559822083)
(X_111  0.12254902720451355)
(X_112  0.22254902124404907)
(X_113  0.22647058963775635)
(X_114  0.2186274528503418)
(X_115  0.19509804248809814)
(X_116  0.1872549057006836)
(X_117  0.09509804844856262)
(X_118  0.09509804844856262)
(X_119  0.0833333432674408)
(X_120  0.0833333432674408)
(X_121  0.09509804844856262)
(X_122  0.10294118523597717)
(X_123  0.10294118523597717)
(X_124  0.19901961088180542)
(X_125  0.19117647409439087)
(X_126  0.09117648005485535)
(X_127  0.09117648005485535)
(X_128  0.12647059559822083)
(X_129  0.12254902720451355)
(X_130  0.12254902720451355)
(X_131  0.11862745881080627)
(X_132  0.21470588445663452)
(X_133  0.11078432202339172)
(X_134  0.11078432202339172)
(X_135  0.11078432202339172)
(X_136  0.2343137264251709)
(X_137  0.2343137264251709)
(X_138  0.23039215803146362)
(X_139  0.12647059559822083)
(X_140  0.1460784375667572)
(X_141  0.15000000596046448)
(X_142  0.13431373238563538)
(X_143  0.21078431606292725)
(X_144  0.2029411792755127)
(X_145  0.21470588445663452)
(X_146  0.2186274528503418)
(X_147  0.11078432202339172)
(X_148  0.2186274528503418)
(X_149  0.22647058963775635)
(X_150  0.23039215803146362)
(X_151  0.22647058963775635)
(X_152  0.22254902124404907)
(X_153  0.21470588445663452)
(X_154  0.11862745881080627)
(X_155  0.12254902720451355)
(X_156  0.12647059559822083)
(X_157  0.22254902124404907)
(X_158  0.12254902720451355)
(X_159  0.11862745881080627)
(X_160  0.21470588445663452)
(X_161  0.21078431606292725)
(X_162  0.20686274766921997)
(X_163  0.20686274766921997)
(X_164  0.2186274528503418)
(X_165  0.21470588445663452)
(X_166  0.21470588445663452)
(X_167  0.21078431606292725)
(X_168  0.10686275362968445)
(X_169  0.21470588445663452)
(X_170  0.10686275362968445)
(X_171  0.09117648005485535)
(X_172  0.0833333432674408)
(X_173  0.09117648005485535)
(X_174  0.1872549057006836)
(X_175  0.07549020648002625)
(X_176  0.09509804844856262)
(X_177  0.0990196168422699)
(X_178  0.0990196168422699)
(X_179  0.19117647409439087)
(X_180  0.18333333730697632)
(X_181  0.18333333730697632)
(X_182  0.1872549057006836)
(X_183  0.19509804248809814)
(X_184  0.10294118523597717)
(X_185  0.10294118523597717)
(X_186  0.10294118523597717)
(X_187  0.10294118523597717)
(X_188  0.10294118523597717)
(X_189  0.10294118523597717)
(X_190  0.10294118523597717)
(X_191  0.2029411792755127)
(X_192  0.19509804248809814)
(X_193  0.19509804248809814)
(X_194  0.19509804248809814)
(X_195  0.19509804248809814)
(X_196  0.21078431606292725)
(X_197  0.22647058963775635)
(X_198  0.23039215803146362)
(X_199  0.2186274528503418)
(X_200  0.114705890417099)
(X_201  0.11862745881080627)
(X_202  0.10686275362968445)
(X_203  0.08725491166114807)
(X_204  0.11078432202339172)
(X_205  0.11078432202339172)
(X_206  0.10686275362968445)
(X_207  0.0990196168422699)
(X_208  0.09117648005485535)
(X_209  0.09117648005485535)
(X_210  0.0990196168422699)
(X_211  0.20686274766921997)
(X_212  0.18333333730697632)
(X_213  0.1872549057006836)
(X_214  0.1872549057006836)
(X_215  0.19509804248809814)
(X_216  0.0990196168422699)
(X_217  0.10294118523597717)
(X_218  0.10686275362968445)
(X_219  0.20686274766921997)
(X_220  0.21470588445663452)
(X_221  0.21470588445663452)
(X_222  0.21470588445663452)
(X_223  0.11862745881080627)
(X_224  0.14215686917304993)
(X_225  0.12254902720451355)
(X_226  0.10686275362968445)
(X_227  0.21078431606292725)
(X_228  0.12647059559822083)
(X_229  0.13431373238563538)
(X_230  0.12647059559822083)
(X_231  0.11078432202339172)
(X_232  0.21470588445663452)
(X_233  0.2343137264251709)
(X_234  0.2186274528503418)
(X_235  0.20686274766921997)
(X_236  0.23039215803146362)
(X_237  0.2186274528503418)
(X_238  0.20686274766921997)
(X_239  0.22647058963775635)
(X_240  0.21470588445663452)
(X_241  0.11078432202339172)
(X_242  0.114705890417099)
(X_243  0.11862745881080627)
(X_244  0.10686275362968445)
(X_245  0.09117648005485535)
(X_246  0.10294118523597717)
(X_247  0.1303921639919281)
(X_248  0.11078432202339172)
(X_249  0.11078432202339172)
(X_250  0.11078432202339172)
(X_251  0.114705890417099)
(X_252  0.21078431606292725)
(X_253  0.19901961088180542)
(X_254  0.19509804248809814)
(X_255  0.2029411792755127)
(X_256  0.21470588445663452)
(X_257  0.22254902124404907)
(X_258  0.21470588445663452)
(X_259  0.10686275362968445)
(X_260  0.19509804248809814)
(X_261  0.21470588445663452)
(X_262  0.2029411792755127)
(X_263  0.19117647409439087)
(X_264  0.21078431606292725)
(X_265  0.19901961088180542)
(X_266  0.17941176891326904)
(X_267  0.09509804844856262)
(X_268  0.12254902720451355)
(X_269  0.114705890417099)
(X_270  0.114705890417099)
(X_271  0.11078432202339172)
(X_272  0.09509804844856262)
(X_273  0.0833333432674408)
(X_274  0.0990196168422699)
(X_275  0.12647059559822083)
(X_276  0.11862745881080627)
(X_277  0.12254902720451355)
(X_278  0.22647058963775635)
(X_279  0.22647058963775635)
(X_280  0.1303921639919281)
(X_281  0.12647059559822083)
(X_282  0.12647059559822083)
(X_283  0.11862745881080627)
(X_284  0.11078432202339172)
(X_285  0.0990196168422699)
(X_286  0.0833333432674408)
(X_287  0.07549020648002625)
(X_288  0.19117647409439087)
(X_289  0.21470588445663452)
(X_290  0.20686274766921997)
(X_291  0.2029411792755127)
(X_292  0.23039215803146362)
(X_293  0.12254902720451355)
(X_294  0.10686275362968445)
(X_295  0.1303921639919281)
(X_296  0.23039215803146362)
(X_297  0.22254902124404907)
(X_298  0.2186274528503418)
(X_299  0.11862745881080627)
(X_300  0.10294118523597717)
(X_301  0.09117648005485535)
(X_302  0.2029411792755127)
(X_303  0.2343137264251709)
(X_304  0.19117647409439087)
(X_305  0.09509804844856262)
(X_306  0.10294118523597717)
(X_307  0.11078432202339172)
(X_308  0.27156862616539)
(X_309  0.27156862616539)
(X_310  0.26372548937797546)
(X_311  0.24411766231060028)
(X_312  0.2088235467672348)
(X_313  0.1774509847164154)
(X_314  0.15392157435417175)
(X_315  0.14215686917304993)
(X_316  0.11078432202339172)
(X_317  0.1303921639919281)
(X_318  0.10294118523597717)
(X_319  0.08725491166114807)
(X_320  0.10686275362968445)
(X_321  0.19901961088180542)
(X_322  0.18333333730697632)
(X_323  0.20686274766921997)
(X_324  0.0833333432674408)
(X_325  0.1872549057006836)
(X_326  0.21078431606292725)
(X_327  0.1303921639919281)
(X_328  0.13823530077934265)
(X_329  0.13823530077934265)
(X_330  0.15784314274787903)
(X_331  0.18921568989753723)
(X_332  0.29313725233078003)
(X_333  0.2970588207244873)
(X_334  0.30490198731422424)
(X_335  0.3088235557079315)
(X_336  0.3578431308269501)
(X_337  0.46176472306251526)
(X_338  0.36176469922065735)
(X_339  0.45000001788139343)
(X_340  0.4264706075191498)
(X_341  0.40294119715690613)
(X_342  0.2872548997402191)
(X_343  0.28333333134651184)
(X_344  0.33627453446388245)
(X_345  0.33627453446388245)
(X_346  0.28921568393707275)
(X_347  0.24607843160629272)
(X_348  0.24607843160629272)
(X_349  0.22647058963775635)
(X_350  0.21078431606292725)
(X_351  0.2343137264251709)
(X_352  0.1460784375667572)
(X_353  0.2656862735748291)
(X_354  0.30490198731422424)
(X_355  0.35196080803871155)
(X_356  0.27156862616539)
(X_357  0.2754901945590973)
(X_358  0.29509803652763367)
(X_359  0.3225490152835846)
(X_360  0.4421568810939789)
(X_361  0.4382353127002716)
(X_362  0.4382353127002716)
(X_363  0.43431374430656433)
(X_364  0.24803923070430756)
(X_365  0.2558823525905609)
(X_366  0.26372548937797546)
(X_367  0.2754901945590973)
(X_368  0.38333335518836975)
(X_369  0.387254923582077)
(X_370  0.387254923582077)
(X_371  0.387254923582077)
(X_372  0.26764705777168274)
(X_373  0.27156862616539)
(X_374  0.22843138873577118)
(X_375  0.19705882668495178)
(X_376  0.3088235557079315)
(X_377  0.30098041892051697)
(X_378  0.2970588207244873)
(X_379  0.3245098292827606)
(X_380  0.3401961028575897)
(X_381  0.35196080803871155)
(X_382  0.27941176295280457)
(X_383  0.3029411733150482)
(X_384  0.29901960492134094)
(X_385  0.27941176295280457)
(X_386  0.27941176295280457)
(X_387  0.29509803652763367)
(X_388  0.3558823764324188)
(X_389  0.35196080803871155)
(X_390  0.35196080803871155)
(X_391  0.35196080803871155)
(X_392  0.1931372582912445)
(X_393  0.18529412150382996)
(X_394  0.2774509787559509)
(X_395  0.2852941155433655)
(X_396  0.30098041892051697)
(X_397  0.30490198731422424)
(X_398  0.30098041892051697)
(X_399  0.28921568393707275)
(X_400  0.2656862735748291)
(X_401  0.2813725471496582)
(X_402  0.2617647051811218)
(X_403  0.15392157435417175)
(X_404  0.18529412150382996)
(X_405  0.1931372582912445)
(X_406  0.18921568989753723)
(X_407  0.32058826088905334)
(X_408  0.19705882668495178)
(X_409  0.19705882668495178)
(X_410  0.20490197837352753)
(X_411  0.21274511516094208)
(X_412  0.1931372582912445)
(X_413  0.2696078419685364)
(X_414  0.27352941036224365)
(X_415  0.28921568393707275)
(X_416  0.16568627953529358)
(X_417  0.1774509847164154)
(X_418  0.29313725233078003)
(X_419  0.3088235557079315)
(X_420  0.29901960492134094)
(X_421  0.27156862616539)
(X_422  0.3401961028575897)
(X_423  0.3245098292827606)
(X_424  0.32058826088905334)
(X_425  0.3088235557079315)
(X_426  0.2813725471496582)
(X_427  0.15784314274787903)
(X_428  0.1774509847164154)
(X_429  0.30098041892051697)
(X_430  0.28921568393707275)
(X_431  0.18529412150382996)
(X_432  0.3088235557079315)
(X_433  0.30098041892051697)
(X_434  0.2852941155433655)
(X_435  0.3088235557079315)
(X_436  0.16960784792900085)
(X_437  0.16960784792900085)
(X_438  0.18529412150382996)
(X_439  0.20490197837352753)
(X_440  0.3127451241016388)
(X_441  0.22058825194835663)
(X_442  0.25196078419685364)
(X_443  0.2872548997402191)
(X_444  0.3754902184009552)
(X_445  0.40294119715690613)
(X_446  0.4382353127002716)
(X_447  0.47745099663734436)
(X_448  0.42843136191368103)
(X_449  0.5441176295280457)
(X_450  0.5715686678886414)
(X_451  0.5911765098571777)
(X_452  0.6029412150382996)
(X_453  0.4990196228027344)
(X_454  0.5872549414634705)
(X_455  0.479411780834198)
(X_456  0.5029411911964417)
(X_457  0.4833333492279053)
(X_458  0.4598039388656616)
(X_459  0.4637255072593689)
(X_460  0.4833333492279053)
(X_461  0.6068627834320068)
(X_462  0.6107843518257141)
(X_463  0.6068627834320068)
(X_464  0.5872549414634705)
(X_465  0.595098078250885)
(X_466  0.6107843518257141)
(X_467  0.5264706015586853)
(X_468  0.5303921699523926)
(X_469  0.522549033164978)
(X_470  0.5107843279838562)
(X_471  0.5029411911964417)
(X_472  0.6774510145187378)
(X_473  0.5343137383460999)
(X_474  0.4754902124404907)
(X_475  0.5323529243469238)
(X_476  0.27941176295280457)
(X_477  0.29509803652763367)
(X_478  0.3186274468898773)
(X_479  0.34215685725212097)
(X_480  0.3539215624332428)
(X_481  0.3539215624332428)
(X_482  0.3499999940395355)
(X_483  0.34215685725212097)
(X_484  0.3186274468898773)
(X_485  0.3029411733150482)
(X_486  0.2911764681339264)
(X_487  0.3029411733150482)
(X_488  0.43039217591285706)
(X_489  0.4539215862751007)
(X_490  0.46176472306251526)
(X_491  0.457843154668808)
(X_492  0.45000001788139343)
(X_493  0.45000001788139343)
(X_494  0.3499999940395355)
(X_495  0.34215685725212097)
(X_496  0.4264706075191498)
(X_497  0.4068627655506134)
(X_498  0.38333335518836975)
(X_499  0.3715686500072479)
(X_500  0.3382352888584137)
(X_501  0.31470587849617004)
(X_502  0.2872548997402191)
(X_503  0.26764705777168274)
(X_504  0.17352941632270813)
(X_505  0.18137255311012268)
(X_506  0.1931372582912445)
(X_507  0.30490198731422424)
(X_508  0.3127451241016388)
(X_509  0.3127451241016388)
(X_510  0.3088235557079315)
(X_511  0.20490197837352753)
(X_512  0.30490198731422424)
(X_513  0.19705882668495178)
(X_514  0.1931372582912445)
(X_515  0.3088235557079315)
(X_516  0.33235296607017517)
(X_517  0.35196080803871155)
(X_518  0.3558823764324188)
(X_519  0.35196080803871155)
(X_520  0.3480392396450043)
(X_521  0.344117671251297)
(X_522  0.344117671251297)
(X_523  0.33627453446388245)
(X_524  0.3284313976764679)
(X_525  0.21666668355464935)
(X_526  0.20490197837352753)
(X_527  0.20098040997982025)
(X_528  0.20098040997982025)
(X_529  0.20098040997982025)
(X_530  0.20098040997982025)
(X_531  0.2088235467672348)
(X_532  0.14215686917304993)
(X_533  0.24215686321258545)
(X_534  0.14215686917304993)
(X_535  0.14215686917304993)
(X_536  0.13431373238563538)
(X_537  0.1303921639919281)
(X_538  0.22254902124404907)
(X_539  0.11862745881080627)
(X_540  0.11078432202339172)
(X_541  0.10686275362968445)
(X_542  0.10686275362968445)
(X_543  0.2186274528503418)
(X_544  0.13431373238563538)
(X_545  0.14215686917304993)
(X_546  0.13823530077934265)
(X_547  0.2343137264251709)
(X_548  0.13823530077934265)
(X_549  0.23823529481887817)
(X_550  0.23823529481887817)
(X_551  0.14215686917304993)
(X_552  0.1460784375667572)
(X_553  0.15000000596046448)
(X_554  0.15392157435417175)
(X_555  0.15784314274787903)
(X_556  0.114705890417099)
(X_557  0.22647058963775635)
(X_558  0.14215686917304993)
(X_559  0.15784314274787903)
(X_560  0.10294118523597717)
(X_561  0.10294118523597717)
(X_562  0.0990196168422699)
(X_563  0.09117648005485535)
(X_564  0.0833333432674408)
(X_565  0.07549020648002625)
(X_566  0.07156863063573837)
(X_567  0.0676470622420311)
(X_568  0.15980392694473267)
(X_569  0.05980392172932625)
(X_570  0.06372549384832382)
(X_571  0.07549020648002625)
(X_572  0.0833333432674408)
(X_573  0.08725491166114807)
(X_574  0.0833333432674408)
(X_575  0.07941177487373352)
(X_576  0.19509804248809814)
(X_577  0.19117647409439087)
(X_578  0.1872549057006836)
(X_579  0.0833333432674408)
(X_580  0.07941177487373352)
(X_581  0.0833333432674408)
(X_582  0.0833333432674408)
(X_583  0.08725491166114807)
(X_584  0.07549020648002625)
(X_585  0.18333333730697632)
(X_586  0.09117648005485535)
(X_587  0.19901961088180542)
(X_588  0.15980392694473267)
(X_589  0.15980392694473267)
(X_590  0.06372549384832382)
(X_591  0.06372549384832382)
(X_592  0.05980392172932625)
(X_593  0.05980392172932625)
(X_594  0.1558823585510254)
(X_595  0.0519607849419117)
(X_596  0.05588235333561897)
(X_597  0.05980392172932625)
(X_598  0.0676470622420311)
(X_599  0.17941176891326904)
(X_600  0.1872549057006836)
(X_601  0.19117647409439087)
(X_602  0.19509804248809814)
(X_603  0.19509804248809814)
(X_604  0.08725491166114807)
(X_605  0.08725491166114807)
(X_606  0.0833333432674408)
(X_607  0.18333333730697632)
(X_608  0.18333333730697632)
(X_609  0.18333333730697632)
(X_610  0.08725491166114807)
(X_611  0.08725491166114807)
(X_612  0.18333333730697632)
(X_613  0.1872549057006836)
(X_614  0.19117647409439087)
(X_615  0.1872549057006836)
(X_616  0.04411764815449715)
(X_617  0.14803922176361084)
(X_618  0.1558823585510254)
(X_619  0.15980392694473267)
(X_620  0.16372549533843994)
(X_621  0.05980392172932625)
(X_622  0.0519607849419117)
(X_623  0.04803921654820442)
(X_624  0.13235294818878174)
(X_625  0.136274516582489)
(X_626  0.1401960849761963)
(X_627  0.04411764815449715)
(X_628  0.14411765336990356)
(X_629  0.14803922176361084)
(X_630  0.1558823585510254)
(X_631  0.15980392694473267)
(X_632  0.136274516582489)
(X_633  0.136274516582489)
(X_634  0.14411765336990356)
(X_635  0.14803922176361084)
(X_636  0.1558823585510254)
(X_637  0.16372549533843994)
(X_638  0.16764706373214722)
(X_639  0.16764706373214722)
(X_640  0.14803922176361084)
(X_641  0.1558823585510254)
(X_642  0.05980392172932625)
(X_643  0.05588235333561897)
(X_644  0.14803922176361084)
(X_645  0.15196079015731812)
(X_646  0.05980392172932625)
(X_647  0.06372549384832382)
(X_648  0.05980392172932625)
(X_649  0.15196079015731812)
(X_650  0.1401960849761963)
(X_651  0.03235294297337532)
(X_652  0.0676470622420311)
(X_653  0.0676470622420311)
(X_654  0.06372549384832382)
(X_655  0.05588235333561897)
(X_656  0.04803921654820442)
(X_657  0.14803922176361084)
(X_658  0.15196079015731812)
(X_659  0.1558823585510254)
(X_660  0.15196079015731812)
(X_661  0.15196079015731812)
(X_662  0.05588235333561897)
(X_663  0.05588235333561897)
(X_664  0.05588235333561897)
(X_665  0.0519607849419117)
(X_666  0.04803921654820442)
(X_667  0.04803921654820442)
(X_668  0.04411764815449715)
(X_669  0.05588235333561897)
(X_670  0.0676470622420311)
(X_671  0.16764706373214722)
(X_672  0.04411764815449715)
(X_673  0.136274516582489)
(X_674  0.03235294297337532)
(X_675  0.13235294818878174)
(X_676  0.1401960849761963)
(X_677  0.14803922176361084)
(X_678  0.14803922176361084)
(X_679  0.14411765336990356)
(X_680  0.136274516582489)
(X_681  0.14411765336990356)
(X_682  0.14803922176361084)
(X_683  0.04803921654820442)
(X_684  0.04411764815449715)
(X_685  0.1401960849761963)
(X_686  0.14803922176361084)
(X_687  0.15196079015731812)
(X_688  0.14803922176361084)
(X_689  0.15196079015731812)
(X_690  0.15196079015731812)
(X_691  0.15196079015731812)
(X_692  0.14803922176361084)
(X_693  0.14411765336990356)
(X_694  0.14803922176361084)
(X_695  0.15196079015731812)
(X_696  0.14803922176361084)
(X_697  0.04803921654820442)
(X_698  0.04803921654820442)
(X_699  0.04411764815449715)
(X_700  0.036274511367082596)
(X_701  0.12843137979507446)
(X_702  0.12450980395078659)
(X_703  0.12843137979507446)
(X_704  0.136274516582489)
(X_705  0.1401960849761963)
(X_706  0.1401960849761963)
(X_707  0.136274516582489)
(X_708  0.028431374579668045)
(X_709  0.03235294297337532)
(X_710  0.04019607976078987)
(X_711  0.04019607976078987)
(X_712  0.03235294297337532)
(X_713  0.03235294297337532)
(X_714  0.1401960849761963)
(X_715  0.14411765336990356)
(X_716  0.04019607976078987)
(X_717  0.04019607976078987)
(X_718  0.04411764815449715)
(X_719  0.04019607976078987)
(X_720  0.04019607976078987)
(X_721  0.036274511367082596)
(X_722  0.04019607976078987)
(X_723  0.04019607976078987)
(X_724  0.04019607976078987)
(X_725  0.04019607976078987)
(X_726  0.04019607976078987)
(X_727  0.036274511367082596)
(X_728  0.02450980618596077)
(X_729  0.12058823555707932)
(X_730  0.11666666716337204)
(X_731  0.12058823555707932)
(X_732  0.12843137979507446)
(X_733  0.13235294818878174)
(X_734  0.12843137979507446)
(X_735  0.12450980395078659)
(X_736  0.01666666939854622)
(X_737  0.02450980618596077)
(X_738  0.028431374579668045)
(X_739  0.028431374579668045)
(X_740  0.02450980618596077)
(X_741  0.02450980618596077)
(X_742  0.028431374579668045)
(X_743  0.036274511367082596)
(X_744  0.028431374579668045)
(X_745  0.028431374579668045)
(X_746  0.028431374579668045)
(X_747  0.028431374579668045)
(X_748  0.03235294297337532)
(X_749  0.13235294818878174)
(X_750  0.13235294818878174)
(X_751  0.13235294818878174)
(X_752  0.13235294818878174)
(X_753  0.12843137979507446)
(X_754  0.12843137979507446)
(X_755  0.12843137979507446)
(X_756  0.020588237792253494)
(X_757  0.01666666939854622)
(X_758  0.01666666939854622)
(X_759  0.020588237792253494)
(X_760  0.12843137979507446)
(X_761  0.13235294818878174)
(X_762  0.12450980395078659)
(X_763  0.12058823555707932)
(X_764  0.11274509876966476)
(X_765  0.12058823555707932)
(X_766  0.12450980395078659)
(X_767  0.12450980395078659)
(X_768  0.12058823555707932)
(X_769  0.12058823555707932)
(X_770  0.12450980395078659)
(X_771  0.13235294818878174)
(X_772  0.12843137979507446)
(X_773  0.12450980395078659)
(X_774  0.020588237792253494)
(X_775  0.02450980618596077)
(X_776  0.028431374579668045)
(X_777  0.03235294297337532)
(X_778  0.028431374579668045)
(X_779  0.028431374579668045)
(X_780  0.12843137979507446)
(X_781  0.02450980618596077)
(X_782  0.02450980618596077)
(X_783  0.02450980618596077)
(Y_0 42.66810989379883)
(Y_1 -10.171674728393555)
(Y_2 17.082256317138672)
(Y_3 -53.0305061340332))