((X_0  1.0499999523162842)
(X_1  0.9460784196853638)
(X_2  0.9421568512916565)
(X_3  0.9460784196853638)
(X_4  0.949999988079071)
(X_5  0.949999988079071)
(X_6  0.949999988079071)
(X_7  0.9460784196853638)
(X_8  1.0303921699523926)
(X_9  1.0382353067398071)
(X_10  1.0460784435272217)
(X_11  1.0499999523162842)
(X_12  1.0499999523162842)
(X_13  1.0499999523162842)
(X_14  1.0499999523162842)
(X_15  0.949999988079071)
(X_16  0.949999988079071)
(X_17  0.949999988079071)
(X_18  0.949999988079071)
(X_19  0.949999988079071)
(X_20  1.0499999523162842)
(X_21  1.0499999523162842)
(X_22  1.0499999523162842)
(X_23  1.0499999523162842)
(X_24  1.0499999523162842)
(X_25  0.9460784196853638)
(X_26  0.9382352828979492)
(X_27  0.9343137145042419)
(X_28  1.0499999523162842)
(X_29  1.0499999523162842)
(X_30  0.949999988079071)
(X_31  0.949999988079071)
(X_32  0.949999988079071)
(X_33  0.949999988079071)
(X_34  0.9460784196853638)
(X_35  0.9382352828979492)
(X_36  0.949999988079071)
(X_37  0.949999988079071)
(X_38  0.9421568512916565)
(X_39  0.9186274409294128)
(X_40  0.9911764860153198)
(X_41  0.9715686440467834)
(X_42  0.9519608020782471)
(X_43  0.9441176652908325)
(X_44  0.908823549747467)
(X_45  0.8970588445663452)
(X_46  0.8735294342041016)
(X_47  0.75)
(X_48  0.822549045085907)
(X_49  0.7990196347236633)
(X_50  0.6833333373069763)
(X_51  0.6754902005195618)
(X_52  0.7166666984558105)
(X_53  0.6088235378265381)
(X_54  0.593137264251709)
(X_55  0.6774510145187378)
(X_56  0.908823549747467)
(X_57  0.7813725471496582)
(X_58  0.7382352948188782)
(X_59  0.6872549057006836)
(X_60  0.636274516582489)
(X_61  0.5892156958580017)
(X_62  0.5421568751335144)
(X_63  0.5147058963775635)
(X_64  0.4009803831577301)
(X_65  0.385294109582901)
(X_66  0.3539215624332428)
(X_67  0.41470590233802795)
(X_68  0.38333335518836975)
(X_69  0.3558823764324188)
(X_70  0.3401961028575897)
(X_71  0.23235295712947845)
(X_72  0.1617647111415863)
(X_73  0.15392157435417175)
(X_74  0.13823530077934265)
(X_75  0.11862745881080627)
(X_76  0.19901961088180542)
(X_77  0.18333333730697632)
(X_78  0.1715686321258545)
(X_79  0.16764706373214722)
(X_80  0.19117647409439087)
(X_81  0.19117647409439087)
(X_82  0.09117648005485535)
(X_83  0.1872549057006836)
(X_84  0.29313725233078003)
(X_85  0.2774509787559509)
(X_86  0.15392157435417175)
(X_87  0.23039215803146362)
(X_88  0.20686274766921997)
(X_89  0.0833333432674408)
(X_90  0.05980392172932625)
(X_91  0.04411764815449715)
(X_92  0.10294118523597717)
(X_93  0.09509804844856262)
(X_94  0.0833333432674408)
(X_95  0.07156863063573837)
(X_96  0.15980392694473267)
(X_97  0.15196079015731812)
(X_98  0.15196079015731812)
(X_99  0.15196079015731812)
(X_100  0.16372549533843994)
(X_101  0.16372549533843994)
(X_102  0.16372549533843994)
(X_103  0.0676470622420311)
(X_104  0.07156863063573837)
(X_105  0.07941177487373352)
(X_106  0.0833333432674408)
(X_107  0.08725491166114807)
(X_108  0.06372549384832382)
(X_109  0.0676470622420311)
(X_110  0.07941177487373352)
(X_111  0.1872549057006836)
(X_112  0.15196079015731812)
(X_113  0.14803922176361084)
(X_114  0.04803921654820442)
(X_115  0.1558823585510254)
(X_116  0.0676470622420311)
(X_117  0.07941177487373352)
(X_118  0.07941177487373352)
(X_119  0.07549020648002625)
(X_120  0.05588235333561897)
(X_121  0.05980392172932625)
(X_122  0.0676470622420311)
(X_123  0.07549020648002625)
(X_124  0.17941176891326904)
(X_125  0.17941176891326904)
(X_126  0.07549020648002625)
(X_127  0.07549020648002625)
(X_128  0.14411765336990356)
(X_129  0.14411765336990356)
(X_130  0.14803922176361084)
(X_131  0.14803922176361084)
(X_132  0.1558823585510254)
(X_133  0.15980392694473267)
(X_134  0.0676470622420311)
(X_135  0.07156863063573837)
(X_136  0.18333333730697632)
(X_137  0.0833333432674408)
(X_138  0.1872549057006836)
(X_139  0.1872549057006836)
(X_140  0.21078431606292725)
(X_141  0.2029411792755127)
(X_142  0.09117648005485535)
(X_143  0.18333333730697632)
(X_144  0.18333333730697632)
(X_145  0.07549020648002625)
(X_146  0.06372549384832382)
(X_147  0.1558823585510254)
(X_148  0.16764706373214722)
(X_149  0.1715686321258545)
(X_150  0.07549020648002625)
(X_151  0.07549020648002625)
(X_152  0.1715686321258545)
(X_153  0.15980392694473267)
(X_154  0.14803922176361084)
(X_155  0.1401960849761963)
(X_156  0.1715686321258545)
(X_157  0.1715686321258545)
(X_158  0.1715686321258545)
(X_159  0.1715686321258545)
(X_160  0.1715686321258545)
(X_161  0.17549020051956177)
(X_162  0.18333333730697632)
(X_163  0.18333333730697632)
(X_164  0.17549020051956177)
(X_165  0.1715686321258545)
(X_166  0.16764706373214722)
(X_167  0.16372549533843994)
(X_168  0.05588235333561897)
(X_169  0.15196079015731812)
(X_170  0.04803921654820442)
(X_171  0.0519607849419117)
(X_172  0.06372549384832382)
(X_173  0.0676470622420311)
(X_174  0.06372549384832382)
(X_175  0.05980392172932625)
(X_176  0.07549020648002625)
(X_177  0.07156863063573837)
(X_178  0.0676470622420311)
(X_179  0.05980392172932625)
(X_180  0.14803922176361084)
(X_181  0.1401960849761963)
(X_182  0.028431374579668045)
(X_183  0.02450980618596077)
(X_184  0.13235294818878174)
(X_185  0.13235294818878174)
(X_186  0.13235294818878174)
(X_187  0.136274516582489)
(X_188  0.1401960849761963)
(X_189  0.14803922176361084)
(X_190  0.1558823585510254)
(X_191  0.15980392694473267)
(X_192  0.1715686321258545)
(X_193  0.1715686321258545)
(X_194  0.16764706373214722)
(X_195  0.16372549533843994)
(X_196  0.07549020648002625)
(X_197  0.16764706373214722)
(X_198  0.16372549533843994)
(X_199  0.06372549384832382)
(X_200  0.0676470622420311)
(X_201  0.0676470622420311)
(X_202  0.06372549384832382)
(X_203  0.05588235333561897)
(X_204  0.07156863063573837)
(X_205  0.0676470622420311)
(X_206  0.05980392172932625)
(X_207  0.1558823585510254)
(X_208  0.05588235333561897)
(X_209  0.05980392172932625)
(X_210  0.0676470622420311)
(X_211  0.1715686321258545)
(X_212  0.16372549533843994)
(X_213  0.16372549533843994)
(X_214  0.15980392694473267)
(X_215  0.1558823585510254)
(X_216  0.1558823585510254)
(X_217  0.15980392694473267)
(X_218  0.15980392694473267)
(X_219  0.06372549384832382)
(X_220  0.19117647409439087)
(X_221  0.18333333730697632)
(X_222  0.07156863063573837)
(X_223  0.15980392694473267)
(X_224  0.05588235333561897)
(X_225  0.0676470622420311)
(X_226  0.18333333730697632)
(X_227  0.19509804248809814)
(X_228  0.09509804844856262)
(X_229  0.0833333432674408)
(X_230  0.07156863063573837)
(X_231  0.06372549384832382)
(X_232  0.17549020051956177)
(X_233  0.15980392694473267)
(X_234  0.14411765336990356)
(X_235  0.1401960849761963)
(X_236  0.15196079015731812)
(X_237  0.15980392694473267)
(X_238  0.15980392694473267)
(X_239  0.15196079015731812)
(X_240  0.07941177487373352)
(X_241  0.1715686321258545)
(X_242  0.15980392694473267)
(X_243  0.15196079015731812)
(X_244  0.1558823585510254)
(X_245  0.16764706373214722)
(X_246  0.1872549057006836)
(X_247  0.19901961088180542)
(X_248  0.10686275362968445)
(X_249  0.1460784375667572)
(X_250  0.22058825194835663)
(X_251  0.38333335518836975)
(X_252  0.0833333432674408)
(X_253  0.0676470622420311)
(X_254  0.0519607849419117)
(X_255  0.14411765336990356)
(X_256  0.14803922176361084)
(X_257  0.15980392694473267)
(X_258  0.17549020051956177)
(X_259  0.18333333730697632)
(X_260  0.05588235333561897)
(X_261  0.05588235333561897)
(X_262  0.06372549384832382)
(X_263  0.1715686321258545)
(X_264  0.17549020051956177)
(X_265  0.16372549533843994)
(X_266  0.1401960849761963)
(X_267  0.12058823555707932)
(X_268  0.15980392694473267)
(X_269  0.16372549533843994)
(X_270  0.1715686321258545)
(X_271  0.19509804248809814)
(X_272  0.13823530077934265)
(X_273  0.29313725233078003)
(X_274  0.35196080803871155)
(X_275  0.3911764919757843)
(X_276  0.3499999940395355)
(X_277  0.36176469922065735)
(X_278  0.3735294044017792)
(X_279  0.47745099663734436)
(X_280  0.20490197837352753)
(X_281  0.2970588207244873)
(X_282  0.18921568989753723)
(X_283  0.18137255311012268)
(X_284  0.17352941632270813)
(X_285  0.25)
(X_286  0.21078431606292725)
(X_287  0.18333333730697632)
(X_288  0.0990196168422699)
(X_289  0.07941177487373352)
(X_290  0.05980392172932625)
(X_291  0.0519607849419117)
(X_292  0.16372549533843994)
(X_293  0.0833333432674408)
(X_294  0.10294118523597717)
(X_295  0.114705890417099)
(X_296  0.2343137264251709)
(X_297  0.2696078419685364)
(X_298  0.22058825194835663)
(X_299  0.26764705777168274)
(X_300  0.29509803652763367)
(X_301  0.4107843339443207)
(X_302  0.41862747073173523)
(X_303  0.3225490152835846)
(X_304  0.3068627417087555)
(X_305  0.3225490152835846)
(X_306  0.31078431010246277)
(X_307  0.2754901945590973)
(X_308  0.41470590233802795)
(X_309  0.41862747073173523)
(X_310  0.32647058367729187)
(X_311  0.34215685725212097)
(X_312  0.3382352888584137)
(X_313  0.3068627417087555)
(X_314  0.2558823525905609)
(X_315  0.21666668355464935)
(X_316  0.15392157435417175)
(X_317  0.13431373238563538)
(X_318  0.10294118523597717)
(X_319  0.08725491166114807)
(X_320  0.19117647409439087)
(X_321  0.2186274528503418)
(X_322  0.25)
(X_323  0.27352941036224365)
(X_324  0.22843138873577118)
(X_325  0.26372548937797546)
(X_326  0.3029411733150482)
(X_327  0.3225490152835846)
(X_328  0.4068627655506134)
(X_329  0.27156862616539)
(X_330  0.240196093916893)
(X_331  0.32058826088905334)
(X_332  0.2774509787559509)
(X_333  0.33627453446388245)
(X_334  0.26372548937797546)
(X_335  0.23627452552318573)
(X_336  0.2558823525905609)
(X_337  0.344117671251297)
(X_338  0.3401961028575897)
(X_339  0.3480392396450043)
(X_340  0.36764708161354065)
(X_341  0.38333335518836975)
(X_342  0.2872548997402191)
(X_343  0.28333333134651184)
(X_344  0.23235295712947845)
(X_345  0.240196093916893)
(X_346  0.35196080803871155)
(X_347  0.35196080803871155)
(X_348  0.240196093916893)
(X_349  0.3245098292827606)
(X_350  0.30490198731422424)
(X_351  0.29313725233078003)
(X_352  0.33627453446388245)
(X_353  0.344117671251297)
(X_354  0.240196093916893)
(X_355  0.22843138873577118)
(X_356  0.2088235467672348)
(X_357  0.3088235557079315)
(X_358  0.3284313976764679)
(X_359  0.3480392396450043)
(X_360  0.23627452552318573)
(X_361  0.31470587849617004)
(X_362  0.3578431308269501)
(X_363  0.33039215207099915)
(X_364  0.20098040997982025)
(X_365  0.20098040997982025)
(X_366  0.19705882668495178)
(X_367  0.28921568393707275)
(X_368  0.2774509787559509)
(X_369  0.25784313678741455)
(X_370  0.1460784375667572)
(X_371  0.13823530077934265)
(X_372  0.1460784375667572)
(X_373  0.15784314274787903)
(X_374  0.27352941036224365)
(X_375  0.2774509787559509)
(X_376  0.27352941036224365)
(X_377  0.2617647051811218)
(X_378  0.15784314274787903)
(X_379  0.15392157435417175)
(X_380  0.27352941036224365)
(X_381  0.2970588207244873)
(X_382  0.32058826088905334)
(X_383  0.22843138873577118)
(X_384  0.2245098203420639)
(X_385  0.23627452552318573)
(X_386  0.2598039209842682)
(X_387  0.2872548997402191)
(X_388  0.49313727021217346)
(X_389  0.5323529243469238)
(X_390  0.5441176295280457)
(X_391  0.40882351994514465)
(X_392  0.49705883860588074)
(X_393  0.520588219165802)
(X_394  0.5401960611343384)
(X_395  0.5323529243469238)
(X_396  0.49705883860588074)
(X_397  0.45000001788139343)
(X_398  0.41862747073173523)
(X_399  0.4068627655506134)
(X_400  0.3598039448261261)
(X_401  0.3558823764324188)
(X_402  0.35196080803871155)
(X_403  0.344117671251297)
(X_404  0.240196093916893)
(X_405  0.25196078419685364)
(X_406  0.2754901945590973)
(X_407  0.29901960492134094)
(X_408  0.34215685725212097)
(X_409  0.39313724637031555)
(X_410  0.4480392038822174)
(X_411  0.5715686678886414)
(X_412  0.5598039627075195)
(X_413  0.4323529303073883)
(X_414  0.4166666567325592)
(X_415  0.5127450823783875)
(X_416  0.23235295712947845)
(X_417  0.32058826088905334)
(X_418  0.20098040997982025)
(X_419  0.18921568989753723)
(X_420  0.15392157435417175)
(X_421  0.1774509847164154)
(X_422  0.19705882668495178)
(X_423  0.20098040997982025)
(X_424  0.20098040997982025)
(X_425  0.21666668355464935)
(X_426  0.2598039209842682)
(X_427  0.29509803652763367)
(X_428  0.29901960492134094)
(X_429  0.31470587849617004)
(X_430  0.32647058367729187)
(X_431  0.3186274468898773)
(X_432  0.3950980603694916)
(X_433  0.3715686500072479)
(X_434  0.3558823764324188)
(X_435  0.25196078419685364)
(X_436  0.35196080803871155)
(X_437  0.38333335518836975)
(X_438  0.4107843339443207)
(X_439  0.4068627655506134)
(X_440  0.3754902184009552)
(X_441  0.24411766231060028)
(X_442  0.23235295712947845)
(X_443  0.23627452552318573)
(X_444  0.20490197837352753)
(X_445  0.16568627953529358)
(X_446  0.1460784375667572)
(X_447  0.2774509787559509)
(X_448  0.2617647051811218)
(X_449  0.1617647111415863)
(X_450  0.15392157435417175)
(X_451  0.25)
(X_452  0.25)
(X_453  0.25)
(X_454  0.25)
(X_455  0.25)
(X_456  0.29313725233078003)
(X_457  0.2852941155433655)
(X_458  0.2696078419685364)
(X_459  0.25784313678741455)
(X_460  0.25)
(X_461  0.2539215683937073)
(X_462  0.2617647051811218)
(X_463  0.2656862735748291)
(X_464  0.2656862735748291)
(X_465  0.27352941036224365)
(X_466  0.18529412150382996)
(X_467  0.1931372582912445)
(X_468  0.18921568989753723)
(X_469  0.18137255311012268)
(X_470  0.2656862735748291)
(X_471  0.25784313678741455)
(X_472  0.2343137264251709)
(X_473  0.2186274528503418)
(X_474  0.19901961088180542)
(X_475  0.2029411792755127)
(X_476  0.13823530077934265)
(X_477  0.13823530077934265)
(X_478  0.13431373238563538)
(X_479  0.23039215803146362)
(X_480  0.1303921639919281)
(X_481  0.1303921639919281)
(X_482  0.13431373238563538)
(X_483  0.13431373238563538)
(X_484  0.1460784375667572)
(X_485  0.23823529481887817)
(X_486  0.12647059559822083)
(X_487  0.11862745881080627)
(X_488  0.11078432202339172)
(X_489  0.11078432202339172)
(X_490  0.114705890417099)
(X_491  0.11862745881080627)
(X_492  0.114705890417099)
(X_493  0.114705890417099)
(X_494  0.114705890417099)
(X_495  0.11078432202339172)
(X_496  0.21078431606292725)
(X_497  0.21078431606292725)
(X_498  0.20686274766921997)
(X_499  0.20686274766921997)
(X_500  0.12647059559822083)
(X_501  0.11078432202339172)
(X_502  0.09509804844856262)
(X_503  0.0990196168422699)
(X_504  0.20686274766921997)
(X_505  0.2029411792755127)
(X_506  0.2029411792755127)
(X_507  0.2029411792755127)
(X_508  0.10294118523597717)
(X_509  0.10686275362968445)
(X_510  0.11078432202339172)
(X_511  0.11078432202339172)
(X_512  0.114705890417099)
(X_513  0.11078432202339172)
(X_514  0.10686275362968445)
(X_515  0.10294118523597717)
(X_516  0.0990196168422699)
(X_517  0.09509804844856262)
(X_518  0.09117648005485535)
(X_519  0.09117648005485535)
(X_520  0.09509804844856262)
(X_521  0.08725491166114807)
(X_522  0.07549020648002625)
(X_523  0.06372549384832382)
(X_524  0.06372549384832382)
(X_525  0.1715686321258545)
(X_526  0.07941177487373352)
(X_527  0.08725491166114807)
(X_528  0.09509804844856262)
(X_529  0.0833333432674408)
(X_530  0.07156863063573837)
(X_531  0.07549020648002625)
(X_532  0.17549020051956177)
(X_533  0.17549020051956177)
(X_534  0.17549020051956177)
(X_535  0.17549020051956177)
(X_536  0.17941176891326904)
(X_537  0.18333333730697632)
(X_538  0.08725491166114807)
(X_539  0.09117648005485535)
(X_540  0.09117648005485535)
(X_541  0.09117648005485535)
(X_542  0.09509804844856262)
(X_543  0.09509804844856262)
(X_544  0.19117647409439087)
(X_545  0.18333333730697632)
(X_546  0.07549020648002625)
(X_547  0.07156863063573837)
(X_548  0.19117647409439087)
(X_549  0.18333333730697632)
(X_550  0.07156863063573837)
(X_551  0.06372549384832382)
(X_552  0.05980392172932625)
(X_553  0.16764706373214722)
(X_554  0.17549020051956177)
(X_555  0.18333333730697632)
(X_556  0.1558823585510254)
(X_557  0.04803921654820442)
(X_558  0.04019607976078987)
(X_559  0.04411764815449715)
(X_560  0.15980392694473267)
(X_561  0.05588235333561897)
(X_562  0.05588235333561897)
(X_563  0.05588235333561897)
(X_564  0.05980392172932625)
(X_565  0.06372549384832382)
(X_566  0.0676470622420311)
(X_567  0.07156863063573837)
(X_568  0.0519607849419117)
(X_569  0.05588235333561897)
(X_570  0.15980392694473267)
(X_571  0.16372549533843994)
(X_572  0.05980392172932625)
(X_573  0.0519607849419117)
(X_574  0.04411764815449715)
(X_575  0.04019607976078987)
(X_576  0.05588235333561897)
(X_577  0.05588235333561897)
(X_578  0.0519607849419117)
(X_579  0.0519607849419117)
(X_580  0.14803922176361084)
(X_581  0.14803922176361084)
(X_582  0.14803922176361084)
(X_583  0.14803922176361084)
(X_584  0.13235294818878174)
(X_585  0.028431374579668045)
(X_586  0.02450980618596077)
(X_587  0.02450980618596077)
(X_588  0.14803922176361084)
(X_589  0.04411764815449715)
(X_590  0.04411764815449715)
(X_591  0.04019607976078987)
(X_592  0.14411765336990356)
(X_593  0.04411764815449715)
(X_594  0.14803922176361084)
(X_595  0.0519607849419117)
(X_596  0.036274511367082596)
(X_597  0.04019607976078987)
(X_598  0.04411764815449715)
(X_599  0.04411764815449715)
(X_600  0.04411764815449715)
(X_601  0.036274511367082596)
(X_602  0.03235294297337532)
(X_603  0.028431374579668045)
(X_604  0.12843137979507446)
(X_605  0.03235294297337532)
(X_606  0.1401960849761963)
(X_607  0.1401960849761963)
(X_608  0.1401960849761963)
(X_609  0.13235294818878174)
(X_610  0.028431374579668045)
(X_611  0.020588237792253494)
(X_612  0.12843137979507446)
(X_613  0.12450980395078659)
(X_614  0.12450980395078659)
(X_615  0.12450980395078659)
(X_616  0.136274516582489)
(X_617  0.136274516582489)
(X_618  0.13235294818878174)
(X_619  0.028431374579668045)
(X_620  0.028431374579668045)
(X_621  0.12843137979507446)
(X_622  0.03235294297337532)
(X_623  0.03235294297337532)
(X_624  0.1401960849761963)
(X_625  0.04019607976078987)
(X_626  0.1401960849761963)
(X_627  0.04019607976078987)
(X_628  0.04019607976078987)
(X_629  0.036274511367082596)
(X_630  0.03235294297337532)
(X_631  0.03235294297337532)
(X_632  0.028431374579668045)
(X_633  0.03235294297337532)
(X_634  0.03235294297337532)
(X_635  0.036274511367082596)
(X_636  0.03235294297337532)
(X_637  0.12843137979507446)
(X_638  0.12450980395078659)
(X_639  0.12058823555707932)
(X_640  0.12450980395078659)
(X_641  0.12450980395078659)
(X_642  0.12058823555707932)
(X_643  0.11666666716337204)
(X_644  0.13235294818878174)
(X_645  0.12843137979507446)
(X_646  0.12450980395078659)
(X_647  0.020588237792253494)
(X_648  0.12058823555707932)
(X_649  0.11666666716337204)
(X_650  0.12058823555707932)
(X_651  0.12058823555707932)
(X_652  0.03235294297337532)
(X_653  0.028431374579668045)
(X_654  0.028431374579668045)
(X_655  0.028431374579668045)
(X_656  0.02450980618596077)
(X_657  0.02450980618596077)
(X_658  0.02450980618596077)
(X_659  0.02450980618596077)
(X_660  0.12450980395078659)
(X_661  0.12450980395078659)
(X_662  0.12058823555707932)
(X_663  0.12058823555707932)
(X_664  0.01666666939854622)
(X_665  0.01666666939854622)
(X_666  0.01666666939854622)
(X_667  0.01666666939854622)
(X_668  0.012745101936161518)
(X_669  0.01666666939854622)
(X_670  0.012745101936161518)
(X_671  0.008823529817163944)
(X_672  0.12058823555707932)
(X_673  0.020588237792253494)
(X_674  0.020588237792253494)
(X_675  0.12058823555707932)
(X_676  0.12058823555707932)
(X_677  0.12058823555707932)
(X_678  0.12058823555707932)
(X_679  0.12058823555707932)
(X_680  0.03235294297337532)
(X_681  0.03235294297337532)
(X_682  0.03235294297337532)
(X_683  0.03235294297337532)
(X_684  0.03235294297337532)
(X_685  0.03235294297337532)
(X_686  0.03235294297337532)
(X_687  0.03235294297337532)
(X_688  0.028431374579668045)
(X_689  0.12450980395078659)
(X_690  0.020588237792253494)
(X_691  0.020588237792253494)
(X_692  0.11666666716337204)
(X_693  0.11666666716337204)
(X_694  0.12058823555707932)
(X_695  0.12058823555707932)
(X_696  0.12450980395078659)
(X_697  0.12450980395078659)
(X_698  0.12450980395078659)
(X_699  0.12450980395078659)
(X_700  0.12058823555707932)
(X_701  0.12058823555707932)
(X_702  0.12058823555707932)
(X_703  0.12058823555707932)
(X_704  0.020588237792253494)
(X_705  0.020588237792253494)
(X_706  0.020588237792253494)
(X_707  0.020588237792253494)
(X_708  0.02450980618596077)
(X_709  0.02450980618596077)
(X_710  0.12450980395078659)
(X_711  0.12450980395078659)
(X_712  0.12450980395078659)
(X_713  0.02450980618596077)
(X_714  0.02450980618596077)
(X_715  0.02450980618596077)
(X_716  0.012745101936161518)
(X_717  0.012745101936161518)
(X_718  0.008823529817163944)
(X_719  0.004901961423456669)
(X_720  0.004901961423456669)
(X_721  0.004901961423456669)
(X_722  0.004901961423456669)
(X_723  0.004901961423456669)
(X_724  0.12058823555707932)
(X_725  0.020588237792253494)
(X_726  0.020588237792253494)
(X_727  0.020588237792253494)
(X_728  0.12058823555707932)
(X_729  0.12058823555707932)
(X_730  0.12058823555707932)
(X_731  0.12058823555707932)
(X_732  0.12058823555707932)
(X_733  0.12058823555707932)
(X_734  0.12058823555707932)
(X_735  0.12058823555707932)
(X_736  0.01666666939854622)
(X_737  0.01666666939854622)
(X_738  0.01666666939854622)
(X_739  0.01666666939854622)
(X_740  0.01666666939854622)
(X_741  0.11666666716337204)
(X_742  0.01666666939854622)
(X_743  0.11666666716337204)
(X_744  0.012745101936161518)
(X_745  0.10882353037595749)
(X_746  0.10490196198225021)
(X_747  0.0009803927969187498)
(X_748  0.10098039358854294)
(X_749  0.10098039358854294)
(X_750  0.10098039358854294)
(X_751  0.10098039358854294)
(X_752  0.11666666716337204)
(X_753  0.11666666716337204)
(X_754  0.11666666716337204)
(X_755  0.11666666716337204)
(X_756  0.11666666716337204)
(X_757  0.01666666939854622)
(X_758  0.020588237792253494)
(X_759  0.020588237792253494)
(X_760  0.020588237792253494)
(X_761  0.020588237792253494)
(X_762  0.12450980395078659)
(X_763  0.12450980395078659)
(X_764  0.11274509876966476)
(X_765  0.11274509876966476)
(X_766  0.012745101936161518)
(X_767  0.012745101936161518)
(X_768  0.11274509876966476)
(X_769  0.012745101936161518)
(X_770  0.012745101936161518)
(X_771  0.012745101936161518)
(X_772  0.020588237792253494)
(X_773  0.020588237792253494)
(X_774  0.01666666939854622)
(X_775  0.012745101936161518)
(X_776  0.008823529817163944)
(X_777  0.11274509876966476)
(X_778  0.11274509876966476)
(X_779  0.11274509876966476)
(X_780  0.01666666939854622)
(X_781  0.01666666939854622)
(X_782  0.01666666939854622)
(X_783  0.01666666939854622)
(Y_0 -5.715868949890137)
(Y_1 8.669794082641602)
(Y_2 0.15135478973388672)
(Y_3 -3.3567817211151123))