((X_0  1.0460784435272217)
(X_1  0.9460784196853638)
(X_2  0.9460784196853638)
(X_3  0.9460784196853638)
(X_4  0.9460784196853638)
(X_5  0.9460784196853638)
(X_6  1.0499999523162842)
(X_7  0.949999988079071)
(X_8  1.0499999523162842)
(X_9  1.0303921699523926)
(X_10  1.0303921699523926)
(X_11  0.949999988079071)
(X_12  1.0499999523162842)
(X_13  1.0499999523162842)
(X_14  0.9911764860153198)
(X_15  0.8323529362678528)
(X_16  0.7147058844566345)
(X_17  0.6088235378265381)
(X_18  0.45196080207824707)
(X_19  0.29901960492134094)
(X_20  0.2852941155433655)
(X_21  0.22254902124404907)
(X_22  0.18333333730697632)
(X_23  0.0676470622420311)
(X_24  0.17941176891326904)
(X_25  0.07549020648002625)
(X_26  0.07549020648002625)
(X_27  0.1715686321258545)
(X_28  1.0499999523162842)
(X_29  1.0499999523162842)
(X_30  0.949999988079071)
(X_31  0.949999988079071)
(X_32  0.949999988079071)
(X_33  0.949999988079071)
(X_34  0.9421568512916565)
(X_35  0.9343137145042419)
(X_36  0.9421568512916565)
(X_37  0.8676470518112183)
(X_38  0.7539215683937073)
(X_39  0.636274516582489)
(X_40  0.5147058963775635)
(X_41  0.39313724637031555)
(X_42  0.38333335518836975)
(X_43  0.22058825194835663)
(X_44  0.25784313678741455)
(X_45  0.23039215803146362)
(X_46  0.19117647409439087)
(X_47  0.06372549384832382)
(X_48  0.06372549384832382)
(X_49  0.07549020648002625)
(X_50  0.08725491166114807)
(X_51  0.09117648005485535)
(X_52  0.16372549533843994)
(X_53  0.16372549533843994)
(X_54  0.15980392694473267)
(X_55  0.1558823585510254)
(X_56  1.0264705419540405)
(X_57  0.9186274409294128)
(X_58  0.8990195989608765)
(X_59  0.8519607782363892)
(X_60  0.7696078419685364)
(X_61  0.6519607901573181)
(X_62  0.5264706015586853)
(X_63  0.44411763548851013)
(X_64  0.23235295712947845)
(X_65  0.19705882668495178)
(X_66  0.15000000596046448)
(X_67  0.10294118523597717)
(X_68  0.17941176891326904)
(X_69  0.07941177487373352)
(X_70  0.09117648005485535)
(X_71  0.0990196168422699)
(X_72  0.06372549384832382)
(X_73  0.05980392172932625)
(X_74  0.05588235333561897)
(X_75  0.05588235333561897)
(X_76  0.1558823585510254)
(X_77  0.1558823585510254)
(X_78  0.1558823585510254)
(X_79  0.1558823585510254)
(X_80  0.15980392694473267)
(X_81  0.1558823585510254)
(X_82  0.0519607849419117)
(X_83  0.14803922176361084)
(X_84  0.6029412150382996)
(X_85  0.42450979351997375)
(X_86  0.3068627417087555)
(X_87  0.30098041892051697)
(X_88  0.2343137264251709)
(X_89  0.19509804248809814)
(X_90  0.17549020051956177)
(X_91  0.0676470622420311)
(X_92  0.2186274528503418)
(X_93  0.10686275362968445)
(X_94  0.0833333432674408)
(X_95  0.05588235333561897)
(X_96  0.14803922176361084)
(X_97  0.1558823585510254)
(X_98  0.1558823585510254)
(X_99  0.14803922176361084)
(X_100  0.2029411792755127)
(X_101  0.19901961088180542)
(X_102  0.1872549057006836)
(X_103  0.17941176891326904)
(X_104  0.16764706373214722)
(X_105  0.0676470622420311)
(X_106  0.07156863063573837)
(X_107  0.07549020648002625)
(X_108  0.0676470622420311)
(X_109  0.06372549384832382)
(X_110  0.05980392172932625)
(X_111  0.0519607849419117)
(X_112  0.0676470622420311)
(X_113  0.06372549384832382)
(X_114  0.06372549384832382)
(X_115  0.1715686321258545)
(X_116  0.1872549057006836)
(X_117  0.0990196168422699)
(X_118  0.09509804844856262)
(X_119  0.08725491166114807)
(X_120  0.10294118523597717)
(X_121  0.11862745881080627)
(X_122  0.13431373238563538)
(X_123  0.14215686917304993)
(X_124  0.15392157435417175)
(X_125  0.1460784375667572)
(X_126  0.09117648005485535)
(X_127  0.03235294297337532)
(X_128  0.14803922176361084)
(X_129  0.14411765336990356)
(X_130  0.1401960849761963)
(X_131  0.14411765336990356)
(X_132  0.15196079015731812)
(X_133  0.15980392694473267)
(X_134  0.07156863063573837)
(X_135  0.17549020051956177)
(X_136  0.07156863063573837)
(X_137  0.0676470622420311)
(X_138  0.15980392694473267)
(X_139  0.1558823585510254)
(X_140  0.16372549533843994)
(X_141  0.15196079015731812)
(X_142  0.14411765336990356)
(X_143  0.1558823585510254)
(X_144  0.20686274766921997)
(X_145  0.18921568989753723)
(X_146  0.27156862616539)
(X_147  0.4264706075191498)
(X_148  0.44607844948768616)
(X_149  0.48137256503105164)
(X_150  0.5088235139846802)
(X_151  0.5127450823783875)
(X_152  0.5049019455909729)
(X_153  0.46568629145622253)
(X_154  0.3637255132198334)
(X_155  0.2656862735748291)
(X_156  0.09117648005485535)
(X_157  0.1715686321258545)
(X_158  0.1558823585510254)
(X_159  0.14803922176361084)
(X_160  0.15196079015731812)
(X_161  0.15196079015731812)
(X_162  0.136274516582489)
(X_163  0.12058823555707932)
(X_164  0.15980392694473267)
(X_165  0.05588235333561897)
(X_166  0.15196079015731812)
(X_167  0.14803922176361084)
(X_168  0.05980392172932625)
(X_169  0.21470588445663452)
(X_170  0.20098040997982025)
(X_171  0.3794117867946625)
(X_172  0.43431374430656433)
(X_173  0.37745097279548645)
(X_174  0.41274508833885193)
(X_175  0.5362744927406311)
(X_176  0.4990196228027344)
(X_177  0.5460784435272217)
(X_178  0.5774509906768799)
(X_179  0.665686309337616)
(X_180  0.6460784673690796)
(X_181  0.6107843518257141)
(X_182  0.5323529243469238)
(X_183  0.45000001788139343)
(X_184  0.28921568393707275)
(X_185  0.23823529481887817)
(X_186  0.17549020051956177)
(X_187  0.14803922176361084)
(X_188  0.14803922176361084)
(X_189  0.05588235333561897)
(X_190  0.04411764815449715)
(X_191  0.12843137979507446)
(X_192  0.15196079015731812)
(X_193  0.14803922176361084)
(X_194  0.14803922176361084)
(X_195  0.14411765336990356)
(X_196  0.2245098203420639)
(X_197  0.3637255132198334)
(X_198  0.41470590233802795)
(X_199  0.4539215862751007)
(X_200  0.4852941334247589)
(X_201  0.5245097875595093)
(X_202  0.5754902362823486)
(X_203  0.6147059202194214)
(X_204  0.5303921699523926)
(X_205  0.5852941274642944)
(X_206  0.6088235378265381)
(X_207  0.5774509906768799)
(X_208  0.5460784435272217)
(X_209  0.5303921699523926)
(X_210  0.4950980544090271)
(X_211  0.44411763548851013)
(X_212  0.5088235139846802)
(X_213  0.4107843339443207)
(X_214  0.2774509787559509)
(X_215  0.19117647409439087)
(X_216  0.15980392694473267)
(X_217  0.15980392694473267)
(X_218  0.15196079015731812)
(X_219  0.1401960849761963)
(X_220  0.15196079015731812)
(X_221  0.0519607849419117)
(X_222  0.04803921654820442)
(X_223  0.04803921654820442)
(X_224  0.3578431308269501)
(X_225  0.3539215624332428)
(X_226  0.32647058367729187)
(X_227  0.4264706075191498)
(X_228  0.4049019515514374)
(X_229  0.5186274647712708)
(X_230  0.550000011920929)
(X_231  0.5147058963775635)
(X_232  0.5107843279838562)
(X_233  0.4990196228027344)
(X_234  0.4833333492279053)
(X_235  0.47156864404678345)
(X_236  0.5637255311012268)
(X_237  0.46764707565307617)
(X_238  0.4754902124404907)
(X_239  0.479411780834198)
(X_240  0.39313724637031555)
(X_241  0.43039217591285706)
(X_242  0.39901962876319885)
(X_243  0.40294119715690613)
(X_244  0.35196080803871155)
(X_245  0.23823529481887817)
(X_246  0.16372549533843994)
(X_247  0.05588235333561897)
(X_248  0.04411764815449715)
(X_249  0.05980392172932625)
(X_250  0.0519607849419117)
(X_251  0.03235294297337532)
(X_252  0.3225490152835846)
(X_253  0.3068627417087555)
(X_254  0.3029411733150482)
(X_255  0.46176472306251526)
(X_256  0.5872549414634705)
(X_257  0.6774510145187378)
(X_258  0.6264706254005432)
(X_259  0.520588219165802)
(X_260  0.3735294044017792)
(X_261  0.3539215624332428)
(X_262  0.43039217591285706)
(X_263  0.43039217591285706)
(X_264  0.457843154668808)
(X_265  0.5049019455909729)
(X_266  0.5558823943138123)
(X_267  0.5911765098571777)
(X_268  0.37745097279548645)
(X_269  0.4225490391254425)
(X_270  0.40294119715690613)
(X_271  0.33039215207099915)
(X_272  0.34607842564582825)
(X_273  0.3186274468898773)
(X_274  0.38333335518836975)
(X_275  0.3754902184009552)
(X_276  0.2813725471496582)
(X_277  0.18137255311012268)
(X_278  0.1617647111415863)
(X_279  0.12647059559822083)
(X_280  0.387254923582077)
(X_281  0.3950980603694916)
(X_282  0.33039215207099915)
(X_283  0.41274508833885193)
(X_284  0.5147058963775635)
(X_285  0.6343137621879578)
(X_286  0.5284313559532166)
(X_287  0.39901962876319885)
(X_288  0.29509803652763367)
(X_289  0.26764705777168274)
(X_290  0.240196093916893)
(X_291  0.33627453446388245)
(X_292  0.3637255132198334)
(X_293  0.31078431010246277)
(X_294  0.3578431308269501)
(X_295  0.3892156779766083)
(X_296  0.4539215862751007)
(X_297  0.41470590233802795)
(X_298  0.28333333134651184)
(X_299  0.29901960492134094)
(X_300  0.4421568810939789)
(X_301  0.46568629145622253)
(X_302  0.44607844948768616)
(X_303  0.31470587849617004)
(X_304  0.46176472306251526)
(X_305  0.4539215862751007)
(X_306  0.3343137204647064)
(X_307  0.3029411733150482)
(X_308  0.4068627655506134)
(X_309  0.4539215862751007)
(X_310  0.5088235139846802)
(X_311  0.4362744987010956)
(X_312  0.4205882251262665)
(X_313  0.36176469922065735)
(X_314  0.27941176295280457)
(X_315  0.21274511516094208)
(X_316  0.24411766231060028)
(X_317  0.22843138873577118)
(X_318  0.31666669249534607)
(X_319  0.3127451241016388)
(X_320  0.3245098292827606)
(X_321  0.23235295712947845)
(X_322  0.23235295712947845)
(X_323  0.3245098292827606)
(X_324  0.31470587849617004)
(X_325  0.31470587849617004)
(X_326  0.29901960492134094)
(X_327  0.38333335518836975)
(X_328  0.29901960492134094)
(X_329  0.3225490152835846)
(X_330  0.39901962876319885)
(X_331  0.35196080803871155)
(X_332  0.41470590233802795)
(X_333  0.4107843339443207)
(X_334  0.3029411733150482)
(X_335  0.2911764681339264)
(X_336  0.39313724637031555)
(X_337  0.5127450823783875)
(X_338  0.5245097875595093)
(X_339  0.4892157018184662)
(X_340  0.39901962876319885)
(X_341  0.3088235557079315)
(X_342  0.16568627953529358)
(X_343  0.1617647111415863)
(X_344  0.1617647111415863)
(X_345  0.15784314274787903)
(X_346  0.15784314274787903)
(X_347  0.16960784792900085)
(X_348  0.18529412150382996)
(X_349  0.18137255311012268)
(X_350  0.2617647051811218)
(X_351  0.24215686321258545)
(X_352  0.35196080803871155)
(X_353  0.41470590233802795)
(X_354  0.4539215862751007)
(X_355  0.3499999940395355)
(X_356  0.3539215624332428)
(X_357  0.47745099663734436)
(X_358  0.4735294282436371)
(X_359  0.4421568810939789)
(X_360  0.3343137204647064)
(X_361  0.3343137204647064)
(X_362  0.34215685725212097)
(X_363  0.3499999940395355)
(X_364  0.45588237047195435)
(X_365  0.4049019515514374)
(X_366  0.3499999940395355)
(X_367  0.39901962876319885)
(X_368  0.3284313976764679)
(X_369  0.2539215683937073)
(X_370  0.12254902720451355)
(X_371  0.1303921639919281)
(X_372  0.14215686917304993)
(X_373  0.12647059559822083)
(X_374  0.114705890417099)
(X_375  0.22254902124404907)
(X_376  0.24215686321258545)
(X_377  0.1460784375667572)
(X_378  0.13431373238563538)
(X_379  0.21470588445663452)
(X_380  0.2774509787559509)
(X_381  0.3754902184009552)
(X_382  0.46176472306251526)
(X_383  0.3813725411891937)
(X_384  0.3735294044017792)
(X_385  0.3892156779766083)
(X_386  0.41274508833885193)
(X_387  0.4205882251262665)
(X_388  0.5009803771972656)
(X_389  0.5088235139846802)
(X_390  0.5362744927406311)
(X_391  0.5715686678886414)
(X_392  0.5049019455909729)
(X_393  0.43431374430656433)
(X_394  0.3715686500072479)
(X_395  0.3401961028575897)
(X_396  0.28921568393707275)
(X_397  0.22254902124404907)
(X_398  0.19509804248809814)
(X_399  0.21078431606292725)
(X_400  0.24607843160629272)
(X_401  0.22647058963775635)
(X_402  0.20686274766921997)
(X_403  0.20686274766921997)
(X_404  0.22254902124404907)
(X_405  0.22254902124404907)
(X_406  0.0990196168422699)
(X_407  0.17549020051956177)
(X_408  0.12647059559822083)
(X_409  0.20490197837352753)
(X_410  0.27941176295280457)
(X_411  0.3950980603694916)
(X_412  0.27156862616539)
(X_413  0.26372548937797546)
(X_414  0.39901962876319885)
(X_415  0.4382353127002716)
(X_416  0.2754901945590973)
(X_417  0.3754902184009552)
(X_418  0.29901960492134094)
(X_419  0.34215685725212097)
(X_420  0.31078431010246277)
(X_421  0.27156862616539)
(X_422  0.24803923070430756)
(X_423  0.22843138873577118)
(X_424  0.1617647111415863)
(X_425  0.07941177487373352)
(X_426  0.06372549384832382)
(X_427  0.2029411792755127)
(X_428  0.19901961088180542)
(X_429  0.1872549057006836)
(X_430  0.0833333432674408)
(X_431  0.0990196168422699)
(X_432  0.11862745881080627)
(X_433  0.21078431606292725)
(X_434  0.07549020648002625)
(X_435  0.04019607976078987)
(X_436  0.10686275362968445)
(X_437  0.15000000596046448)
(X_438  0.2970588207244873)
(X_439  0.30098041892051697)
(X_440  0.2656862735748291)
(X_441  0.15000000596046448)
(X_442  0.18921568989753723)
(X_443  0.240196093916893)
(X_444  0.22843138873577118)
(X_445  0.21274511516094208)
(X_446  0.21274511516094208)
(X_447  0.3284313976764679)
(X_448  0.3284313976764679)
(X_449  0.2088235467672348)
(X_450  0.17352941632270813)
(X_451  0.23823529481887817)
(X_452  0.10686275362968445)
(X_453  0.08725491166114807)
(X_454  0.17549020051956177)
(X_455  0.16764706373214722)
(X_456  0.19509804248809814)
(X_457  0.19901961088180542)
(X_458  0.2029411792755127)
(X_459  0.2029411792755127)
(X_460  0.19509804248809814)
(X_461  0.18333333730697632)
(X_462  0.1715686321258545)
(X_463  0.16372549533843994)
(X_464  0.04411764815449715)
(X_465  0.09509804844856262)
(X_466  0.1460784375667572)
(X_467  0.25)
(X_468  0.22254902124404907)
(X_469  0.21078431606292725)
(X_470  0.24215686321258545)
(X_471  0.2774509787559509)
(X_472  0.24607843160629272)
(X_473  0.23039215803146362)
(X_474  0.21470588445663452)
(X_475  0.2029411792755127)
(X_476  0.16960784792900085)
(X_477  0.15392157435417175)
(X_478  0.23039215803146362)
(X_479  0.2029411792755127)
(X_480  0.0833333432674408)
(X_481  0.0676470622420311)
(X_482  0.06372549384832382)
(X_483  0.06372549384832382)
(X_484  0.16764706373214722)
(X_485  0.16764706373214722)
(X_486  0.1715686321258545)
(X_487  0.07156863063573837)
(X_488  0.06372549384832382)
(X_489  0.05588235333561897)
(X_490  0.04803921654820442)
(X_491  0.14411765336990356)
(X_492  0.04411764815449715)
(X_493  0.06372549384832382)
(X_494  0.08725491166114807)
(X_495  0.08725491166114807)
(X_496  0.1715686321258545)
(X_497  0.16372549533843994)
(X_498  0.1715686321258545)
(X_499  0.18333333730697632)
(X_500  0.18333333730697632)
(X_501  0.07156863063573837)
(X_502  0.05588235333561897)
(X_503  0.0519607849419117)
(X_504  0.0990196168422699)
(X_505  0.09117648005485535)
(X_506  0.17549020051956177)
(X_507  0.15980392694473267)
(X_508  0.0519607849419117)
(X_509  0.04803921654820442)
(X_510  0.04803921654820442)
(X_511  0.15196079015731812)
(X_512  0.04411764815449715)
(X_513  0.04411764815449715)
(X_514  0.04019607976078987)
(X_515  0.04019607976078987)
(X_516  0.04019607976078987)
(X_517  0.036274511367082596)
(X_518  0.036274511367082596)
(X_519  0.03235294297337532)
(X_520  0.05588235333561897)
(X_521  0.04803921654820442)
(X_522  0.04019607976078987)
(X_523  0.04019607976078987)
(X_524  0.04803921654820442)
(X_525  0.14803922176361084)
(X_526  0.136274516582489)
(X_527  0.12843137979507446)
(X_528  0.03235294297337532)
(X_529  0.02450980618596077)
(X_530  0.012745101936161518)
(X_531  0.012745101936161518)
(X_532  0.15196079015731812)
(X_533  0.14803922176361084)
(X_534  0.1401960849761963)
(X_535  0.13235294818878174)
(X_536  0.12843137979507446)
(X_537  0.03235294297337532)
(X_538  0.036274511367082596)
(X_539  0.04019607976078987)
(X_540  0.04019607976078987)
(X_541  0.036274511367082596)
(X_542  0.03235294297337532)
(X_543  0.03235294297337532)
(X_544  0.03235294297337532)
(X_545  0.036274511367082596)
(X_546  0.036274511367082596)
(X_547  0.04019607976078987)
(X_548  0.14803922176361084)
(X_549  0.13235294818878174)
(X_550  0.020588237792253494)
(X_551  0.02450980618596077)
(X_552  0.1401960849761963)
(X_553  0.14803922176361084)
(X_554  0.14803922176361084)
(X_555  0.04019607976078987)
(X_556  0.136274516582489)
(X_557  0.028431374579668045)
(X_558  0.11666666716337204)
(X_559  0.11666666716337204)
(X_560  0.1401960849761963)
(X_561  0.036274511367082596)
(X_562  0.028431374579668045)
(X_563  0.02450980618596077)
(X_564  0.02450980618596077)
(X_565  0.02450980618596077)
(X_566  0.028431374579668045)
(X_567  0.028431374579668045)
(X_568  0.036274511367082596)
(X_569  0.03235294297337532)
(X_570  0.03235294297337532)
(X_571  0.03235294297337532)
(X_572  0.03235294297337532)
(X_573  0.036274511367082596)
(X_574  0.04019607976078987)
(X_575  0.04019607976078987)
(X_576  0.01666666939854622)
(X_577  0.01666666939854622)
(X_578  0.012745101936161518)
(X_579  0.11274509876966476)
(X_580  0.11666666716337204)
(X_581  0.12843137979507446)
(X_582  0.136274516582489)
(X_583  0.14411765336990356)
(X_584  0.15196079015731812)
(X_585  0.04411764815449715)
(X_586  0.03235294297337532)
(X_587  0.028431374579668045)
(X_588  0.1401960849761963)
(X_589  0.036274511367082596)
(X_590  0.03235294297337532)
(X_591  0.028431374579668045)
(X_592  0.02450980618596077)
(X_593  0.020588237792253494)
(X_594  0.12058823555707932)
(X_595  0.12058823555707932)
(X_596  0.12450980395078659)
(X_597  0.12450980395078659)
(X_598  0.02450980618596077)
(X_599  0.02450980618596077)
(X_600  0.02450980618596077)
(X_601  0.028431374579668045)
(X_602  0.028431374579668045)
(X_603  0.028431374579668045)
(X_604  0.11666666716337204)
(X_605  0.12450980395078659)
(X_606  0.12843137979507446)
(X_607  0.12058823555707932)
(X_608  0.10882353037595749)
(X_609  0.11274509876966476)
(X_610  0.12450980395078659)
(X_611  0.1401960849761963)
(X_612  0.04411764815449715)
(X_613  0.03235294297337532)
(X_614  0.12058823555707932)
(X_615  0.11666666716337204)
(X_616  0.136274516582489)
(X_617  0.136274516582489)
(X_618  0.03235294297337532)
(X_619  0.02450980618596077)
(X_620  0.020588237792253494)
(X_621  0.12058823555707932)
(X_622  0.11666666716337204)
(X_623  0.11666666716337204)
(X_624  0.11274509876966476)
(X_625  0.11666666716337204)
(X_626  0.12058823555707932)
(X_627  0.12450980395078659)
(X_628  0.02450980618596077)
(X_629  0.01666666939854622)
(X_630  0.012745101936161518)
(X_631  0.10882353037595749)
(X_632  0.12058823555707932)
(X_633  0.02450980618596077)
(X_634  0.028431374579668045)
(X_635  0.02450980618596077)
(X_636  0.01666666939854622)
(X_637  0.11666666716337204)
(X_638  0.12450980395078659)
(X_639  0.12843137979507446)
(X_640  0.12843137979507446)
(X_641  0.11666666716337204)
(X_642  0.10490196198225021)
(X_643  0.10098039358854294)
(X_644  0.12843137979507446)
(X_645  0.028431374579668045)
(X_646  0.02450980618596077)
(X_647  0.12450980395078659)
(X_648  0.12058823555707932)
(X_649  0.11666666716337204)
(X_650  0.11666666716337204)
(X_651  0.11274509876966476)
(X_652  0.012745101936161518)
(X_653  0.01666666939854622)
(X_654  0.02450980618596077)
(X_655  0.028431374579668045)
(X_656  0.02450980618596077)
(X_657  0.01666666939854622)
(X_658  0.008823529817163944)
(X_659  0.0009803927969187498)
(X_660  0.10490196198225021)
(X_661  0.10098039358854294)
(X_662  0.09705882519483566)
(X_663  0.004901961423456669)
(X_664  0.012745101936161518)
(X_665  0.020588237792253494)
(X_666  0.01666666939854622)
(X_667  0.012745101936161518)
(X_668  0.020588237792253494)
(X_669  0.012745101936161518)
(X_670  0.0009803927969187498)
(X_671  0.0009803927969187498)
(X_672  0.11666666716337204)
(X_673  0.01666666939854622)
(X_674  0.01666666939854622)
(X_675  0.012745101936161518)
(X_676  0.012745101936161518)
(X_677  0.10882353037595749)
(X_678  0.10882353037595749)
(X_679  0.10882353037595749)
(X_680  0.004901961423456669)
(X_681  0.10490196198225021)
(X_682  0.004901961423456669)
(X_683  0.004901961423456669)
(X_684  0.10490196198225021)
(X_685  0.004901961423456669)
(X_686  0.004901961423456669)
(X_687  0.004901961423456669)
(X_688  0.12450980395078659)
(X_689  0.10490196198225021)
(X_690  -0.010784312151372433)
(X_691  -0.006862743757665157)
(X_692  0.10882353037595749)
(X_693  0.11274509876966476)
(X_694  0.11274509876966476)
(X_695  0.10882353037595749)
(X_696  0.12450980395078659)
(X_697  0.10490196198225021)
(X_698  0.09313725680112839)
(X_699  -0.006862743757665157)
(X_700  0.11274509876966476)
(X_701  0.012745101936161518)
(X_702  0.008823529817163944)
(X_703  0.008823529817163944)
(X_704  0.008823529817163944)
(X_705  0.004901961423456669)
(X_706  0.004901961423456669)
(X_707  0.004901961423456669)
(X_708  0.004901961423456669)
(X_709  0.004901961423456669)
(X_710  0.004901961423456669)
(X_711  0.004901961423456669)
(X_712  0.10490196198225021)
(X_713  0.004901961423456669)
(X_714  0.004901961423456669)
(X_715  0.004901961423456669)
(X_716  0.09705882519483566)
(X_717  -0.0029411755967885256)
(X_718  0.004901961423456669)
(X_719  0.020588237792253494)
(X_720  0.020588237792253494)
(X_721  0.004901961423456669)
(X_722  0.08921568840742111)
(X_723  0.08921568840742111)
(X_724  0.12058823555707932)
(X_725  0.11666666716337204)
(X_726  0.11274509876966476)
(X_727  0.10882353037595749)
(X_728  0.10882353037595749)
(X_729  0.10490196198225021)
(X_730  0.10490196198225021)
(X_731  0.10490196198225021)
(X_732  0.10490196198225021)
(X_733  0.10098039358854294)
(X_734  0.10098039358854294)
(X_735  0.10098039358854294)
(X_736  0.10490196198225021)
(X_737  0.004901961423456669)
(X_738  0.004901961423456669)
(X_739  0.004901961423456669)
(X_740  0.004901961423456669)
(X_741  0.004901961423456669)
(X_742  0.004901961423456669)
(X_743  0.004901961423456669)
(X_744  -0.010784312151372433)
(X_745  -0.006862743757665157)
(X_746  0.012745101936161518)
(X_747  0.02450980618596077)
(X_748  0.11666666716337204)
(X_749  0.10490196198225021)
(X_750  0.12058823555707932)
(X_751  0.1558823585510254)
(X_752  0.06568627804517746)
(X_753  0.12058823555707932)
(X_754  0.1872549057006836)
(X_755  0.22254902124404907)
(X_756  0.10882353037595749)
(X_757  0.008823529817163944)
(X_758  0.004901961423456669)
(X_759  0.10490196198225021)
(X_760  0.004901961423456669)
(X_761  0.10490196198225021)
(X_762  0.10490196198225021)
(X_763  0.10490196198225021)
(X_764  0.10490196198225021)
(X_765  0.004901961423456669)
(X_766  0.004901961423456669)
(X_767  0.004901961423456669)
(X_768  0.004901961423456669)
(X_769  0.004901961423456669)
(X_770  0.004901961423456669)
(X_771  0.004901961423456669)
(X_772  0.004901961423456669)
(X_773  0.0009803927969187498)
(X_774  0.004901961423456669)
(X_775  0.004901961423456669)
(X_776  -0.0029411755967885256)
(X_777  0.01666666939854622)
(X_778  0.10294118523597717)
(X_779  0.2970588207244873)
(X_780  0.4754902124404907)
(X_781  0.6009804010391235)
(X_782  0.7539215683937073)
(X_783  0.8401960730552673)
(Y_0 -29.965530395507812)
(Y_1 44.08243942260742)
(Y_2 -25.672719955444336)
(Y_3 12.925697326660156))