((X_0  0.25784313678741455)
(X_1  0.15000000596046448)
(X_2  0.1303921639919281)
(X_3  0.21078431606292725)
(X_4  0.08725491166114807)
(X_5  0.07156863063573837)
(X_6  0.15980392694473267)
(X_7  0.15196079015731812)
(X_8  0.15196079015731812)
(X_9  0.1558823585510254)
(X_10  0.06372549384832382)
(X_11  0.0676470622420311)
(X_12  0.16764706373214722)
(X_13  0.16372549533843994)
(X_14  0.05980392172932625)
(X_15  0.05588235333561897)
(X_16  0.0519607849419117)
(X_17  0.0519607849419117)
(X_18  0.0519607849419117)
(X_19  0.0519607849419117)
(X_20  0.05588235333561897)
(X_21  0.05980392172932625)
(X_22  0.06372549384832382)
(X_23  0.0676470622420311)
(X_24  0.04019607976078987)
(X_25  0.04411764815449715)
(X_26  0.0519607849419117)
(X_27  0.05980392172932625)
(X_28  0.18333333730697632)
(X_29  0.07941177487373352)
(X_30  0.07156863063573837)
(X_31  0.16372549533843994)
(X_32  0.05980392172932625)
(X_33  0.05588235333561897)
(X_34  0.05588235333561897)
(X_35  0.05588235333561897)
(X_36  0.0676470622420311)
(X_37  0.0676470622420311)
(X_38  0.1715686321258545)
(X_39  0.1715686321258545)
(X_40  0.16764706373214722)
(X_41  0.16372549533843994)
(X_42  0.1558823585510254)
(X_43  0.15196079015731812)
(X_44  0.15980392694473267)
(X_45  0.1558823585510254)
(X_46  0.05588235333561897)
(X_47  0.0519607849419117)
(X_48  0.15196079015731812)
(X_49  0.15196079015731812)
(X_50  0.1558823585510254)
(X_51  0.1558823585510254)
(X_52  0.15196079015731812)
(X_53  0.1558823585510254)
(X_54  0.15980392694473267)
(X_55  0.16372549533843994)
(X_56  0.14803922176361084)
(X_57  0.04803921654820442)
(X_58  0.04803921654820442)
(X_59  0.14803922176361084)
(X_60  0.0519607849419117)
(X_61  0.05980392172932625)
(X_62  0.06372549384832382)
(X_63  0.0676470622420311)
(X_64  0.06372549384832382)
(X_65  0.16764706373214722)
(X_66  0.16372549533843994)
(X_67  0.16372549533843994)
(X_68  0.15980392694473267)
(X_69  0.15196079015731812)
(X_70  0.14411765336990356)
(X_71  0.14411765336990356)
(X_72  0.06372549384832382)
(X_73  0.05980392172932625)
(X_74  0.05588235333561897)
(X_75  0.0519607849419117)
(X_76  0.14803922176361084)
(X_77  0.14803922176361084)
(X_78  0.14803922176361084)
(X_79  0.14803922176361084)
(X_80  0.15196079015731812)
(X_81  0.15196079015731812)
(X_82  0.14803922176361084)
(X_83  0.14411765336990356)
(X_84  0.05980392172932625)
(X_85  0.05980392172932625)
(X_86  0.05588235333561897)
(X_87  0.0519607849419117)
(X_88  0.0519607849419117)
(X_89  0.15196079015731812)
(X_90  0.15196079015731812)
(X_91  0.1558823585510254)
(X_92  0.14803922176361084)
(X_93  0.14411765336990356)
(X_94  0.04411764815449715)
(X_95  0.04411764815449715)
(X_96  0.04019607976078987)
(X_97  0.04019607976078987)
(X_98  0.036274511367082596)
(X_99  0.03235294297337532)
(X_100  0.05588235333561897)
(X_101  0.05588235333561897)
(X_102  0.0519607849419117)
(X_103  0.14803922176361084)
(X_104  0.14411765336990356)
(X_105  0.14411765336990356)
(X_106  0.14803922176361084)
(X_107  0.14803922176361084)
(X_108  0.05980392172932625)
(X_109  0.05588235333561897)
(X_110  0.04411764815449715)
(X_111  0.1401960849761963)
(X_112  0.05588235333561897)
(X_113  0.15196079015731812)
(X_114  0.14803922176361084)
(X_115  0.1401960849761963)
(X_116  0.13235294818878174)
(X_117  0.12843137979507446)
(X_118  0.12843137979507446)
(X_119  0.12450980395078659)
(X_120  0.03235294297337532)
(X_121  0.03235294297337532)
(X_122  0.03235294297337532)
(X_123  0.03235294297337532)
(X_124  0.036274511367082596)
(X_125  0.04019607976078987)
(X_126  0.04411764815449715)
(X_127  0.04411764815449715)
(X_128  0.04411764815449715)
(X_129  0.14411765336990356)
(X_130  0.14411765336990356)
(X_131  0.14411765336990356)
(X_132  0.14411765336990356)
(X_133  0.04803921654820442)
(X_134  0.0519607849419117)
(X_135  0.05588235333561897)
(X_136  0.06372549384832382)
(X_137  0.05980392172932625)
(X_138  0.15196079015731812)
(X_139  0.14803922176361084)
(X_140  0.14803922176361084)
(X_141  0.14411765336990356)
(X_142  0.1401960849761963)
(X_143  0.136274516582489)
(X_144  0.03235294297337532)
(X_145  0.03235294297337532)
(X_146  0.13235294818878174)
(X_147  0.036274511367082596)
(X_148  0.136274516582489)
(X_149  0.136274516582489)
(X_150  0.136274516582489)
(X_151  0.136274516582489)
(X_152  0.14411765336990356)
(X_153  0.14803922176361084)
(X_154  0.05588235333561897)
(X_155  0.15980392694473267)
(X_156  0.036274511367082596)
(X_157  0.136274516582489)
(X_158  0.136274516582489)
(X_159  0.1401960849761963)
(X_160  0.1401960849761963)
(X_161  0.14803922176361084)
(X_162  0.15196079015731812)
(X_163  0.1558823585510254)
(X_164  0.1401960849761963)
(X_165  0.1401960849761963)
(X_166  0.1401960849761963)
(X_167  0.136274516582489)
(X_168  0.04411764815449715)
(X_169  0.04411764815449715)
(X_170  0.04411764815449715)
(X_171  0.04411764815449715)
(X_172  0.04803921654820442)
(X_173  0.15196079015731812)
(X_174  0.1558823585510254)
(X_175  0.05980392172932625)
(X_176  0.04411764815449715)
(X_177  0.04019607976078987)
(X_178  0.136274516582489)
(X_179  0.136274516582489)
(X_180  0.1401960849761963)
(X_181  0.14411765336990356)
(X_182  0.15196079015731812)
(X_183  0.1558823585510254)
(X_184  0.04411764815449715)
(X_185  0.04019607976078987)
(X_186  0.04019607976078987)
(X_187  0.036274511367082596)
(X_188  0.04019607976078987)
(X_189  0.04019607976078987)
(X_190  0.04411764815449715)
(X_191  0.14803922176361084)
(X_192  0.12450980395078659)
(X_193  0.12843137979507446)
(X_194  0.136274516582489)
(X_195  0.1401960849761963)
(X_196  0.1401960849761963)
(X_197  0.136274516582489)
(X_198  0.136274516582489)
(X_199  0.1401960849761963)
(X_200  0.04411764815449715)
(X_201  0.04803921654820442)
(X_202  0.05588235333561897)
(X_203  0.1558823585510254)
(X_204  0.04411764815449715)
(X_205  0.04019607976078987)
(X_206  0.03235294297337532)
(X_207  0.028431374579668045)
(X_208  0.028431374579668045)
(X_209  0.03235294297337532)
(X_210  0.036274511367082596)
(X_211  0.1401960849761963)
(X_212  0.15196079015731812)
(X_213  0.14803922176361084)
(X_214  0.14411765336990356)
(X_215  0.136274516582489)
(X_216  0.036274511367082596)
(X_217  0.036274511367082596)
(X_218  0.136274516582489)
(X_219  0.136274516582489)
(X_220  0.04411764815449715)
(X_221  0.0519607849419117)
(X_222  0.06372549384832382)
(X_223  0.07549020648002625)
(X_224  0.04019607976078987)
(X_225  0.03235294297337532)
(X_226  0.02450980618596077)
(X_227  0.02450980618596077)
(X_228  0.028431374579668045)
(X_229  0.036274511367082596)
(X_230  0.036274511367082596)
(X_231  0.03235294297337532)
(X_232  0.136274516582489)
(X_233  0.13235294818878174)
(X_234  0.12843137979507446)
(X_235  0.13235294818878174)
(X_236  0.1401960849761963)
(X_237  0.14411765336990356)
(X_238  0.136274516582489)
(X_239  0.12843137979507446)
(X_240  0.136274516582489)
(X_241  0.0519607849419117)
(X_242  0.0519607849419117)
(X_243  0.1401960849761963)
(X_244  0.136274516582489)
(X_245  0.04803921654820442)
(X_246  0.05980392172932625)
(X_247  0.05588235333561897)
(X_248  0.2656862735748291)
(X_249  0.2245098203420639)
(X_250  0.3068627417087555)
(X_251  0.3578431308269501)
(X_252  0.19117647409439087)
(X_253  0.18333333730697632)
(X_254  0.07549020648002625)
(X_255  0.16764706373214722)
(X_256  0.15980392694473267)
(X_257  0.14803922176361084)
(X_258  0.12843137979507446)
(X_259  0.01666666939854622)
(X_260  0.07156863063573837)
(X_261  0.1558823585510254)
(X_262  0.13235294818878174)
(X_263  0.12058823555707932)
(X_264  0.12843137979507446)
(X_265  0.1401960849761963)
(X_266  0.15196079015731812)
(X_267  0.15980392694473267)
(X_268  0.0519607849419117)
(X_269  0.0519607849419117)
(X_270  0.04019607976078987)
(X_271  0.04019607976078987)
(X_272  0.08725491166114807)
(X_273  0.18921568989753723)
(X_274  0.2872548997402191)
(X_275  0.34215685725212097)
(X_276  0.3539215624332428)
(X_277  0.3499999940395355)
(X_278  0.34607842564582825)
(X_279  0.4382353127002716)
(X_280  0.31470587849617004)
(X_281  0.31470587849617004)
(X_282  0.31470587849617004)
(X_283  0.31470587849617004)
(X_284  0.31078431010246277)
(X_285  0.3950980603694916)
(X_286  0.27156862616539)
(X_287  0.2558823525905609)
(X_288  0.17352941632270813)
(X_289  0.1460784375667572)
(X_290  0.20686274766921997)
(X_291  0.1715686321258545)
(X_292  0.15196079015731812)
(X_293  0.04019607976078987)
(X_294  0.036274511367082596)
(X_295  0.028431374579668045)
(X_296  0.15196079015731812)
(X_297  0.21078431606292725)
(X_298  0.2813725471496582)
(X_299  0.23235295712947845)
(X_300  0.26764705777168274)
(X_301  0.28333333134651184)
(X_302  0.3794117867946625)
(X_303  0.3598039448261261)
(X_304  0.3911764919757843)
(X_305  0.27156862616539)
(X_306  0.24803923070430756)
(X_307  0.240196093916893)
(X_308  0.34607842564582825)
(X_309  0.3499999940395355)
(X_310  0.3578431308269501)
(X_311  0.3696078360080719)
(X_312  0.385294109582901)
(X_313  0.3892156779766083)
(X_314  0.3813725411891937)
(X_315  0.4735294282436371)
(X_316  0.3735294044017792)
(X_317  0.3578431308269501)
(X_318  0.3343137204647064)
(X_319  0.4107843339443207)
(X_320  0.3794117867946625)
(X_321  0.3480392396450043)
(X_322  0.3088235557079315)
(X_323  0.18529412150382996)
(X_324  0.21666668355464935)
(X_325  0.344117671251297)
(X_326  0.36764708161354065)
(X_327  0.26764705777168274)
(X_328  0.26764705777168274)
(X_329  0.27941176295280457)
(X_330  0.2754901945590973)
(X_331  0.26764705777168274)
(X_332  0.32058826088905334)
(X_333  0.31666669249534607)
(X_334  0.3127451241016388)
(X_335  0.3088235557079315)
(X_336  0.2754901945590973)
(X_337  0.3715686500072479)
(X_338  0.36764708161354065)
(X_339  0.3715686500072479)
(X_340  0.38333335518836975)
(X_341  0.3911764919757843)
(X_342  0.2911764681339264)
(X_343  0.2872548997402191)
(X_344  0.38333335518836975)
(X_345  0.3794117867946625)
(X_346  0.3794117867946625)
(X_347  0.3794117867946625)
(X_348  0.3754902184009552)
(X_349  0.36764708161354065)
(X_350  0.3480392396450043)
(X_351  0.33235296607017517)
(X_352  0.38333335518836975)
(X_353  0.36764708161354065)
(X_354  0.31666669249534607)
(X_355  0.15784314274787903)
(X_356  0.13431373238563538)
(X_357  0.15392157435417175)
(X_358  0.18137255311012268)
(X_359  0.1931372582912445)
(X_360  0.3715686500072479)
(X_361  0.41470590233802795)
(X_362  0.4696078598499298)
(X_363  0.5088235139846802)
(X_364  0.3343137204647064)
(X_365  0.3186274468898773)
(X_366  0.29901960492134094)
(X_367  0.38333335518836975)
(X_368  0.3754902184009552)
(X_369  0.36764708161354065)
(X_370  0.3598039448261261)
(X_371  0.35196080803871155)
(X_372  0.25196078419685364)
(X_373  0.240196093916893)
(X_374  0.22843138873577118)
(X_375  0.3245098292827606)
(X_376  0.33627453446388245)
(X_377  0.24803923070430756)
(X_378  0.2558823525905609)
(X_379  0.3598039448261261)
(X_380  0.240196093916893)
(X_381  0.3794117867946625)
(X_382  0.41862747073173523)
(X_383  0.44607844948768616)
(X_384  0.47745099663734436)
(X_385  0.4166666567325592)
(X_386  0.4362744987010956)
(X_387  0.44019606709480286)
(X_388  0.4735294282436371)
(X_389  0.49705883860588074)
(X_390  0.41274508833885193)
(X_391  0.5009803771972656)
(X_392  0.4950980544090271)
(X_393  0.48725491762161255)
(X_394  0.4754902124404907)
(X_395  0.5676470994949341)
(X_396  0.4637255072593689)
(X_397  0.45588237047195435)
(X_398  0.44411763548851013)
(X_399  0.4323529303073883)
(X_400  0.45196080207824707)
(X_401  0.5362744927406311)
(X_402  0.5166666507720947)
(X_403  0.4049019515514374)
(X_404  0.4009803831577301)
(X_405  0.4009803831577301)
(X_406  0.3970588147640228)
(X_407  0.49313727021217346)
(X_408  0.4166666567325592)
(X_409  0.42450979351997375)
(X_410  0.4049019515514374)
(X_411  0.36176469922065735)
(X_412  0.32647058367729187)
(X_413  0.41470590233802795)
(X_414  0.40294119715690613)
(X_415  0.387254923582077)
(X_416  0.26372548937797546)
(X_417  0.2754901945590973)
(X_418  0.38333335518836975)
(X_419  0.38333335518836975)
(X_420  0.25196078419685364)
(X_421  0.3598039448261261)
(X_422  0.3715686500072479)
(X_423  0.3911764919757843)
(X_424  0.4068627655506134)
(X_425  0.41470590233802795)
(X_426  0.4068627655506134)
(X_427  0.39901962876319885)
(X_428  0.4225490391254425)
(X_429  0.4225490391254425)
(X_430  0.41862747073173523)
(X_431  0.3186274468898773)
(X_432  0.4068627655506134)
(X_433  0.387254923582077)
(X_434  0.3598039448261261)
(X_435  0.240196093916893)
(X_436  0.2088235467672348)
(X_437  0.240196093916893)
(X_438  0.2598039209842682)
(X_439  0.2558823525905609)
(X_440  0.3480392396450043)
(X_441  0.33627453446388245)
(X_442  0.21666668355464935)
(X_443  0.1931372582912445)
(X_444  0.30490198731422424)
(X_445  0.30098041892051697)
(X_446  0.30098041892051697)
(X_447  0.3088235557079315)
(X_448  0.15392157435417175)
(X_449  0.24215686321258545)
(X_450  0.2343137264251709)
(X_451  0.23823529481887817)
(X_452  0.25784313678741455)
(X_453  0.1774509847164154)
(X_454  0.2852941155433655)
(X_455  0.2852941155433655)
(X_456  0.32058826088905334)
(X_457  0.21274511516094208)
(X_458  0.20490197837352753)
(X_459  0.20490197837352753)
(X_460  0.2088235467672348)
(X_461  0.30490198731422424)
(X_462  0.2970588207244873)
(X_463  0.29313725233078003)
(X_464  0.3127451241016388)
(X_465  0.30490198731422424)
(X_466  0.18921568989753723)
(X_467  0.1774509847164154)
(X_468  0.16960784792900085)
(X_469  0.2656862735748291)
(X_470  0.2656862735748291)
(X_471  0.2696078419685364)
(X_472  0.2539215683937073)
(X_473  0.24215686321258545)
(X_474  0.1303921639919281)
(X_475  0.22647058963775635)
(X_476  0.16568627953529358)
(X_477  0.2539215683937073)
(X_478  0.14215686917304993)
(X_479  0.1460784375667572)
(X_480  0.15784314274787903)
(X_481  0.16960784792900085)
(X_482  0.17352941632270813)
(X_483  0.17352941632270813)
(X_484  0.16568627953529358)
(X_485  0.1617647111415863)
(X_486  0.15392157435417175)
(X_487  0.15392157435417175)
(X_488  0.2539215683937073)
(X_489  0.2539215683937073)
(X_490  0.24607843160629272)
(X_491  0.24215686321258545)
(X_492  0.23039215803146362)
(X_493  0.12254902720451355)
(X_494  0.114705890417099)
(X_495  0.10294118523597717)
(X_496  0.0990196168422699)
(X_497  0.2029411792755127)
(X_498  0.20686274766921997)
(X_499  0.21078431606292725)
(X_500  0.11078432202339172)
(X_501  0.09509804844856262)
(X_502  0.07941177487373352)
(X_503  0.0676470622420311)
(X_504  0.12254902720451355)
(X_505  0.11078432202339172)
(X_506  0.0990196168422699)
(X_507  0.19509804248809814)
(X_508  0.2029411792755127)
(X_509  0.20686274766921997)
(X_510  0.20686274766921997)
(X_511  0.2029411792755127)
(X_512  0.19509804248809814)
(X_513  0.08725491166114807)
(X_514  0.0833333432674408)
(X_515  0.0833333432674408)
(X_516  0.0833333432674408)
(X_517  0.0833333432674408)
(X_518  0.17941176891326904)
(X_519  0.1715686321258545)
(X_520  0.05980392172932625)
(X_521  0.05980392172932625)
(X_522  0.15196079015731812)
(X_523  0.0519607849419117)
(X_524  0.0519607849419117)
(X_525  0.05980392172932625)
(X_526  0.06372549384832382)
(X_527  0.0676470622420311)
(X_528  0.05588235333561897)
(X_529  0.04411764815449715)
(X_530  0.028431374579668045)
(X_531  0.01666666939854622)
(X_532  0.04803921654820442)
(X_533  0.04411764815449715)
(X_534  0.036274511367082596)
(X_535  0.03235294297337532)
(X_536  0.03235294297337532)
(X_537  0.13235294818878174)
(X_538  0.136274516582489)
(X_539  0.136274516582489)
(X_540  0.04411764815449715)
(X_541  0.036274511367082596)
(X_542  0.03235294297337532)
(X_543  0.03235294297337532)
(X_544  0.036274511367082596)
(X_545  0.036274511367082596)
(X_546  0.028431374579668045)
(X_547  0.12450980395078659)
(X_548  0.136274516582489)
(X_549  0.13235294818878174)
(X_550  0.13235294818878174)
(X_551  0.12843137979507446)
(X_552  0.03235294297337532)
(X_553  0.036274511367082596)
(X_554  0.04411764815449715)
(X_555  0.04411764815449715)
(X_556  0.020588237792253494)
(X_557  0.012745101936161518)
(X_558  0.004901961423456669)
(X_559  0.10490196198225021)
(X_560  0.01666666939854622)
(X_561  0.01666666939854622)
(X_562  0.020588237792253494)
(X_563  0.01666666939854622)
(X_564  0.11666666716337204)
(X_565  0.11666666716337204)
(X_566  0.020588237792253494)
(X_567  0.02450980618596077)
(X_568  0.12058823555707932)
(X_569  0.01666666939854622)
(X_570  0.008823529817163944)
(X_571  0.012745101936161518)
(X_572  0.01666666939854622)
(X_573  0.01666666939854622)
(X_574  0.012745101936161518)
(X_575  0.004901961423456669)
(X_576  0.11666666716337204)
(X_577  0.11666666716337204)
(X_578  0.11274509876966476)
(X_579  0.11274509876966476)
(X_580  0.012745101936161518)
(X_581  0.012745101936161518)
(X_582  0.012745101936161518)
(X_583  0.11274509876966476)
(X_584  0.004901961423456669)
(X_585  0.0009803927969187498)
(X_586  0.0009803927969187498)
(X_587  0.10490196198225021)
(X_588  0.004901961423456669)
(X_589  0.012745101936161518)
(X_590  0.01666666939854622)
(X_591  0.020588237792253494)
(X_592  0.11666666716337204)
(X_593  0.11666666716337204)
(X_594  0.12058823555707932)
(X_595  0.028431374579668045)
(X_596  0.01666666939854622)
(X_597  0.008823529817163944)
(X_598  0.004901961423456669)
(X_599  0.008823529817163944)
(X_600  0.11274509876966476)
(X_601  0.11666666716337204)
(X_602  0.10882353037595749)
(X_603  0.10490196198225021)
(X_604  0.11666666716337204)
(X_605  0.11666666716337204)
(X_606  0.11274509876966476)
(X_607  0.11274509876966476)
(X_608  0.10882353037595749)
(X_609  0.10490196198225021)
(X_610  0.10490196198225021)
(X_611  0.004901961423456669)
(X_612  0.0009803927969187498)
(X_613  -0.0029411755967885256)
(X_614  -0.006862743757665157)
(X_615  0.09705882519483566)
(X_616  0.09313725680112839)
(X_617  0.10490196198225021)
(X_618  0.11274509876966476)
(X_619  0.11274509876966476)
(X_620  0.10490196198225021)
(X_621  0.0009803927969187498)
(X_622  0.10882353037595749)
(X_623  0.11274509876966476)
(X_624  0.11274509876966476)
(X_625  0.10490196198225021)
(X_626  0.10098039358854294)
(X_627  0.10490196198225021)
(X_628  0.008823529817163944)
(X_629  0.012745101936161518)
(X_630  0.10882353037595749)
(X_631  0.10490196198225021)
(X_632  0.012745101936161518)
(X_633  0.012745101936161518)
(X_634  0.11274509876966476)
(X_635  0.11274509876966476)
(X_636  0.11274509876966476)
(X_637  0.10882353037595749)
(X_638  0.10490196198225021)
(X_639  0.10490196198225021)
(X_640  0.10490196198225021)
(X_641  0.09705882519483566)
(X_642  -0.006862743757665157)
(X_643  0.09313725680112839)
(X_644  0.09705882519483566)
(X_645  0.10882353037595749)
(X_646  0.01666666939854622)
(X_647  0.012745101936161518)
(X_648  0.0009803927969187498)
(X_649  -0.0029411755967885256)
(X_650  0.0009803927969187498)
(X_651  0.008823529817163944)
(X_652  0.004901961423456669)
(X_653  0.0009803927969187498)
(X_654  -0.0029411755967885256)
(X_655  -0.0029411755967885256)
(X_656  0.10490196198225021)
(X_657  0.10882353037595749)
(X_658  0.10490196198225021)
(X_659  0.10098039358854294)
(X_660  0.08921568840742111)
(X_661  0.08921568840742111)
(X_662  -0.006862743757665157)
(X_663  -0.0029411755967885256)
(X_664  -0.0029411755967885256)
(X_665  -0.0029411755967885256)
(X_666  -0.006862743757665157)
(X_667  -0.006862743757665157)
(X_668  0.004901961423456669)
(X_669  0.0009803927969187498)
(X_670  -0.0029411755967885256)
(X_671  0.10098039358854294)
(X_672  -0.010784312151372433)
(X_673  0.09313725680112839)
(X_674  0.09313725680112839)
(X_675  0.09705882519483566)
(X_676  0.09705882519483566)
(X_677  0.09313725680112839)
(X_678  0.09313725680112839)
(X_679  0.08921568840742111)
(X_680  0.10098039358854294)
(X_681  0.09705882519483566)
(X_682  0.09313725680112839)
(X_683  0.09313725680112839)
(X_684  0.09705882519483566)
(X_685  0.09705882519483566)
(X_686  0.09313725680112839)
(X_687  0.08529412001371384)
(X_688  0.08921568840742111)
(X_689  0.08529412001371384)
(X_690  0.08529412001371384)
(X_691  0.08529412001371384)
(X_692  0.08921568840742111)
(X_693  0.09313725680112839)
(X_694  0.08921568840742111)
(X_695  0.08529412001371384)
(X_696  0.09313725680112839)
(X_697  -0.006862743757665157)
(X_698  -0.0029411755967885256)
(X_699  -0.010784312151372433)
(X_700  -0.010784312151372433)
(X_701  0.09313725680112839)
(X_702  -0.006862743757665157)
(X_703  0.09705882519483566)
(X_704  0.09705882519483566)
(X_705  0.09313725680112839)
(X_706  0.09313725680112839)
(X_707  0.08921568840742111)
(X_708  0.020588237792253494)
(X_709  0.01666666939854622)
(X_710  0.012745101936161518)
(X_711  0.008823529817163944)
(X_712  0.008823529817163944)
(X_713  0.004901961423456669)
(X_714  0.0009803927969187498)
(X_715  -0.0029411755967885256)
(X_716  0.02450980618596077)
(X_717  0.01666666939854622)
(X_718  0.012745101936161518)
(X_719  0.008823529817163944)
(X_720  0.004901961423456669)
(X_721  0.0009803927969187498)
(X_722  -0.006862743757665157)
(X_723  -0.010784312151372433)
(X_724  0.0009803927969187498)
(X_725  0.008823529817163944)
(X_726  0.012745101936161518)
(X_727  0.008823529817163944)
(X_728  -0.006862743757665157)
(X_729  0.09313725680112839)
(X_730  -0.006862743757665157)
(X_731  0.09313725680112839)
(X_732  0.09313725680112839)
(X_733  0.09313725680112839)
(X_734  0.09313725680112839)
(X_735  0.09313725680112839)
(X_736  -0.030392156913876534)
(X_737  -0.030392156913876534)
(X_738  -0.026470588520169258)
(X_739  -0.022549020126461983)
(X_740  -0.018627449870109558)
(X_741  -0.014705880545079708)
(X_742  -0.010784312151372433)
(X_743  -0.006862743757665157)
(X_744  -0.03431372344493866)
(X_745  -0.030392156913876534)
(X_746  -0.026470588520169258)
(X_747  -0.018627449870109558)
(X_748  -0.014705880545079708)
(X_749  0.09313725680112839)
(X_750  0.09705882519483566)
(X_751  0.10098039358854294)
(X_752  0.06960784643888474)
(X_753  0.08137255162000656)
(X_754  0.09705882519483566)
(X_755  0.10490196198225021)
(X_756  -0.006862743757665157)
(X_757  -0.006862743757665157)
(X_758  -0.006862743757665157)
(X_759  -0.006862743757665157)
(X_760  0.09313725680112839)
(X_761  0.09313725680112839)
(X_762  0.09313725680112839)
(X_763  0.09313725680112839)
(X_764  0.15980392694473267)
(X_765  0.1715686321258545)
(X_766  0.19117647409439087)
(X_767  0.21078431606292725)
(X_768  0.23039215803146362)
(X_769  0.25)
(X_770  0.2656862735748291)
(X_771  0.2813725471496582)
(X_772  0.24411766231060028)
(X_773  0.2598039209842682)
(X_774  0.2872548997402191)
(X_775  0.3186274468898773)
(X_776  0.3499999940395355)
(X_777  0.3813725411891937)
(X_778  0.40882351994514465)
(X_779  0.42450979351997375)
(X_780  0.5911765098571777)
(X_781  0.5147058963775635)
(X_782  0.5460784435272217)
(X_783  0.5696078538894653)
(Y_0 19.52960205078125)
(Y_1 13.702640533447266)
(Y_2 1.5868748426437378)
(Y_3 -35.126243591308594))