((X_0  1.034313678741455)
(X_1  0.9303921461105347)
(X_2  0.9343137145042419)
(X_3  1.0499999523162842)
(X_4  1.0499999523162842)
(X_5  1.0499999523162842)
(X_6  0.949999988079071)
(X_7  0.9264705777168274)
(X_8  1.0151315927505493)
(X_9  1.0151315927505493)
(X_10  1.0151315927505493)
(X_11  0.9225490093231201)
(X_12  0.9029411673545837)
(X_13  0.979411780834198)
(X_14  0.9205882549285889)
(X_15  0.8578431606292725)
(X_16  0.6754902005195618)
(X_17  0.6088235378265381)
(X_18  0.4950980544090271)
(X_19  0.3696078360080719)
(X_20  0.3598039448261261)
(X_21  0.2852941155433655)
(X_22  0.24215686321258545)
(X_23  0.12254902720451355)
(X_24  0.20686274766921997)
(X_25  0.20686274766921997)
(X_26  0.14565271139144897)
(X_27  0.21078431606292725)
(X_28  1.0499999523162842)
(X_29  1.0499999523162842)
(X_30  0.9264705777168274)
(X_31  0.9990196228027344)
(X_32  0.8794117569923401)
(X_33  0.8519607782363892)
(X_34  0.8127450942993164)
(X_35  0.8852941393852234)
(X_36  0.6245098114013672)
(X_37  0.5892156958580017)
(X_38  0.5107843279838562)
(X_39  0.4166666567325592)
(X_40  0.34607842564582825)
(X_41  0.387254923582077)
(X_42  0.32058826088905334)
(X_43  0.15784314274787903)
(X_44  0.27352941036224365)
(X_45  0.25)
(X_46  0.11862745881080627)
(X_47  0.09117648005485535)
(X_48  0.0833333432674408)
(X_49  0.08725491166114807)
(X_50  0.10294118523597717)
(X_51  0.114705890417099)
(X_52  0.22254902124404907)
(X_53  0.22254902124404907)
(X_54  0.1574174165725708)
(X_55  0.22647058963775635)
(X_56  0.6009804010391235)
(X_57  0.5460784435272217)
(X_58  0.4637255072593689)
(X_59  0.37745097279548645)
(X_60  0.3029411733150482)
(X_61  0.23235295712947845)
(X_62  0.16960784792900085)
(X_63  0.1303921639919281)
(X_64  0.14215686917304993)
(X_65  0.1303921639919281)
(X_66  0.10686275362968445)
(X_67  0.09117648005485535)
(X_68  0.16807278990745544)
(X_69  0.12254902720451355)
(X_70  0.12647059559822083)
(X_71  0.11078432202339172)
(X_72  0.11862745881080627)
(X_73  0.114705890417099)
(X_74  0.11078432202339172)
(X_75  0.10686275362968445)
(X_76  0.20686274766921997)
(X_77  0.21078431606292725)
(X_78  0.2186274528503418)
(X_79  0.22647058963775635)
(X_80  0.21078431606292725)
(X_81  0.21078431606292725)
(X_82  0.17591592669487)
(X_83  0.21078431606292725)
(X_84  0.19901961088180542)
(X_85  0.1872549057006836)
(X_86  0.17941176891326904)
(X_87  0.1872549057006836)
(X_88  0.17199435830116272)
(X_89  0.12647059559822083)
(X_90  0.13823530077934265)
(X_91  0.14215686917304993)
(X_92  0.19509804248809814)
(X_93  0.09509804844856262)
(X_94  0.0990196168422699)
(X_95  0.10294118523597717)
(X_96  0.21470588445663452)
(X_97  0.22647058963775635)
(X_98  0.2186274528503418)
(X_99  0.20686274766921997)
(X_100  0.2186274528503418)
(X_101  0.2186274528503418)
(X_102  0.22647058963775635)
(X_103  0.12647059559822083)
(X_104  0.12647059559822083)
(X_105  0.11862745881080627)
(X_106  0.11078432202339172)
(X_107  0.10294118523597717)
(X_108  0.09117648005485535)
(X_109  0.09117648005485535)
(X_110  0.09509804844856262)
(X_111  0.19509804248809814)
(X_112  0.11078432202339172)
(X_113  0.2029411792755127)
(X_114  0.09509804844856262)
(X_115  0.09117648005485535)
(X_116  0.09117648005485535)
(X_117  0.09117648005485535)
(X_118  0.0833333432674408)
(X_119  0.07941177487373352)
(X_120  0.15000000596046448)
(X_121  0.13823530077934265)
(X_122  0.1303921639919281)
(X_123  0.1574174165725708)
(X_124  0.21078431606292725)
(X_125  0.19117647409439087)
(X_126  0.1715686321258545)
(X_127  0.15980392694473267)
(X_128  0.17549020051956177)
(X_129  0.18333333730697632)
(X_130  0.19509804248809814)
(X_131  0.2029411792755127)
(X_132  0.20686274766921997)
(X_133  0.19901961088180542)
(X_134  0.1260448694229126)
(X_135  0.18333333730697632)
(X_136  0.19509804248809814)
(X_137  0.09509804844856262)
(X_138  0.19509804248809814)
(X_139  0.19901961088180542)
(X_140  0.21470588445663452)
(X_141  0.21470588445663452)
(X_142  0.2186274528503418)
(X_143  0.22254902124404907)
(X_144  0.12254902720451355)
(X_145  0.114705890417099)
(X_146  0.10686275362968445)
(X_147  0.2029411792755127)
(X_148  0.17941176891326904)
(X_149  0.16764706373214722)
(X_150  0.0676470622420311)
(X_151  0.0833333432674408)
(X_152  0.19117647409439087)
(X_153  0.19509804248809814)
(X_154  0.21078431606292725)
(X_155  0.1303921639919281)
(X_156  0.10686275362968445)
(X_157  0.11078432202339172)
(X_158  0.21470588445663452)
(X_159  0.2186274528503418)
(X_160  0.21470588445663452)
(X_161  0.114705890417099)
(X_162  0.10686275362968445)
(X_163  0.2029411792755127)
(X_164  0.19509804248809814)
(X_165  0.09509804844856262)
(X_166  0.09509804844856262)
(X_167  0.19509804248809814)
(X_168  0.1872549057006836)
(X_169  0.19117647409439087)
(X_170  0.19509804248809814)
(X_171  0.19509804248809814)
(X_172  0.1872549057006836)
(X_173  0.18333333730697632)
(X_174  0.07941177487373352)
(X_175  0.07549020648002625)
(X_176  0.23823529481887817)
(X_177  0.22647058963775635)
(X_178  0.1303921639919281)
(X_179  0.13823530077934265)
(X_180  0.23039215803146362)
(X_181  0.16807278990745544)
(X_182  0.19509804248809814)
(X_183  0.10686275362968445)
(X_184  0.19901961088180542)
(X_185  0.19509804248809814)
(X_186  0.19117647409439087)
(X_187  0.19117647409439087)
(X_188  0.19509804248809814)
(X_189  0.13780957460403442)
(X_190  0.21078431606292725)
(X_191  0.2186274528503418)
(X_192  0.2029411792755127)
(X_193  0.2029411792755127)
(X_194  0.10294118523597717)
(X_195  0.10686275362968445)
(X_196  0.10686275362968445)
(X_197  0.21078431606292725)
(X_198  0.21470588445663452)
(X_199  0.114705890417099)
(X_200  0.114705890417099)
(X_201  0.2186274528503418)
(X_202  0.22647058963775635)
(X_203  0.23039215803146362)
(X_204  0.1303921639919281)
(X_205  0.15000000596046448)
(X_206  0.2088235467672348)
(X_207  0.2754901945590973)
(X_208  0.3029411733150482)
(X_209  0.2911764681339264)
(X_210  0.2872548997402191)
(X_211  0.39901962876319885)
(X_212  0.4068627655506134)
(X_213  0.3794117867946625)
(X_214  0.240196093916893)
(X_215  0.2582688629627228)
(X_216  0.2539215683937073)
(X_217  0.23039215803146362)
(X_218  0.2186274528503418)
(X_219  0.21078431606292725)
(X_220  0.2343137264251709)
(X_221  0.13431373238563538)
(X_222  0.13431373238563538)
(X_223  0.2343137264251709)
(X_224  0.11078432202339172)
(X_225  0.0833333432674408)
(X_226  0.2186274528503418)
(X_227  0.23823529481887817)
(X_228  0.23039215803146362)
(X_229  0.24803923070430756)
(X_230  0.385294109582901)
(X_231  0.40882351994514465)
(X_232  0.5362744927406311)
(X_233  0.5009803771972656)
(X_234  0.5009803771972656)
(X_235  0.4362744987010956)
(X_236  0.44019606709480286)
(X_237  0.4049019515514374)
(X_238  0.4661119878292084)
(X_239  0.42843136191368103)
(X_240  0.44411763548851013)
(X_241  0.5245097875595093)
(X_242  0.5088235139846802)
(X_243  0.4892157018184662)
(X_244  0.43039217591285706)
(X_245  0.33627453446388245)
(X_246  0.25)
(X_247  0.11078432202339172)
(X_248  0.11078432202339172)
(X_249  0.0990196168422699)
(X_250  0.10294118523597717)
(X_251  0.21470588445663452)
(X_252  0.0990196168422699)
(X_253  0.14215686917304993)
(X_254  0.26372548937797546)
(X_255  0.34215685725212097)
(X_256  0.4539215862751007)
(X_257  0.5088235139846802)
(X_258  0.5637255311012268)
(X_259  0.5362744927406311)
(X_260  0.4833333492279053)
(X_261  0.5127450823783875)
(X_262  0.46176472306251526)
(X_263  0.4425825774669647)
(X_264  0.4205882251262665)
(X_265  0.42843136191368103)
(X_266  0.47003355622291565)
(X_267  0.3813725411891937)
(X_268  0.3382352888584137)
(X_269  0.45000001788139343)
(X_270  0.4696078598499298)
(X_271  0.37745097279548645)
(X_272  0.3696078360080719)
(X_273  0.36918213963508606)
(X_274  0.3911764919757843)
(X_275  0.2558823525905609)
(X_276  0.1303921639919281)
(X_277  0.10294118523597717)
(X_278  0.09509804844856262)
(X_279  0.10294118523597717)
(X_280  0.4696078598499298)
(X_281  0.49313727021217346)
(X_282  0.45588237047195435)
(X_283  0.4637255072593689)
(X_284  0.41274508833885193)
(X_285  0.49705883860588074)
(X_286  0.4892157018184662)
(X_287  0.44607844948768616)
(X_288  0.36176469922065735)
(X_289  0.3186274468898773)
(X_290  0.26372548937797546)
(X_291  0.2711429297924042)
(X_292  0.2598039209842682)
(X_293  0.2911764681339264)
(X_294  0.2872548997402191)
(X_295  0.2598039209842682)
(X_296  0.3950980603694916)
(X_297  0.3068627417087555)
(X_298  0.29509803652763367)
(X_299  0.27156862616539)
(X_300  0.3794117867946625)
(X_301  0.41470590233802795)
(X_302  0.4225490391254425)
(X_303  0.3029411733150482)
(X_304  0.2985939085483551)
(X_305  0.33235296607017517)
(X_306  0.2088235467672348)
(X_307  0.24369195103645325)
(X_308  0.5990196466445923)
(X_309  0.4911764860153198)
(X_310  0.4637255072593689)
(X_311  0.39313724637031555)
(X_312  0.3225490152835846)
(X_313  0.3338880240917206)
(X_314  0.3068627417087555)
(X_315  0.29509803652763367)
(X_316  0.33627453446388245)
(X_317  0.39901962876319885)
(X_318  0.4107843339443207)
(X_319  0.3598039448261261)
(X_320  0.23627452552318573)
(X_321  0.28333333134651184)
(X_322  0.3382352888584137)
(X_323  0.36176469922065735)
(X_324  0.42450979351997375)
(X_325  0.4362744987010956)
(X_326  0.3970588147640228)
(X_327  0.4225490391254425)
(X_328  0.3950980603694916)
(X_329  0.41470590233802795)
(X_330  0.40294119715690613)
(X_331  0.3558823764324188)
(X_332  0.28333333134651184)
(X_333  0.2558823525905609)
(X_334  0.23627452552318573)
(X_335  0.23627452552318573)
(X_336  0.385294109582901)
(X_337  0.49705883860588074)
(X_338  0.46568629145622253)
(X_339  0.40294119715690613)
(X_340  0.36764708161354065)
(X_341  0.3598039448261261)
(X_342  0.3637255132198334)
(X_343  0.28333333134651184)
(X_344  0.32058826088905334)
(X_345  0.43039217591285706)
(X_346  0.39313724637031555)
(X_347  0.3578431308269501)
(X_348  0.3343137204647064)
(X_349  0.39313724637031555)
(X_350  0.4754902124404907)
(X_351  0.583759069442749)
(X_352  0.6970588564872742)
(X_353  0.7166666984558105)
(X_354  0.6892157196998596)
(X_355  0.6107843518257141)
(X_356  0.5598039627075195)
(X_357  0.5323529243469238)
(X_358  0.4696078598499298)
(X_359  0.3950980603694916)
(X_360  0.35196080803871155)
(X_361  0.3245098292827606)
(X_362  0.1931372582912445)
(X_363  0.21624094247817993)
(X_364  0.2754901945590973)
(X_365  0.31470587849617004)
(X_366  0.32604488730430603)
(X_367  0.3598039448261261)
(X_368  0.387254923582077)
(X_369  0.41862747073173523)
(X_370  0.3539215624332428)
(X_371  0.41274508833885193)
(X_372  0.5186274647712708)
(X_373  0.5696078538894653)
(X_374  0.6892157196998596)
(X_375  0.5578431487083435)
(X_376  0.5539215803146362)
(X_377  0.6049019694328308)
(X_378  0.6441176533699036)
(X_379  0.6519607901573181)
(X_380  0.6774510145187378)
(X_381  0.6617647409439087)
(X_382  0.6029412150382996)
(X_383  0.5323529243469238)
(X_384  0.4009803831577301)
(X_385  0.40882351994514465)
(X_386  0.43977034091949463)
(X_387  0.47745099663734436)
(X_388  0.41470590233802795)
(X_389  0.38333335518836975)
(X_390  0.2245098203420639)
(X_391  0.1774509847164154)
(X_392  0.3754902184009552)
(X_393  0.4421568810939789)
(X_394  0.3343137204647064)
(X_395  0.32647058367729187)
(X_396  0.49705883860588074)
(X_397  0.5558823943138123)
(X_398  0.6068627834320068)
(X_399  0.6892157196998596)
(X_400  0.5696078538894653)
(X_401  0.6539216041564941)
(X_402  0.6068627834320068)
(X_403  0.5558823943138123)
(X_404  0.44411763548851013)
(X_405  0.4754902124404907)
(X_406  0.4950980544090271)
(X_407  0.4950980544090271)
(X_408  0.49705883860588074)
(X_409  0.4421568810939789)
(X_410  0.3637255132198334)
(X_411  0.3127451241016388)
(X_412  0.3127451241016388)
(X_413  0.2558823525905609)
(X_414  0.31470587849617004)
(X_415  0.4539215862751007)
(X_416  0.3225490152835846)
(X_417  0.4107843339443207)
(X_418  0.27156862616539)
(X_419  0.22058825194835663)
(X_420  0.4789860248565674)
(X_421  0.5264706015586853)
(X_422  0.522549033164978)
(X_423  0.4950980544090271)
(X_424  0.522549033164978)
(X_425  0.4950980544090271)
(X_426  0.5598039627075195)
(X_427  0.595098078250885)
(X_428  0.5362744927406311)
(X_429  0.43977034091949463)
(X_430  0.34607842564582825)
(X_431  0.28333333134651184)
(X_432  0.2558823525905609)
(X_433  0.28333333134651184)
(X_434  0.3343137204647064)
(X_435  0.3735294044017792)
(X_436  0.3480392396450043)
(X_437  0.3088235557079315)
(X_438  0.2774509787559509)
(X_439  0.2774509787559509)
(X_440  0.28921568393707275)
(X_441  0.30098041892051697)
(X_442  0.22843138873577118)
(X_443  0.2598039209842682)
(X_444  0.29901960492134094)
(X_445  0.33039215207099915)
(X_446  0.34215685725212097)
(X_447  0.3994453251361847)
(X_448  0.6500000357627869)
(X_449  0.5539215803146362)
(X_450  0.4990196228027344)
(X_451  0.4974845349788666)
(X_452  0.3970588147640228)
(X_453  0.34215685725212097)
(X_454  0.4107843339443207)
(X_455  0.4264706075191498)
(X_456  0.40294119715690613)
(X_457  0.3598039448261261)
(X_458  0.3127451241016388)
(X_459  0.19705882668495178)
(X_460  0.21666668355464935)
(X_461  0.25196078419685364)
(X_462  0.27941176295280457)
(X_463  0.2911764681339264)
(X_464  0.1931372582912445)
(X_465  0.1460784375667572)
(X_466  0.22254902124404907)
(X_467  0.2343137264251709)
(X_468  0.23039215803146362)
(X_469  0.2186274528503418)
(X_470  0.23823529481887817)
(X_471  0.2852941155433655)
(X_472  0.29313725233078003)
(X_473  0.28921568393707275)
(X_474  0.3245098292827606)
(X_475  0.3911764919757843)
(X_476  0.39313724637031555)
(X_477  0.4009803831577301)
(X_478  0.457843154668808)
(X_479  0.4068627655506134)
(X_480  0.2911764681339264)
(X_481  0.26372548937797546)
(X_482  0.24411766231060028)
(X_483  0.3754902184009552)
(X_484  0.3284313976764679)
(X_485  0.29313725233078003)
(X_486  0.15392157435417175)
(X_487  0.13823530077934265)
(X_488  0.15392157435417175)
(X_489  0.18137255311012268)
(X_490  0.20490197837352753)
(X_491  0.21274511516094208)
(X_492  0.15392157435417175)
(X_493  0.11078432202339172)
(X_494  0.19117647409439087)
(X_495  0.2029411792755127)
(X_496  0.2029411792755127)
(X_497  0.1872549057006836)
(X_498  0.10294118523597717)
(X_499  0.14215686917304993)
(X_500  0.2813725471496582)
(X_501  0.16960784792900085)
(X_502  0.19705882668495178)
(X_503  0.25196078419685364)
(X_504  0.3343137204647064)
(X_505  0.3382352888584137)
(X_506  0.2872548997402191)
(X_507  0.23627452552318573)
(X_508  0.2245098203420639)
(X_509  0.2970588207244873)
(X_510  0.2813725471496582)
(X_511  0.3088235557079315)
(X_512  0.17352941632270813)
(X_513  0.24607843160629272)
(X_514  0.21470588445663452)
(X_515  0.10294118523597717)
(X_516  0.11078432202339172)
(X_517  0.1303921639919281)
(X_518  0.14215686917304993)
(X_519  0.1460784375667572)
(X_520  0.12254902720451355)
(X_521  0.09509804844856262)
(X_522  0.07941177487373352)
(X_523  0.09117648005485535)
(X_524  0.09117648005485535)
(X_525  0.17549020051956177)
(X_526  0.1872549057006836)
(X_527  0.21470588445663452)
(X_528  0.15392157435417175)
(X_529  0.14215686917304993)
(X_530  0.15392157435417175)
(X_531  0.18921568989753723)
(X_532  0.4068627655506134)
(X_533  0.40294119715690613)
(X_534  0.344117671251297)
(X_535  0.28921568393707275)
(X_536  0.2774509787559509)
(X_537  0.15392157435417175)
(X_538  0.13823530077934265)
(X_539  0.16568627953529358)
(X_540  0.14215686917304993)
(X_541  0.22647058963775635)
(X_542  0.2029411792755127)
(X_543  0.09509804844856262)
(X_544  0.0990196168422699)
(X_545  0.10686275362968445)
(X_546  0.11078432202339172)
(X_547  0.11078432202339172)
(X_548  0.2029411792755127)
(X_549  0.14846494793891907)
(X_550  0.07549020648002625)
(X_551  0.08725491166114807)
(X_552  0.18333333730697632)
(X_553  0.1715686321258545)
(X_554  0.17549020051956177)
(X_555  0.09117648005485535)
(X_556  0.2186274528503418)
(X_557  0.10686275362968445)
(X_558  0.20686274766921997)
(X_559  0.22647058963775635)
(X_560  0.2813725471496582)
(X_561  0.1774509847164154)
(X_562  0.1303921639919281)
(X_563  0.0990196168422699)
(X_564  0.11078432202339172)
(X_565  0.20686274766921997)
(X_566  0.10294118523597717)
(X_567  0.1303921639919281)
(X_568  0.21078431606292725)
(X_569  0.2029411792755127)
(X_570  0.1872549057006836)
(X_571  0.07941177487373352)
(X_572  0.07941177487373352)
(X_573  0.0833333432674408)
(X_574  0.0833333432674408)
(X_575  0.0833333432674408)
(X_576  0.07156863063573837)
(X_577  0.06372549384832382)
(X_578  0.06372549384832382)
(X_579  0.16764706373214722)
(X_580  0.16764706373214722)
(X_581  0.15980392694473267)
(X_582  0.1558823585510254)
(X_583  0.16372549533843994)
(X_584  0.18333333730697632)
(X_585  0.07549020648002625)
(X_586  0.07156863063573837)
(X_587  0.07941177487373352)
(X_588  0.21078431606292725)
(X_589  0.114705890417099)
(X_590  0.07156863063573837)
(X_591  0.04803921654820442)
(X_592  0.07549020648002625)
(X_593  0.07549020648002625)
(X_594  0.1715686321258545)
(X_595  0.19901961088180542)
(X_596  0.19509804248809814)
(X_597  0.19117647409439087)
(X_598  0.0833333432674408)
(X_599  0.07549020648002625)
(X_600  0.07156863063573837)
(X_601  0.07156863063573837)
(X_602  0.07549020648002625)
(X_603  0.07549020648002625)
(X_604  0.16764706373214722)
(X_605  0.16764706373214722)
(X_606  0.16764706373214722)
(X_607  0.16764706373214722)
(X_608  0.16372549533843994)
(X_609  0.15980392694473267)
(X_610  0.15980392694473267)
(X_611  0.15980392694473267)
(X_612  0.05980392172932625)
(X_613  0.05588235333561897)
(X_614  0.0519607849419117)
(X_615  0.15196079015731812)
(X_616  0.22254902124404907)
(X_617  0.22254902124404907)
(X_618  0.07941177487373352)
(X_619  0.05588235333561897)
(X_620  0.07941177487373352)
(X_621  0.17549020051956177)
(X_622  0.05980392172932625)
(X_623  0.17941176891326904)
(X_624  0.1872549057006836)
(X_625  0.18333333730697632)
(X_626  0.17941176891326904)
(X_627  0.07156863063573837)
(X_628  0.0676470622420311)
(X_629  0.0676470622420311)
(X_630  0.07156863063573837)
(X_631  0.07941177487373352)
(X_632  0.16764706373214722)
(X_633  0.0676470622420311)
(X_634  0.06372549384832382)
(X_635  0.05980392172932625)
(X_636  0.05980392172932625)
(X_637  0.15980392694473267)
(X_638  0.15980392694473267)
(X_639  0.12493552267551422)
(X_640  0.04411764815449715)
(X_641  0.04803921654820442)
(X_642  0.14411765336990356)
(X_643  0.1401960849761963)
(X_644  0.15630808472633362)
(X_645  0.09509804844856262)
(X_646  0.15980392694473267)
(X_647  0.14803922176361084)
(X_648  0.17549020051956177)
(X_649  0.17941176891326904)
(X_650  0.16372549533843994)
(X_651  0.17941176891326904)
(X_652  0.16372549533843994)
(X_653  0.06372549384832382)
(X_654  0.05980392172932625)
(X_655  0.0519607849419117)
(X_656  0.04411764815449715)
(X_657  0.04803921654820442)
(X_658  0.05588235333561897)
(X_659  0.06372549384832382)
(X_660  0.14411765336990356)
(X_661  0.14803922176361084)
(X_662  0.14411765336990356)
(X_663  0.13235294818878174)
(X_664  0.03235294297337532)
(X_665  0.136274516582489)
(X_666  0.1401960849761963)
(X_667  0.036274511367082596)
(X_668  0.04411764815449715)
(X_669  0.04803921654820442)
(X_670  0.14411765336990356)
(X_671  0.036274511367082596)
(X_672  0.16764706373214722)
(X_673  0.05980392172932625)
(X_674  0.0519607849419117)
(X_675  0.04411764815449715)
(X_676  0.04019607976078987)
(X_677  0.1401960849761963)
(X_678  0.1401960849761963)
(X_679  0.14411765336990356)
(X_680  0.04019607976078987)
(X_681  0.136274516582489)
(X_682  0.10140611231327057)
(X_683  0.13235294818878174)
(X_684  0.13235294818878174)
(X_685  0.036274511367082596)
(X_686  0.036274511367082596)
(X_687  0.04019607976078987)
(X_688  0.12843137979507446)
(X_689  0.13235294818878174)
(X_690  0.04019607976078987)
(X_691  0.04411764815449715)
(X_692  0.14411765336990356)
(X_693  0.1401960849761963)
(X_694  0.03235294297337532)
(X_695  0.12843137979507446)
(X_696  0.10490196198225021)
(X_697  0.12450980395078659)
(X_698  0.14411765336990356)
(X_699  0.15196079015731812)
(X_700  0.1558823585510254)
(X_701  0.04803921654820442)
(X_702  0.04411764815449715)
(X_703  0.136274516582489)
(X_704  0.03235294297337532)
(X_705  0.03235294297337532)
(X_706  0.036274511367082596)
(X_707  0.04019607976078987)
(X_708  0.04019607976078987)
(X_709  0.036274511367082596)
(X_710  0.036274511367082596)
(X_711  0.03235294297337532)
(X_712  0.13235294818878174)
(X_713  0.036274511367082596)
(X_714  0.036274511367082596)
(X_715  0.04019607976078987)
(X_716  0.136274516582489)
(X_717  0.07114291936159134)
(X_718  0.036274511367082596)
(X_719  0.036274511367082596)
(X_720  0.036274511367082596)
(X_721  0.036274511367082596)
(X_722  0.036274511367082596)
(X_723  0.136274516582489)
(X_724  0.15980392694473267)
(X_725  0.16372549533843994)
(X_726  0.15980392694473267)
(X_727  0.14803922176361084)
(X_728  0.1401960849761963)
(X_729  0.036274511367082596)
(X_730  0.12843137979507446)
(X_731  0.12450980395078659)
(X_732  0.12450980395078659)
(X_733  0.12843137979507446)
(X_734  0.13235294818878174)
(X_735  0.136274516582489)
(X_736  0.1401960849761963)
(X_737  0.136274516582489)
(X_738  0.036274511367082596)
(X_739  0.03235294297337532)
(X_740  0.03235294297337532)
(X_741  0.036274511367082596)
(X_742  0.036274511367082596)
(X_743  0.04019607976078987)
(X_744  0.04019607976078987)
(X_745  0.04019607976078987)
(X_746  0.03235294297337532)
(X_747  0.03235294297337532)
(X_748  0.03235294297337532)
(X_749  0.13235294818878174)
(X_750  0.04019607976078987)
(X_751  0.04019607976078987)
(X_752  0.07745098322629929)
(X_753  0.09705882519483566)
(X_754  0.12058823555707932)
(X_755  0.12843137979507446)
(X_756  0.13235294818878174)
(X_757  0.028431374579668045)
(X_758  0.02450980618596077)
(X_759  0.12058823555707932)
(X_760  0.02450980618596077)
(X_761  0.09356297552585602)
(X_762  0.10140611231327057)
(X_763  0.10532768070697784)
(X_764  0.04019607976078987)
(X_765  0.036274511367082596)
(X_766  0.036274511367082596)
(X_767  0.03235294297337532)
(X_768  0.03235294297337532)
(X_769  0.036274511367082596)
(X_770  0.036274511367082596)
(X_771  0.04019607976078987)
(X_772  0.04803921654820442)
(X_773  0.04019607976078987)
(X_774  0.03235294297337532)
(X_775  0.02450980618596077)
(X_776  0.02450980618596077)
(X_777  0.13235294818878174)
(X_778  0.04019607976078987)
(X_779  0.04803921654820442)
(X_780  0.18529412150382996)
(X_781  0.25196078419685364)
(X_782  0.34215685725212097)
(X_783  0.5049019455909729)
(Y_0 -26.04922866821289)
(Y_1 27.82769012451172)
(Y_2 -25.334135055541992)
(Y_3 26.40851402282715))