((X_0  1.0499999523162842)
(X_1  0.949999988079071)
(X_2  0.949999988079071)
(X_3  0.9460784196853638)
(X_4  0.9969492554664612)
(X_5  0.9460784196853638)
(X_6  0.949999988079071)
(X_7  0.949999988079071)
(X_8  1.0303921699523926)
(X_9  1.034313678741455)
(X_10  1.0382353067398071)
(X_11  1.0421568155288696)
(X_12  0.9912859797477722)
(X_13  1.0499999523162842)
(X_14  1.0499999523162842)
(X_15  1.004792332649231)
(X_16  0.9460784196853638)
(X_17  0.9460784196853638)
(X_18  0.9460784196853638)
(X_19  0.9460784196853638)
(X_20  1.0460784435272217)
(X_21  1.0460784435272217)
(X_22  1.0460784435272217)
(X_23  1.0460784435272217)
(X_24  1.0499999523162842)
(X_25  1.0499999523162842)
(X_26  0.949999988079071)
(X_27  1.0460784435272217)
(X_28  1.0499999523162842)
(X_29  0.949999988079071)
(X_30  0.949999988079071)
(X_31  0.949999988079071)
(X_32  0.949999988079071)
(X_33  0.949999988079071)
(X_34  1.004792332649231)
(X_35  1.0499999523162842)
(X_36  1.0499999523162842)
(X_37  0.949999988079071)
(X_38  0.949999988079071)
(X_39  0.949999988079071)
(X_40  0.949999988079071)
(X_41  0.949999988079071)
(X_42  1.0499999523162842)
(X_43  0.949999988079071)
(X_44  1.0499999523162842)
(X_45  0.9952075481414795)
(X_46  0.949999988079071)
(X_47  0.949999988079071)
(X_48  0.949999988079071)
(X_49  0.949999988079071)
(X_50  0.949999988079071)
(X_51  0.949999988079071)
(X_52  1.0460784435272217)
(X_53  1.0421568155288696)
(X_54  0.9421568512916565)
(X_55  1.0382353067398071)
(X_56  1.0382353067398071)
(X_57  0.9421568512916565)
(X_58  0.9460784196853638)
(X_59  0.949999988079071)
(X_60  0.949999988079071)
(X_61  0.949999988079071)
(X_62  0.949999988079071)
(X_63  0.949999988079071)
(X_64  0.949999988079071)
(X_65  0.949999988079071)
(X_66  0.9952075481414795)
(X_67  1.0499999523162842)
(X_68  0.9952075481414795)
(X_69  0.949999988079071)
(X_70  0.9460784196853638)
(X_71  1.0460784435272217)
(X_72  0.9421568512916565)
(X_73  0.9421568512916565)
(X_74  0.9421568512916565)
(X_75  0.9421568512916565)
(X_76  1.0421568155288696)
(X_77  1.0460784435272217)
(X_78  1.0460784435272217)
(X_79  1.0460784435272217)
(X_80  1.0460784435272217)
(X_81  1.0499999523162842)
(X_82  0.949999988079071)
(X_83  1.0499999523162842)
(X_84  1.0421568155288696)
(X_85  1.0460784435272217)
(X_86  1.0499999523162842)
(X_87  1.0499999523162842)
(X_88  0.949999988079071)
(X_89  0.949999988079071)
(X_90  0.949999988079071)
(X_91  0.9460784196853638)
(X_92  0.9460784196853638)
(X_93  0.9460784196853638)
(X_94  0.9460784196853638)
(X_95  1.0460784435272217)
(X_96  1.0460784435272217)
(X_97  1.0008708238601685)
(X_98  1.0008708238601685)
(X_99  1.0460784435272217)
(X_100  1.0499999523162842)
(X_101  1.0499999523162842)
(X_102  1.0499999523162842)
(X_103  0.949999988079071)
(X_104  0.949999988079071)
(X_105  0.949999988079071)
(X_106  0.949999988079071)
(X_107  0.949999988079071)
(X_108  0.9421568512916565)
(X_109  0.9460784196853638)
(X_110  0.949999988079071)
(X_111  1.0499999523162842)
(X_112  0.820588231086731)
(X_113  0.9245098233222961)
(X_114  0.8245097994804382)
(X_115  0.8245097994804382)
(X_116  0.820588231086731)
(X_117  0.8127450942993164)
(X_118  0.8049019575119019)
(X_119  0.8009803891181946)
(X_120  0.8596944212913513)
(X_121  0.8049019575119019)
(X_122  0.8088235259056091)
(X_123  0.8675375580787659)
(X_124  0.8166666626930237)
(X_125  0.820588231086731)
(X_126  0.820588231086731)
(X_127  0.8245097994804382)
(X_128  0.936274528503418)
(X_129  0.936274528503418)
(X_130  0.936274528503418)
(X_131  0.9401960968971252)
(X_132  0.9401960968971252)
(X_133  0.9441176652908325)
(X_134  0.8441176414489746)
(X_135  0.9441176652908325)
(X_136  0.9676470756530762)
(X_137  0.8715686202049255)
(X_138  0.8833333253860474)
(X_139  0.9911764860153198)
(X_140  0.2970588207244873)
(X_141  0.2970588207244873)
(X_142  0.1931372582912445)
(X_143  0.18921568989753723)
(X_144  0.18137255311012268)
(X_145  0.17352941632270813)
(X_146  0.16960784792900085)
(X_147  0.2656862735748291)
(X_148  0.2774509787559509)
(X_149  0.2774509787559509)
(X_150  0.18137255311012268)
(X_151  0.18529412150382996)
(X_152  0.29313725233078003)
(X_153  0.2970588207244873)
(X_154  0.30098041892051697)
(X_155  0.30098041892051697)
(X_156  0.3127451241016388)
(X_157  0.3127451241016388)
(X_158  0.31666669249534607)
(X_159  0.32058826088905334)
(X_160  0.32058826088905334)
(X_161  0.2245098203420639)
(X_162  0.2245098203420639)
(X_163  0.2736389636993408)
(X_164  0.35196080803871155)
(X_165  0.2558823525905609)
(X_166  0.26372548937797546)
(X_167  0.36764708161354065)
(X_168  0.22254902124404907)
(X_169  0.2186274528503418)
(X_170  0.21470588445663452)
(X_171  0.21078431606292725)
(X_172  0.2029411792755127)
(X_173  0.2029411792755127)
(X_174  0.2029411792755127)
(X_175  0.10294118523597717)
(X_176  0.21078431606292725)
(X_177  0.21078431606292725)
(X_178  0.114705890417099)
(X_179  0.114705890417099)
(X_180  0.11862745881080627)
(X_181  0.12254902720451355)
(X_182  0.12254902720451355)
(X_183  0.12254902720451355)
(X_184  0.22254902124404907)
(X_185  0.22254902124404907)
(X_186  0.22647058963775635)
(X_187  0.23039215803146362)
(X_188  0.2343137264251709)
(X_189  0.23823529481887817)
(X_190  0.13823530077934265)
(X_191  0.24215686321258545)
(X_192  0.19901961088180542)
(X_193  0.19901961088180542)
(X_194  0.09509804844856262)
(X_195  0.09509804844856262)
(X_196  0.11862745881080627)
(X_197  0.21470588445663452)
(X_198  0.11078432202339172)
(X_199  0.10294118523597717)
(X_200  0.10294118523597717)
(X_201  0.10686275362968445)
(X_202  0.11078432202339172)
(X_203  0.114705890417099)
(X_204  0.114705890417099)
(X_205  0.11078432202339172)
(X_206  0.21078431606292725)
(X_207  0.21078431606292725)
(X_208  0.11078432202339172)
(X_209  0.10686275362968445)
(X_210  0.10686275362968445)
(X_211  0.10686275362968445)
(X_212  0.19509804248809814)
(X_213  0.19509804248809814)
(X_214  0.19901961088180542)
(X_215  0.2029411792755127)
(X_216  0.10686275362968445)
(X_217  0.11078432202339172)
(X_218  0.114705890417099)
(X_219  0.21470588445663452)
(X_220  0.21470588445663452)
(X_221  0.21078431606292725)
(X_222  0.2029411792755127)
(X_223  0.19509804248809814)
(X_224  0.07941177487373352)
(X_225  0.09117648005485535)
(X_226  0.20686274766921997)
(X_227  0.21078431606292725)
(X_228  0.2029411792755127)
(X_229  0.09509804844856262)
(X_230  0.08725491166114807)
(X_231  0.08725491166114807)
(X_232  0.1872549057006836)
(X_233  0.14030562341213226)
(X_234  0.10294118523597717)
(X_235  0.10686275362968445)
(X_236  0.11078432202339172)
(X_237  0.10686275362968445)
(X_238  0.09117648005485535)
(X_239  0.07156863063573837)
(X_240  0.10294118523597717)
(X_241  0.20686274766921997)
(X_242  0.21470588445663452)
(X_243  0.21078431606292725)
(X_244  0.2029411792755127)
(X_245  0.19509804248809814)
(X_246  0.19117647409439087)
(X_247  0.09509804844856262)
(X_248  0.10294118523597717)
(X_249  0.0833333432674408)
(X_250  0.07549020648002625)
(X_251  0.19901961088180542)
(X_252  0.07549020648002625)
(X_253  0.0833333432674408)
(X_254  0.08725491166114807)
(X_255  0.08725491166114807)
(X_256  0.18333333730697632)
(X_257  0.17941176891326904)
(X_258  0.1872549057006836)
(X_259  0.09117648005485535)
(X_260  0.10294118523597717)
(X_261  0.10686275362968445)
(X_262  0.10294118523597717)
(X_263  0.0833333432674408)
(X_264  0.07156863063573837)
(X_265  0.07549020648002625)
(X_266  0.1872549057006836)
(X_267  0.19901961088180542)
(X_268  0.1715686321258545)
(X_269  0.17549020051956177)
(X_270  0.18333333730697632)
(X_271  0.1872549057006836)
(X_272  0.18333333730697632)
(X_273  0.18333333730697632)
(X_274  0.19117647409439087)
(X_275  0.09509804844856262)
(X_276  0.09117648005485535)
(X_277  0.07941177487373352)
(X_278  0.08725491166114807)
(X_279  0.114705890417099)
(X_280  0.19509804248809814)
(X_281  0.19509804248809814)
(X_282  0.19509804248809814)
(X_283  0.09117648005485535)
(X_284  0.09117648005485535)
(X_285  0.19509804248809814)
(X_286  0.21078431606292725)
(X_287  0.22647058963775635)
(X_288  0.15000000596046448)
(X_289  0.14215686917304993)
(X_290  0.12647059559822083)
(X_291  0.09509804844856262)
(X_292  0.07156863063573837)
(X_293  0.07549020648002625)
(X_294  0.10686275362968445)
(X_295  0.13431373238563538)
(X_296  0.22254902124404907)
(X_297  0.12254902720451355)
(X_298  0.114705890417099)
(X_299  0.0990196168422699)
(X_300  0.17941176891326904)
(X_301  0.16764706373214722)
(X_302  0.16372549533843994)
(X_303  0.0676470622420311)
(X_304  0.09509804844856262)
(X_305  0.0833333432674408)
(X_306  0.0833333432674408)
(X_307  0.09509804844856262)
(X_308  0.1872549057006836)
(X_309  0.21470588445663452)
(X_310  0.25784313678741455)
(X_311  0.2636159658432007)
(X_312  0.26764705777168274)
(X_313  0.33039215207099915)
(X_314  0.3892156779766083)
(X_315  0.4205882251262665)
(X_316  0.5166666507720947)
(X_317  0.47745099663734436)
(X_318  0.41862747073173523)
(X_319  0.3598039448261261)
(X_320  0.1931372582912445)
(X_321  0.13431373238563538)
(X_322  0.10294118523597717)
(X_323  0.0990196168422699)
(X_324  0.05588235333561897)
(X_325  0.06372549384832382)
(X_326  0.0676470622420311)
(X_327  0.1715686321258545)
(X_328  0.17549020051956177)
(X_329  0.1872549057006836)
(X_330  0.2029411792755127)
(X_331  0.21470588445663452)
(X_332  0.11862745881080627)
(X_333  0.09509804844856262)
(X_334  0.07941177487373352)
(X_335  0.07549020648002625)
(X_336  0.4852941334247589)
(X_337  0.49705883860588074)
(X_338  0.5088235139846802)
(X_339  0.4166666567325592)
(X_340  0.520588219165802)
(X_341  0.5284313559532166)
(X_342  0.5401960611343384)
(X_343  0.4480392038822174)
(X_344  0.6107843518257141)
(X_345  0.5598039627075195)
(X_346  0.520588219165802)
(X_347  0.4166666567325592)
(X_348  0.4009803831577301)
(X_349  0.3499999940395355)
(X_350  0.29509803652763367)
(X_351  0.26372548937797546)
(X_352  0.24215686321258545)
(X_353  0.23823529481887817)
(X_354  0.1303921639919281)
(X_355  0.11078432202339172)
(X_356  0.19117647409439087)
(X_357  0.17549020051956177)
(X_358  0.16764706373214722)
(X_359  0.11677620559930801)
(X_360  0.19901961088180542)
(X_361  0.18333333730697632)
(X_362  0.07549020648002625)
(X_363  0.14204733073711395)
(X_364  0.3578431308269501)
(X_365  0.42832183837890625)
(X_366  0.4892157018184662)
(X_367  0.5009803771972656)
(X_368  0.5127450823783875)
(X_369  0.520588219165802)
(X_370  0.4323529303073883)
(X_371  0.44411763548851013)
(X_372  0.36176469922065735)
(X_373  0.3734198808670044)
(X_374  0.41862747073173523)
(X_375  0.49313727021217346)
(X_376  0.4637255072593689)
(X_377  0.4833333492279053)
(X_378  0.47156864404678345)
(X_379  0.4637255072593689)
(X_380  0.40882351994514465)
(X_381  0.49313727021217346)
(X_382  0.457843154668808)
(X_383  0.39901962876319885)
(X_384  0.23235295712947845)
(X_385  0.17352941632270813)
(X_386  0.1303921639919281)
(X_387  0.11078432202339172)
(X_388  0.17941176891326904)
(X_389  0.16372549533843994)
(X_390  0.0676470622420311)
(X_391  0.09117648005485535)
(X_392  0.44607844948768616)
(X_393  0.4421568810939789)
(X_394  0.3343137204647064)
(X_395  0.41862747073173523)
(X_396  0.39901962876319885)
(X_397  0.3911764919757843)
(X_398  0.29509803652763367)
(X_399  0.29901960492134094)
(X_400  0.4166666567325592)
(X_401  0.34215685725212097)
(X_402  0.29509803652763367)
(X_403  0.3186274468898773)
(X_404  0.3578431308269501)
(X_405  0.3656862676143646)
(X_406  0.3696078360080719)
(X_407  0.4852941334247589)
(X_408  0.5166666507720947)
(X_409  0.520588219165802)
(X_410  0.5245097875595093)
(X_411  0.5127450823783875)
(X_412  0.4892157018184662)
(X_413  0.3656862676143646)
(X_414  0.39520758390426636)
(X_415  0.4421568810939789)
(X_416  0.20098040997982025)
(X_417  0.14215686917304993)
(X_418  0.09509804844856262)
(X_419  0.08725491166114807)
(X_420  0.41862747073173523)
(X_421  0.31470587849617004)
(X_422  0.31078431010246277)
(X_423  0.3029411733150482)
(X_424  0.3029411733150482)
(X_425  0.31470587849617004)
(X_426  0.3382352888584137)
(X_427  0.457843154668808)
(X_428  0.5460784435272217)
(X_429  0.44019606709480286)
(X_430  0.34215685725212097)
(X_431  0.3029411733150482)
(X_432  0.2872548997402191)
(X_433  0.3206977844238281)
(X_434  0.29509803652763367)
(X_435  0.3343137204647064)
(X_436  0.40294119715690613)
(X_437  0.4225490391254425)
(X_438  0.4539215862751007)
(X_439  0.47745099663734436)
(X_440  0.4892157018184662)
(X_441  0.39313724637031555)
(X_442  0.3970588147640228)
(X_443  0.4009803831577301)
(X_444  0.39313724637031555)
(X_445  0.28333333134651184)
(X_446  0.15784314274787903)
(X_447  0.19509804248809814)
(X_448  0.3715686500072479)
(X_449  0.37745097279548645)
(X_450  0.4362744987010956)
(X_451  0.3970588147640228)
(X_452  0.46176472306251526)
(X_453  0.4852941334247589)
(X_454  0.5127450823783875)
(X_455  0.5088235139846802)
(X_456  0.6500000357627869)
(X_457  0.6264706254005432)
(X_458  0.5441176295280457)
(X_459  0.4421568810939789)
(X_460  0.3950980603694916)
(X_461  0.3442271947860718)
(X_462  0.28333333134651184)
(X_463  0.24803923070430756)
(X_464  0.26372548937797546)
(X_465  0.29509803652763367)
(X_466  0.3068627417087555)
(X_467  0.2911764681339264)
(X_468  0.3911764919757843)
(X_469  0.4264706075191498)
(X_470  0.4696078598499298)
(X_471  0.4892157018184662)
(X_472  0.48137256503105164)
(X_473  0.47745099663734436)
(X_474  0.46568629145622253)
(X_475  0.44607844948768616)
(X_476  0.46764707565307617)
(X_477  0.47156864404678345)
(X_478  0.5872549414634705)
(X_479  0.6068627834320068)
(X_480  0.5029411911964417)
(X_481  0.48725491762161255)
(X_482  0.479411780834198)
(X_483  0.5833333730697632)
(X_484  0.49705883860588074)
(X_485  0.5754902362823486)
(X_486  0.6264706254005432)
(X_487  0.5068627595901489)
(X_488  0.45588237047195435)
(X_489  0.520588219165802)
(X_490  0.4735294282436371)
(X_491  0.4264706075191498)
(X_492  0.36176469922065735)
(X_493  0.4696078598499298)
(X_494  0.457843154668808)
(X_495  0.4225490391254425)
(X_496  0.40294119715690613)
(X_497  0.4068627655506134)
(X_498  0.39901962876319885)
(X_499  0.28333333134651184)
(X_500  0.41862747073173523)
(X_501  0.3503161668777466)
(X_502  0.3912860155105591)
(X_503  0.3539215624332428)
(X_504  0.5676470994949341)
(X_505  0.40882351994514465)
(X_506  0.5049019455909729)
(X_507  0.5598039627075195)
(X_508  0.551960825920105)
(X_509  0.4852941334247589)
(X_510  0.4696078598499298)
(X_511  0.4714590907096863)
(X_512  0.3499999940395355)
(X_513  0.385294109582901)
(X_514  0.3970588147640228)
(X_515  0.385294109582901)
(X_516  0.3970588147640228)
(X_517  0.45196080207824707)
(X_518  0.4990196228027344)
(X_519  0.5186274647712708)
(X_520  0.4480392038822174)
(X_521  0.44019606709480286)
(X_522  0.4205882251262665)
(X_523  0.39313724637031555)
(X_524  0.3696078360080719)
(X_525  0.45000001788139343)
(X_526  0.41470590233802795)
(X_527  0.3794117867946625)
(X_528  0.3029411733150482)
(X_529  0.31470587849617004)
(X_530  0.32647058367729187)
(X_531  0.33039215207099915)
(X_532  0.4735294282436371)
(X_533  0.4421568810939789)
(X_534  0.457843154668808)
(X_535  0.49313727021217346)
(X_536  0.45000001788139343)
(X_537  0.31677621603012085)
(X_538  0.28333333134651184)
(X_539  0.41089385747909546)
(X_540  0.3382352888584137)
(X_541  0.43039217591285706)
(X_542  0.4225490391254425)
(X_543  0.4382353127002716)
(X_544  0.3892156779766083)
(X_545  0.42450979351997375)
(X_546  0.4049019515514374)
(X_547  0.3578431308269501)
(X_548  0.520588219165802)
(X_549  0.4697173833847046)
(X_550  0.42450979351997375)
(X_551  0.520588219165802)
(X_552  0.5166666507720947)
(X_553  0.5088235139846802)
(X_554  0.3970588147640228)
(X_555  0.3813725411891937)
(X_556  0.4225490391254425)
(X_557  0.31470587849617004)
(X_558  0.34989047050476074)
(X_559  0.27156862616539)
(X_560  0.38333335518836975)
(X_561  0.2872548997402191)
(X_562  0.29901960492134094)
(X_563  0.3029411733150482)
(X_564  0.2754901945590973)
(X_565  0.24803923070430756)
(X_566  0.26372548937797546)
(X_567  0.3029411733150482)
(X_568  0.24411766231060028)
(X_569  0.3067532181739807)
(X_570  0.3754902184009552)
(X_571  0.3225490152835846)
(X_572  0.37745097279548645)
(X_573  0.3970588147640228)
(X_574  0.3578431308269501)
(X_575  0.3029411733150482)
(X_576  0.32647058367729187)
(X_577  0.34215685725212097)
(X_578  0.36176469922065735)
(X_579  0.4735294282436371)
(X_580  0.4735294282436371)
(X_581  0.37745097279548645)
(X_582  0.4009803831577301)
(X_583  0.47930222749710083)
(X_584  0.5794118046760559)
(X_585  0.46764707565307617)
(X_586  0.551960825920105)
(X_587  0.42843136191368103)
(X_588  0.27352941036224365)
(X_589  0.16568627953529358)
(X_590  0.1460784375667572)
(X_591  0.15000000596046448)
(X_592  0.18137255311012268)
(X_593  0.20490197837352753)
(X_594  0.28921568393707275)
(X_595  0.2539215683937073)
(X_596  0.2696078419685364)
(X_597  0.2774509787559509)
(X_598  0.24008654057979584)
(X_599  0.18921568989753723)
(X_600  0.20490197837352753)
(X_601  0.24803923070430756)
(X_602  0.3068627417087555)
(X_603  0.3539215624332428)
(X_604  0.3598039448261261)
(X_605  0.36764708161354065)
(X_606  0.38333335518836975)
(X_607  0.3950980603694916)
(X_608  0.387254923582077)
(X_609  0.33246248960494995)
(X_610  0.4225490391254425)
(X_611  0.46176472306251526)
(X_612  0.3735294044017792)
(X_613  0.3892156779766083)
(X_614  0.5049019455909729)
(X_615  0.40882351994514465)
(X_616  0.2186274528503418)
(X_617  0.19509804248809814)
(X_618  0.07941177487373352)
(X_619  0.09117648005485535)
(X_620  0.1303921639919281)
(X_621  0.25)
(X_622  0.1812630146741867)
(X_623  0.1872549057006836)
(X_624  0.22647058963775635)
(X_625  0.24607843160629272)
(X_626  0.2656862735748291)
(X_627  0.2539215683937073)
(X_628  0.11862745881080627)
(X_629  0.09509804844856262)
(X_630  0.10294118523597717)
(X_631  0.1677566021680832)
(X_632  0.2813725471496582)
(X_633  0.1774509847164154)
(X_634  0.18529412150382996)
(X_635  0.2088235467672348)
(X_636  0.261874258518219)
(X_637  0.31666669249534607)
(X_638  0.3401961028575897)
(X_639  0.2754901945590973)
(X_640  0.28333333134651184)
(X_641  0.34814876317977905)
(X_642  0.43039217591285706)
(X_643  0.44607844948768616)
(X_644  0.16764706373214722)
(X_645  0.15980392694473267)
(X_646  0.1715686321258545)
(X_647  0.19117647409439087)
(X_648  0.1872549057006836)
(X_649  0.10893306881189346)
(X_650  0.16372549533843994)
(X_651  0.18333333730697632)
(X_652  0.1872549057006836)
(X_653  0.13028262555599213)
(X_654  0.07549020648002625)
(X_655  0.09117648005485535)
(X_656  0.10686275362968445)
(X_657  0.10294118523597717)
(X_658  0.09509804844856262)
(X_659  0.09117648005485535)
(X_660  0.19117647409439087)
(X_661  0.17549020051956177)
(X_662  0.1872549057006836)
(X_663  0.13431373238563538)
(X_664  0.16960784792900085)
(X_665  0.2813725471496582)
(X_666  0.2970588207244873)
(X_667  0.22058825194835663)
(X_668  0.2949885129928589)
(X_669  0.24803923070430756)
(X_670  0.35196080803871155)
(X_671  0.25196078419685364)
(X_672  0.16372549533843994)
(X_673  0.05588235333561897)
(X_674  0.04803921654820442)
(X_675  0.0519607849419117)
(X_676  0.06372549384832382)
(X_677  0.0676470622420311)
(X_678  0.15980392694473267)
(X_679  0.04803921654820442)
(X_680  0.15980392694473267)
(X_681  0.15980392694473267)
(X_682  0.05980392172932625)
(X_683  0.05980392172932625)
(X_684  0.05980392172932625)
(X_685  0.05980392172932625)
(X_686  0.05980392172932625)
(X_687  0.05980392172932625)
(X_688  0.16764706373214722)
(X_689  0.07549020648002625)
(X_690  0.0833333432674408)
(X_691  0.09509804844856262)
(X_692  0.2029411792755127)
(X_693  0.21470588445663452)
(X_694  0.17559973895549774)
(X_695  0.24215686321258545)
(X_696  0.25784313678741455)
(X_697  0.2696078419685364)
(X_698  0.2774509787559509)
(X_699  0.2774509787559509)
(X_700  0.15980392694473267)
(X_701  0.09716835618019104)
(X_702  0.14411765336990356)
(X_703  0.14803922176361084)
(X_704  0.1558823585510254)
(X_705  0.05980392172932625)
(X_706  0.05588235333561897)
(X_707  0.04803921654820442)
(X_708  0.05588235333561897)
(X_709  0.05588235333561897)
(X_710  0.05588235333561897)
(X_711  0.05588235333561897)
(X_712  0.05588235333561897)
(X_713  0.05588235333561897)
(X_714  0.05588235333561897)
(X_715  0.05588235333561897)
(X_716  0.05588235333561897)
(X_717  0.05980392172932625)
(X_718  0.06372549384832382)
(X_719  0.0676470622420311)
(X_720  0.07549020648002625)
(X_721  0.18333333730697632)
(X_722  0.19509804248809814)
(X_723  0.2029411792755127)
(X_724  0.21470588445663452)
(X_725  0.22254902124404907)
(X_726  0.23039215803146362)
(X_727  0.23039215803146362)
(X_728  0.15196079015731812)
(X_729  0.04803921654820442)
(X_730  0.14411765336990356)
(X_731  0.14411765336990356)
(X_732  0.15196079015731812)
(X_733  0.15196079015731812)
(X_734  0.14803922176361084)
(X_735  0.14411765336990356)
(X_736  0.15196079015731812)
(X_737  0.15196079015731812)
(X_738  0.0519607849419117)
(X_739  0.0519607849419117)
(X_740  0.0519607849419117)
(X_741  0.0519607849419117)
(X_742  0.0519607849419117)
(X_743  0.0519607849419117)
(X_744  0.0519607849419117)
(X_745  0.04803921654820442)
(X_746  0.1028316468000412)
(X_747  0.0519607849419117)
(X_748  0.0519607849419117)
(X_749  0.05980392172932625)
(X_750  0.06372549384832382)
(X_751  0.0676470622420311)
(X_752  0.16764706373214722)
(X_753  0.17549020051956177)
(X_754  0.18333333730697632)
(X_755  0.1872549057006836)
(X_756  0.14411765336990356)
(X_757  0.14411765336990356)
(X_758  0.14411765336990356)
(X_759  0.14411765336990356)
(X_760  0.04411764815449715)
(X_761  0.04803921654820442)
(X_762  0.08932521939277649)
(X_763  0.04411764815449715)
(X_764  0.14411765336990356)
(X_765  0.14411765336990356)
(X_766  0.04411764815449715)
(X_767  0.04411764815449715)
(X_768  0.04411764815449715)
(X_769  0.04411764815449715)
(X_770  0.04411764815449715)
(X_771  0.04411764815449715)
(X_772  0.05588235333561897)
(X_773  0.0519607849419117)
(X_774  0.04803921654820442)
(X_775  0.0519607849419117)
(X_776  0.1558823585510254)
(X_777  0.16372549533843994)
(X_778  0.16372549533843994)
(X_779  0.16372549533843994)
(X_780  0.0519607849419117)
(X_781  0.05980392172932625)
(X_782  0.0676470622420311)
(X_783  0.1715686321258545)
(Y_0 -25.823341369628906)
(Y_1 12.335853576660156)
(Y_2 -24.72203826904297)
(Y_3 39.0451774597168))