((X_0  0.949999988079071)
(X_1  0.949999988079071)
(X_2  0.949999988079071)
(X_3  0.949999988079071)
(X_4  0.9848683476448059)
(X_5  1.0499999523162842)
(X_6  0.949999988079071)
(X_7  0.949999988079071)
(X_8  1.0499999523162842)
(X_9  1.0499999523162842)
(X_10  1.0499999523162842)
(X_11  1.0499999523162842)
(X_12  0.9460784196853638)
(X_13  1.0072884559631348)
(X_14  1.0033668279647827)
(X_15  0.9382352828979492)
(X_16  0.949999988079071)
(X_17  0.949999988079071)
(X_18  0.949999988079071)
(X_19  0.949999988079071)
(X_20  1.0499999523162842)
(X_21  1.0499999523162842)
(X_22  1.0460784435272217)
(X_23  0.9421568512916565)
(X_24  1.0499999523162842)
(X_25  1.0499999523162842)
(X_26  1.0499999523162842)
(X_27  1.0460784435272217)
(X_28  1.0499999523162842)
(X_29  0.949999988079071)
(X_30  0.9460784196853638)
(X_31  1.0421568155288696)
(X_32  0.9731037020683289)
(X_33  1.034313678741455)
(X_34  1.034313678741455)
(X_35  1.0303921699523926)
(X_36  1.0033668279647827)
(X_37  0.9382352828979492)
(X_38  0.9421568512916565)
(X_39  0.949999988079071)
(X_40  0.949999988079071)
(X_41  0.949999988079071)
(X_42  0.949999988079071)
(X_43  0.949999988079071)
(X_44  0.9303921461105347)
(X_45  0.9994453191757202)
(X_46  1.0421568155288696)
(X_47  1.0112099647521973)
(X_48  1.0499999523162842)
(X_49  1.0499999523162842)
(X_50  0.949999988079071)
(X_51  0.949999988079071)
(X_52  1.0499999523162842)
(X_53  0.9848683476448059)
(X_54  0.949999988079071)
(X_55  1.0499999523162842)
(X_56  1.0499999523162842)
(X_57  0.949999988079071)
(X_58  0.949999988079071)
(X_59  0.949999988079071)
(X_60  0.949999988079071)
(X_61  0.949999988079071)
(X_62  0.949999988079071)
(X_63  0.949999988079071)
(X_64  1.0151315927505493)
(X_65  0.949999988079071)
(X_66  0.949999988079071)
(X_67  0.949999988079071)
(X_68  0.949999988079071)
(X_69  0.949999988079071)
(X_70  0.949999988079071)
(X_71  0.949999988079071)
(X_72  0.949999988079071)
(X_73  0.949999988079071)
(X_74  0.949999988079071)
(X_75  0.949999988079071)
(X_76  0.949999988079071)
(X_77  1.0499999523162842)
(X_78  1.0499999523162842)
(X_79  1.0460784435272217)
(X_80  1.0499999523162842)
(X_81  1.0499999523162842)
(X_82  0.949999988079071)
(X_83  1.0499999523162842)
(X_84  1.0264705419540405)
(X_85  1.0303921699523926)
(X_86  0.9343137145042419)
(X_87  1.0072884559631348)
(X_88  0.949999988079071)
(X_89  1.0499999523162842)
(X_90  1.0499999523162842)
(X_91  1.0499999523162842)
(X_92  1.0460784435272217)
(X_93  0.9460784196853638)
(X_94  0.9460784196853638)
(X_95  0.949999988079071)
(X_96  1.0499999523162842)
(X_97  1.0499999523162842)
(X_98  1.0499999523162842)
(X_99  1.0499999523162842)
(X_100  1.0460784435272217)
(X_101  1.0460784435272217)
(X_102  1.0460784435272217)
(X_103  1.0112099647521973)
(X_104  0.9421568512916565)
(X_105  0.9382352828979492)
(X_106  0.9343137145042419)
(X_107  0.9303921461105347)
(X_108  1.0499999523162842)
(X_109  0.949999988079071)
(X_110  0.949999988079071)
(X_111  0.949999988079071)
(X_112  0.4950980544090271)
(X_113  0.4990196228027344)
(X_114  0.5068627595901489)
(X_115  0.5186274647712708)
(X_116  0.5264706015586853)
(X_117  0.5382353067398071)
(X_118  0.5460784435272217)
(X_119  0.550000011920929)
(X_120  0.6931372880935669)
(X_121  0.6009804010391235)
(X_122  0.6127451062202454)
(X_123  0.6284313797950745)
(X_124  0.6441176533699036)
(X_125  0.6598039269447327)
(X_126  0.6715686321258545)
(X_127  0.6754902005195618)
(X_128  0.8068627715110779)
(X_129  0.8147059082984924)
(X_130  0.8303921818733215)
(X_131  0.8460784554481506)
(X_132  0.8617647290229797)
(X_133  0.8774510025978088)
(X_134  0.8852941393852234)
(X_135  0.8892157077789307)
(X_136  0.9127451181411743)
(X_137  0.8778766989707947)
(X_138  0.9127451181411743)
(X_139  0.9166666865348816)
(X_140  0.0833333432674408)
(X_141  0.15238651633262634)
(X_142  0.09117648005485535)
(X_143  0.19117647409439087)
(X_144  0.0990196168422699)
(X_145  0.0990196168422699)
(X_146  0.10294118523597717)
(X_147  0.20686274766921997)
(X_148  0.16372549533843994)
(X_149  0.1715686321258545)
(X_150  0.1445433795452118)
(X_151  0.08725491166114807)
(X_152  0.16415122151374817)
(X_153  0.21078431606292725)
(X_154  0.2186274528503418)
(X_155  0.22254902124404907)
(X_156  0.19901961088180542)
(X_157  0.2029411792755127)
(X_158  0.21470588445663452)
(X_159  0.22647058963775635)
(X_160  0.23823529481887817)
(X_161  0.15000000596046448)
(X_162  0.15392157435417175)
(X_163  0.15784314274787903)
(X_164  0.16960784792900085)
(X_165  0.17352941632270813)
(X_166  0.17352941632270813)
(X_167  0.1774509847164154)
(X_168  0.09117648005485535)
(X_169  0.19117647409439087)
(X_170  0.19117647409439087)
(X_171  0.1872549057006836)
(X_172  0.18333333730697632)
(X_173  0.0833333432674408)
(X_174  0.07941177487373352)
(X_175  0.17941176891326904)
(X_176  0.2029411792755127)
(X_177  0.13388800621032715)
(X_178  0.0990196168422699)
(X_179  0.09509804844856262)
(X_180  0.09117648005485535)
(X_181  0.09117648005485535)
(X_182  0.08725491166114807)
(X_183  0.08725491166114807)
(X_184  0.21078431606292725)
(X_185  0.21078431606292725)
(X_186  0.20686274766921997)
(X_187  0.2029411792755127)
(X_188  0.19901961088180542)
(X_189  0.19117647409439087)
(X_190  0.18333333730697632)
(X_191  0.17941176891326904)
(X_192  0.19117647409439087)
(X_193  0.15630808472633362)
(X_194  0.09509804844856262)
(X_195  0.0990196168422699)
(X_196  0.09117648005485535)
(X_197  0.15630808472633362)
(X_198  0.1872549057006836)
(X_199  0.18333333730697632)
(X_200  0.07941177487373352)
(X_201  0.07941177487373352)
(X_202  0.07549020648002625)
(X_203  0.07549020648002625)
(X_204  0.0833333432674408)
(X_205  0.0833333432674408)
(X_206  0.08725491166114807)
(X_207  0.1872549057006836)
(X_208  0.08725491166114807)
(X_209  0.09117648005485535)
(X_210  0.09117648005485535)
(X_211  0.09117648005485535)
(X_212  0.19901961088180542)
(X_213  0.19901961088180542)
(X_214  0.19901961088180542)
(X_215  0.19509804248809814)
(X_216  0.19117647409439087)
(X_217  0.18333333730697632)
(X_218  0.17941176891326904)
(X_219  0.17549020051956177)
(X_220  0.1872549057006836)
(X_221  0.19117647409439087)
(X_222  0.19117647409439087)
(X_223  0.19509804248809814)
(X_224  0.11862745881080627)
(X_225  0.09117648005485535)
(X_226  0.1715686321258545)
(X_227  0.17941176891326904)
(X_228  0.19117647409439087)
(X_229  0.12212330847978592)
(X_230  0.08725491166114807)
(X_231  0.09509804844856262)
(X_232  0.15630808472633362)
(X_233  0.09509804844856262)
(X_234  0.10294118523597717)
(X_235  0.10686275362968445)
(X_236  0.0990196168422699)
(X_237  0.08725491166114807)
(X_238  0.0676470622420311)
(X_239  0.05980392172932625)
(X_240  0.0990196168422699)
(X_241  0.19509804248809814)
(X_242  0.1872549057006836)
(X_243  0.18333333730697632)
(X_244  0.17941176891326904)
(X_245  0.17941176891326904)
(X_246  0.17941176891326904)
(X_247  0.0833333432674408)
(X_248  0.08725491166114807)
(X_249  0.08725491166114807)
(X_250  0.0833333432674408)
(X_251  0.1445433795452118)
(X_252  0.05980392172932625)
(X_253  0.07549020648002625)
(X_254  0.0990196168422699)
(X_255  0.11078432202339172)
(X_256  0.19117647409439087)
(X_257  0.15980392694473267)
(X_258  0.1558823585510254)
(X_259  0.17549020051956177)
(X_260  0.0833333432674408)
(X_261  0.08725491166114807)
(X_262  0.09117648005485535)
(X_263  0.09117648005485535)
(X_264  0.09117648005485535)
(X_265  0.08725491166114807)
(X_266  0.14846494793891907)
(X_267  0.17941176891326904)
(X_268  0.16764706373214722)
(X_269  0.1715686321258545)
(X_270  0.17941176891326904)
(X_271  0.08725491166114807)
(X_272  0.09117648005485535)
(X_273  0.19509804248809814)
(X_274  0.19901961088180542)
(X_275  0.19901961088180542)
(X_276  0.1872549057006836)
(X_277  0.1872549057006836)
(X_278  0.08725491166114807)
(X_279  0.09117648005485535)
(X_280  0.17549020051956177)
(X_281  0.15980392694473267)
(X_282  0.14803922176361084)
(X_283  0.04411764815449715)
(X_284  0.036274511367082596)
(X_285  0.136274516582489)
(X_286  0.16764706373214722)
(X_287  0.2029411792755127)
(X_288  0.0676470622420311)
(X_289  0.0676470622420311)
(X_290  0.0676470622420311)
(X_291  0.16764706373214722)
(X_292  0.16764706373214722)
(X_293  0.0676470622420311)
(X_294  0.0676470622420311)
(X_295  0.0676470622420311)
(X_296  0.15196079015731812)
(X_297  0.05588235333561897)
(X_298  0.05980392172932625)
(X_299  0.0676470622420311)
(X_300  0.0676470622420311)
(X_301  0.16372549533843994)
(X_302  0.15980392694473267)
(X_303  0.05588235333561897)
(X_304  0.0676470622420311)
(X_305  0.07156863063573837)
(X_306  0.07549020648002625)
(X_307  0.07941177487373352)
(X_308  0.1872549057006836)
(X_309  0.1558823585510254)
(X_310  0.14411765336990356)
(X_311  0.11035860329866409)
(X_312  0.10294118523597717)
(X_313  0.09509804844856262)
(X_314  0.07156863063573837)
(X_315  0.0519607849419117)
(X_316  0.16764706373214722)
(X_317  0.16764706373214722)
(X_318  0.1715686321258545)
(X_319  0.1715686321258545)
(X_320  0.10251546651124954)
(X_321  0.06372549384832382)
(X_322  0.05588235333561897)
(X_323  0.05588235333561897)
(X_324  0.05980392172932625)
(X_325  0.05980392172932625)
(X_326  0.15980392694473267)
(X_327  0.15980392694473267)
(X_328  0.05980392172932625)
(X_329  0.15980392694473267)
(X_330  0.15980392694473267)
(X_331  0.15980392694473267)
(X_332  0.1558823585510254)
(X_333  0.12493552267551422)
(X_334  0.05980392172932625)
(X_335  0.05980392172932625)
(X_336  0.3284313976764679)
(X_337  0.27352941036224365)
(X_338  0.2186274528503418)
(X_339  0.12996643781661987)
(X_340  0.09117648005485535)
(X_341  0.0833333432674408)
(X_342  0.0833333432674408)
(X_343  0.09117648005485535)
(X_344  0.16764706373214722)
(X_345  0.1715686321258545)
(X_346  0.07941177487373352)
(X_347  0.08725491166114807)
(X_348  0.08725491166114807)
(X_349  0.0833333432674408)
(X_350  0.07156863063573837)
(X_351  0.16764706373214722)
(X_352  0.1715686321258545)
(X_353  0.16764706373214722)
(X_354  0.0676470622420311)
(X_355  0.0676470622420311)
(X_356  0.17549020051956177)
(X_357  0.18333333730697632)
(X_358  0.19509804248809814)
(X_359  0.16807278990745544)
(X_360  0.15980392694473267)
(X_361  0.15980392694473267)
(X_362  0.09467232972383499)
(X_363  0.05980392172932625)
(X_364  0.31470587849617004)
(X_365  0.3794117867946625)
(X_366  0.33235296607017517)
(X_367  0.2696078419685364)
(X_368  0.20686274766921997)
(X_369  0.16372549533843994)
(X_370  0.07156863063573837)
(X_371  0.10294118523597717)
(X_372  0.0519607849419117)
(X_373  0.1558823585510254)
(X_374  0.16372549533843994)
(X_375  0.1715686321258545)
(X_376  0.14062181115150452)
(X_377  0.07549020648002625)
(X_378  0.07156863063573837)
(X_379  0.07156863063573837)
(X_380  0.16764706373214722)
(X_381  0.16372549533843994)
(X_382  0.1558823585510254)
(X_383  0.15196079015731812)
(X_384  0.0519607849419117)
(X_385  0.0519607849419117)
(X_386  0.05588235333561897)
(X_387  0.05980392172932625)
(X_388  0.05980392172932625)
(X_389  0.15980392694473267)
(X_390  0.05588235333561897)
(X_391  0.05588235333561897)
(X_392  0.39901962876319885)
(X_393  0.39901962876319885)
(X_394  0.3798374831676483)
(X_395  0.43039217591285706)
(X_396  0.39901962876319885)
(X_397  0.31666669249534607)
(X_398  0.12254902720451355)
(X_399  0.07156863063573837)
(X_400  0.0833333432674408)
(X_401  0.07549020648002625)
(X_402  0.16372549533843994)
(X_403  0.15196079015731812)
(X_404  0.15196079015731812)
(X_405  0.15196079015731812)
(X_406  0.05980392172932625)
(X_407  0.16372549533843994)
(X_408  0.16372549533843994)
(X_409  0.16764706373214722)
(X_410  0.17941176891326904)
(X_411  0.18333333730697632)
(X_412  0.1872549057006836)
(X_413  0.0833333432674408)
(X_414  0.14062181115150452)
(X_415  0.1715686321258545)
(X_416  0.10294118523597717)
(X_417  0.09509804844856262)
(X_418  0.07941177487373352)
(X_419  0.06372549384832382)
(X_420  0.5911765098571777)
(X_421  0.4735294282436371)
(X_422  0.36764708161354065)
(X_423  0.27156862616539)
(X_424  0.3343137204647064)
(X_425  0.3578431308269501)
(X_426  0.3186274468898773)
(X_427  0.3715686500072479)
(X_428  0.25784313678741455)
(X_429  0.2343137264251709)
(X_430  0.10294118523597717)
(X_431  0.07156863063573837)
(X_432  0.05588235333561897)
(X_433  0.05588235333561897)
(X_434  0.0676470622420311)
(X_435  0.07549020648002625)
(X_436  0.09859389811754227)
(X_437  0.1872549057006836)
(X_438  0.1303921639919281)
(X_439  0.2044762372970581)
(X_440  0.2358488142490387)
(X_441  0.21274511516094208)
(X_442  0.21274511516094208)
(X_443  0.2088235467672348)
(X_444  0.17352941632270813)
(X_445  0.15784314274787903)
(X_446  0.1303921639919281)
(X_447  0.19901961088180542)
(X_448  0.43431374430656433)
(X_449  0.41274508833885193)
(X_450  0.42843136191368103)
(X_451  0.34215685725212097)
(X_452  0.26372548937797546)
(X_453  0.26372548937797546)
(X_454  0.3142801821231842)
(X_455  0.36764708161354065)
(X_456  0.387254923582077)
(X_457  0.3950980603694916)
(X_458  0.3637255132198334)
(X_459  0.27352941036224365)
(X_460  0.1872549057006836)
(X_461  0.05980392172932625)
(X_462  0.0990196168422699)
(X_463  0.14215686917304993)
(X_464  0.240196093916893)
(X_465  0.27156862616539)
(X_466  0.2872548997402191)
(X_467  0.28333333134651184)
(X_468  0.38333335518836975)
(X_469  0.38333335518836975)
(X_470  0.3598039448261261)
(X_471  0.3245098292827606)
(X_472  0.3480392396450043)
(X_473  0.3558823764324188)
(X_474  0.3558823764324188)
(X_475  0.344117671251297)
(X_476  0.13823530077934265)
(X_477  0.23627452552318573)
(X_478  0.43431374430656433)
(X_479  0.46568629145622253)
(X_480  0.36176469922065735)
(X_481  0.3539215624332428)
(X_482  0.3186274468898773)
(X_483  0.3754902184009552)
(X_484  0.3794117867946625)
(X_485  0.3558823764324188)
(X_486  0.3401961028575897)
(X_487  0.240196093916893)
(X_488  0.31317082047462463)
(X_489  0.30924925208091736)
(X_490  0.29356297850608826)
(X_491  0.21666668355464935)
(X_492  0.29901960492134094)
(X_493  0.3029411733150482)
(X_494  0.3142801821231842)
(X_495  0.23235295712947845)
(X_496  0.20098040997982025)
(X_497  0.2970588207244873)
(X_498  0.2970588207244873)
(X_499  0.18921568989753723)
(X_500  0.31666669249534607)
(X_501  0.3284313976764679)
(X_502  0.3401961028575897)
(X_503  0.35196080803871155)
(X_504  0.32058826088905334)
(X_505  0.31666669249534607)
(X_506  0.31666669249534607)
(X_507  0.33235296607017517)
(X_508  0.3367002308368683)
(X_509  0.3186274468898773)
(X_510  0.46176472306251526)
(X_511  0.4892157018184662)
(X_512  0.3182017505168915)
(X_513  0.25937822461128235)
(X_514  0.2201625108718872)
(X_515  0.2088235467672348)
(X_516  0.24803923070430756)
(X_517  0.26372548937797546)
(X_518  0.26764705777168274)
(X_519  0.2754901945590973)
(X_520  0.34607842564582825)
(X_521  0.34215685725212097)
(X_522  0.31078431010246277)
(X_523  0.2598039209842682)
(X_524  0.22058825194835663)
(X_525  0.31666669249534607)
(X_526  0.32058826088905334)
(X_527  0.3245098292827606)
(X_528  0.24369195103645325)
(X_529  0.2088235467672348)
(X_530  0.21274511516094208)
(X_531  0.2245098203420639)
(X_532  0.3127451241016388)
(X_533  0.2852941155433655)
(X_534  0.28921568393707275)
(X_535  0.3245098292827606)
(X_536  0.25196078419685364)
(X_537  0.25196078419685364)
(X_538  0.3637255132198334)
(X_539  0.3911764919757843)
(X_540  0.36176469922065735)
(X_541  0.31470587849617004)
(X_542  0.3754902184009552)
(X_543  0.25196078419685364)
(X_544  0.20490197837352753)
(X_545  0.1617647111415863)
(X_546  0.18137255311012268)
(X_547  0.23235295712947845)
(X_548  0.45000001788139343)
(X_549  0.34607842564582825)
(X_550  0.3382352888584137)
(X_551  0.4225490391254425)
(X_552  0.40294119715690613)
(X_553  0.3754902184009552)
(X_554  0.24803923070430756)
(X_555  0.2245098203420639)
(X_556  0.3598039448261261)
(X_557  0.31317082047462463)
(X_558  0.2672213613986969)
(X_559  0.23235295712947845)
(X_560  0.19509804248809814)
(X_561  0.09509804844856262)
(X_562  0.13431373238563538)
(X_563  0.19705882668495178)
(X_564  0.2088235467672348)
(X_565  0.18137255311012268)
(X_566  0.1774509847164154)
(X_567  0.20490197837352753)
(X_568  0.2754901945590973)
(X_569  0.2911764681339264)
(X_570  0.4225490391254425)
(X_571  0.34607842564582825)
(X_572  0.3186274468898773)
(X_573  0.27941176295280457)
(X_574  0.2911764681339264)
(X_575  0.33039215207099915)
(X_576  0.3186274468898773)
(X_577  0.3068627417087555)
(X_578  0.29901960492134094)
(X_579  0.4068627655506134)
(X_580  0.4068627655506134)
(X_581  0.3715686500072479)
(X_582  0.3127451241016388)
(X_583  0.2696078419685364)
(X_584  0.344117671251297)
(X_585  0.2632997930049896)
(X_586  0.3088235557079315)
(X_587  0.20490197837352753)
(X_588  0.19117647409439087)
(X_589  0.07549020648002625)
(X_590  0.07156863063573837)
(X_591  0.0833333432674408)
(X_592  0.1872549057006836)
(X_593  0.2029411792755127)
(X_594  0.2617647051811218)
(X_595  0.3284313976764679)
(X_596  0.2774509787559509)
(X_597  0.2852941155433655)
(X_598  0.21274511516094208)
(X_599  0.2598039209842682)
(X_600  0.31078431010246277)
(X_601  0.3499999940395355)
(X_602  0.3656862676143646)
(X_603  0.3656862676143646)
(X_604  0.3715686500072479)
(X_605  0.344117671251297)
(X_606  0.33235296607017517)
(X_607  0.35196080803871155)
(X_608  0.3367002308368683)
(X_609  0.26764705777168274)
(X_610  0.35196080803871155)
(X_611  0.3401961028575897)
(X_612  0.26372548937797546)
(X_613  0.24803923070430756)
(X_614  0.33235296607017517)
(X_615  0.2554566562175751)
(X_616  0.15196079015731812)
(X_617  0.06372549384832382)
(X_618  0.07549020648002625)
(X_619  0.0833333432674408)
(X_620  0.0833333432674408)
(X_621  0.1872549057006836)
(X_622  0.2029411792755127)
(X_623  0.22254902124404907)
(X_624  0.28921568393707275)
(X_625  0.18137255311012268)
(X_626  0.15392157435417175)
(X_627  0.2343137264251709)
(X_628  0.16960784792900085)
(X_629  0.22058825194835663)
(X_630  0.22058825194835663)
(X_631  0.18529412150382996)
(X_632  0.20098040997982025)
(X_633  0.18137255311012268)
(X_634  0.1774509847164154)
(X_635  0.20098040997982025)
(X_636  0.2245098203420639)
(X_637  0.3480392396450043)
(X_638  0.3911764919757843)
(X_639  0.33039215207099915)
(X_640  0.3343137204647064)
(X_641  0.40336689352989197)
(X_642  0.43431374430656433)
(X_643  0.4264706075191498)
(X_644  0.10532768070697784)
(X_645  0.04803921654820442)
(X_646  0.14411765336990356)
(X_647  0.1401960849761963)
(X_648  0.14411765336990356)
(X_649  0.16372549533843994)
(X_650  0.17549020051956177)
(X_651  0.1715686321258545)
(X_652  0.14803922176361084)
(X_653  0.21078431606292725)
(X_654  0.17702525854110718)
(X_655  0.13431373238563538)
(X_656  0.1617647111415863)
(X_657  0.21274511516094208)
(X_658  0.2088235467672348)
(X_659  0.15784314274787903)
(X_660  0.24607843160629272)
(X_661  0.24215686321258545)
(X_662  0.25)
(X_663  0.25784313678741455)
(X_664  0.15784314274787903)
(X_665  0.27352941036224365)
(X_666  0.33627453446388245)
(X_667  0.4068627655506134)
(X_668  0.3715686500072479)
(X_669  0.3950980603694916)
(X_670  0.4264706075191498)
(X_671  0.3382352888584137)
(X_672  0.136274516582489)
(X_673  0.036274511367082596)
(X_674  0.03235294297337532)
(X_675  0.03235294297337532)
(X_676  0.036274511367082596)
(X_677  0.036274511367082596)
(X_678  0.04019607976078987)
(X_679  0.04411764815449715)
(X_680  0.0519607849419117)
(X_681  0.15980392694473267)
(X_682  0.07549020648002625)
(X_683  0.0990196168422699)
(X_684  0.22254902124404907)
(X_685  0.13823530077934265)
(X_686  0.13823530077934265)
(X_687  0.13431373238563538)
(X_688  0.14215686917304993)
(X_689  0.13431373238563538)
(X_690  0.114705890417099)
(X_691  0.0990196168422699)
(X_692  0.10294118523597717)
(X_693  0.19944533705711365)
(X_694  0.2696078419685364)
(X_695  0.2852941155433655)
(X_696  0.31666669249534607)
(X_697  0.31666669249534607)
(X_698  0.3284313976764679)
(X_699  0.24803923070430756)
(X_700  0.13235294818878174)
(X_701  0.0974845439195633)
(X_702  0.13235294818878174)
(X_703  0.13235294818878174)
(X_704  0.13235294818878174)
(X_705  0.136274516582489)
(X_706  0.07114291936159134)
(X_707  0.07506448775529861)
(X_708  0.1401960849761963)
(X_709  0.14411765336990356)
(X_710  0.15196079015731812)
(X_711  0.1715686321258545)
(X_712  0.1872549057006836)
(X_713  0.09509804844856262)
(X_714  0.08725491166114807)
(X_715  0.0833333432674408)
(X_716  0.12996643781661987)
(X_717  0.0990196168422699)
(X_718  0.09117648005485535)
(X_719  0.08725491166114807)
(X_720  0.09117648005485535)
(X_721  0.21078431606292725)
(X_722  0.23039215803146362)
(X_723  0.24215686321258545)
(X_724  0.27352941036224365)
(X_725  0.2696078419685364)
(X_726  0.2813725471496582)
(X_727  0.30098041892051697)
(X_728  0.12450980395078659)
(X_729  0.08964140713214874)
(X_730  0.12843137979507446)
(X_731  0.12843137979507446)
(X_732  0.12843137979507446)
(X_733  0.13235294818878174)
(X_734  0.13235294818878174)
(X_735  0.13235294818878174)
(X_736  0.13235294818878174)
(X_737  0.13235294818878174)
(X_738  0.03235294297337532)
(X_739  0.04019607976078987)
(X_740  0.04803921654820442)
(X_741  0.04803921654820442)
(X_742  0.04019607976078987)
(X_743  0.03235294297337532)
(X_744  0.04411764815449715)
(X_745  0.0519607849419117)
(X_746  0.15980392694473267)
(X_747  0.10251546651124954)
(X_748  0.0676470622420311)
(X_749  0.07156863063573837)
(X_750  0.0833333432674408)
(X_751  0.09509804844856262)
(X_752  0.22254902124404907)
(X_753  0.21470588445663452)
(X_754  0.2186274528503418)
(X_755  0.23823529481887817)
(X_756  0.12058823555707932)
(X_757  0.12058823555707932)
(X_758  0.12450980395078659)
(X_759  0.12450980395078659)
(X_760  0.028431374579668045)
(X_761  0.12843137979507446)
(X_762  0.12843137979507446)
(X_763  0.12843137979507446)
(X_764  0.136274516582489)
(X_765  0.13235294818878174)
(X_766  0.03235294297337532)
(X_767  0.03235294297337532)
(X_768  0.036274511367082596)
(X_769  0.036274511367082596)
(X_770  0.02450980618596077)
(X_771  0.01666666939854622)
(X_772  0.020588237792253494)
(X_773  0.02450980618596077)
(X_774  0.036274511367082596)
(X_775  0.0519607849419117)
(X_776  0.14803922176361084)
(X_777  0.14411765336990356)
(X_778  0.1558823585510254)
(X_779  0.17549020051956177)
(X_780  0.09117648005485535)
(X_781  0.07549020648002625)
(X_782  0.07549020648002625)
(X_783  0.12996643781661987)
(Y_0 -15.182660102844238)
(Y_1 -3.7618937492370605)
(Y_2 -10.23503303527832)
(Y_3 30.236913681030273))