((X_0  0.3794117867946625)
(X_1  0.31078431010246277)
(X_2  0.3578431308269501)
(X_3  0.4009803831577301)
(X_4  0.44019606709480286)
(X_5  0.4833333492279053)
(X_6  0.5303921699523926)
(X_7  0.5617647171020508)
(X_8  0.6401960849761963)
(X_9  0.6598039269447327)
(X_10  0.795098066329956)
(X_11  0.7421568632125854)
(X_12  0.7852941155433655)
(X_13  0.9166666865348816)
(X_14  0.9284313917160034)
(X_15  0.8323529362678528)
(X_16  0.8598039150238037)
(X_17  0.8872548937797546)
(X_18  0.9186274409294128)
(X_19  0.9421568512916565)
(X_20  1.0460784435272217)
(X_21  1.0499999523162842)
(X_22  0.949999988079071)
(X_23  0.949999988079071)
(X_24  1.0382353067398071)
(X_25  0.9460784196853638)
(X_26  0.949999988079071)
(X_27  1.0499999523162842)
(X_28  0.16372549533843994)
(X_29  0.07156863063573837)
(X_30  0.0833333432674408)
(X_31  0.08725491166114807)
(X_32  0.09509804844856262)
(X_33  0.10294118523597717)
(X_34  0.11078432202339172)
(X_35  0.11862745881080627)
(X_36  0.114705890417099)
(X_37  0.21078431606292725)
(X_38  0.114705890417099)
(X_39  0.1303921639919281)
(X_40  0.15784314274787903)
(X_41  0.28921568393707275)
(X_42  0.32058826088905334)
(X_43  0.33627453446388245)
(X_44  0.3715686500072479)
(X_45  0.2872548997402191)
(X_46  0.31470587849617004)
(X_47  0.34607842564582825)
(X_48  0.3892156779766083)
(X_49  0.4362744987010956)
(X_50  0.4833333492279053)
(X_51  0.5107843279838562)
(X_52  0.7284314036369324)
(X_53  0.7441176772117615)
(X_54  0.7715686559677124)
(X_55  0.7990196347236633)
(X_56  0.21078431606292725)
(X_57  0.10294118523597717)
(X_58  0.0990196168422699)
(X_59  0.09509804844856262)
(X_60  0.09509804844856262)
(X_61  0.09509804844856262)
(X_62  0.08725491166114807)
(X_63  0.0833333432674408)
(X_64  0.08725491166114807)
(X_65  0.09117648005485535)
(X_66  0.09509804844856262)
(X_67  0.0990196168422699)
(X_68  0.2029411792755127)
(X_69  0.10294118523597717)
(X_70  0.10294118523597717)
(X_71  0.10294118523597717)
(X_72  0.10686275362968445)
(X_73  0.09509804844856262)
(X_74  0.08725491166114807)
(X_75  0.08725491166114807)
(X_76  0.19901961088180542)
(X_77  0.2186274528503418)
(X_78  0.23039215803146362)
(X_79  0.23823529481887817)
(X_80  0.15980392694473267)
(X_81  0.16764706373214722)
(X_82  0.18333333730697632)
(X_83  0.19509804248809814)
(X_84  0.1558823585510254)
(X_85  0.14411765336990356)
(X_86  0.1401960849761963)
(X_87  0.14803922176361084)
(X_88  0.16372549533843994)
(X_89  0.07549020648002625)
(X_90  0.0676470622420311)
(X_91  0.05980392172932625)
(X_92  0.17549020051956177)
(X_93  0.07941177487373352)
(X_94  0.08725491166114807)
(X_95  0.09117648005485535)
(X_96  0.18333333730697632)
(X_97  0.17941176891326904)
(X_98  0.17941176891326904)
(X_99  0.17941176891326904)
(X_100  0.19509804248809814)
(X_101  0.18333333730697632)
(X_102  0.17549020051956177)
(X_103  0.07941177487373352)
(X_104  0.1872549057006836)
(X_105  0.0833333432674408)
(X_106  0.06372549384832382)
(X_107  0.04411764815449715)
(X_108  0.11862745881080627)
(X_109  0.114705890417099)
(X_110  0.11078432202339172)
(X_111  0.19901961088180542)
(X_112  0.09117648005485535)
(X_113  0.17941176891326904)
(X_114  0.1715686321258545)
(X_115  0.17549020051956177)
(X_116  0.08725491166114807)
(X_117  0.09117648005485535)
(X_118  0.07941177487373352)
(X_119  0.16764706373214722)
(X_120  0.07941177487373352)
(X_121  0.07549020648002625)
(X_122  0.0676470622420311)
(X_123  0.05588235333561897)
(X_124  0.15196079015731812)
(X_125  0.06372549384832382)
(X_126  0.09117648005485535)
(X_127  0.114705890417099)
(X_128  0.18333333730697632)
(X_129  0.17941176891326904)
(X_130  0.17941176891326904)
(X_131  0.1872549057006836)
(X_132  0.19901961088180542)
(X_133  0.19509804248809814)
(X_134  0.07941177487373352)
(X_135  0.15980392694473267)
(X_136  0.17549020051956177)
(X_137  0.07156863063573837)
(X_138  0.06372549384832382)
(X_139  0.15980392694473267)
(X_140  0.18333333730697632)
(X_141  0.17941176891326904)
(X_142  0.1715686321258545)
(X_143  0.1715686321258545)
(X_144  0.07549020648002625)
(X_145  0.07549020648002625)
(X_146  0.07156863063573837)
(X_147  0.16764706373214722)
(X_148  0.15196079015731812)
(X_149  0.16764706373214722)
(X_150  0.18333333730697632)
(X_151  0.17941176891326904)
(X_152  0.16372549533843994)
(X_153  0.14803922176361084)
(X_154  0.1401960849761963)
(X_155  0.04411764815449715)
(X_156  0.07941177487373352)
(X_157  0.07156863063573837)
(X_158  0.05980392172932625)
(X_159  0.15980392694473267)
(X_160  0.16372549533843994)
(X_161  0.07156863063573837)
(X_162  0.17549020051956177)
(X_163  0.17549020051956177)
(X_164  0.17941176891326904)
(X_165  0.07549020648002625)
(X_166  0.07549020648002625)
(X_167  0.17549020051956177)
(X_168  0.05588235333561897)
(X_169  0.05980392172932625)
(X_170  0.0676470622420311)
(X_171  0.1715686321258545)
(X_172  0.1715686321258545)
(X_173  0.1715686321258545)
(X_174  0.17941176891326904)
(X_175  0.1872549057006836)
(X_176  0.136274516582489)
(X_177  0.15980392694473267)
(X_178  0.1872549057006836)
(X_179  0.19901961088180542)
(X_180  0.19901961088180542)
(X_181  0.19901961088180542)
(X_182  0.21078431606292725)
(X_183  0.22254902124404907)
(X_184  0.21078431606292725)
(X_185  0.21470588445663452)
(X_186  0.21078431606292725)
(X_187  0.19901961088180542)
(X_188  0.08725491166114807)
(X_189  0.07941177487373352)
(X_190  0.07549020648002625)
(X_191  0.17941176891326904)
(X_192  0.17549020051956177)
(X_193  0.17549020051956177)
(X_194  0.1715686321258545)
(X_195  0.1715686321258545)
(X_196  0.04803921654820442)
(X_197  0.1558823585510254)
(X_198  0.0676470622420311)
(X_199  0.06372549384832382)
(X_200  0.15196079015731812)
(X_201  0.14803922176361084)
(X_202  0.1558823585510254)
(X_203  0.16764706373214722)
(X_204  0.0833333432674408)
(X_205  0.1715686321258545)
(X_206  0.15980392694473267)
(X_207  0.16372549533843994)
(X_208  0.10686275362968445)
(X_209  0.2088235467672348)
(X_210  0.3382352888584137)
(X_211  0.42450979351997375)
(X_212  0.5794118046760559)
(X_213  0.5754902362823486)
(X_214  0.4480392038822174)
(X_215  0.3813725411891937)
(X_216  0.2872548997402191)
(X_217  0.28921568393707275)
(X_218  0.21470588445663452)
(X_219  0.17941176891326904)
(X_220  0.17549020051956177)
(X_221  0.07941177487373352)
(X_222  0.0833333432674408)
(X_223  0.18333333730697632)
(X_224  0.07549020648002625)
(X_225  0.07549020648002625)
(X_226  0.07156863063573837)
(X_227  0.05980392172932625)
(X_228  0.0519607849419117)
(X_229  0.05588235333561897)
(X_230  0.0676470622420311)
(X_231  0.0833333432674408)
(X_232  0.136274516582489)
(X_233  0.19509804248809814)
(X_234  0.1931372582912445)
(X_235  0.3068627417087555)
(X_236  0.4205882251262665)
(X_237  0.4950980544090271)
(X_238  0.4990196228027344)
(X_239  0.47156864404678345)
(X_240  0.46764707565307617)
(X_241  0.4950980544090271)
(X_242  0.595098078250885)
(X_243  0.5715686678886414)
(X_244  0.5794118046760559)
(X_245  0.5715686678886414)
(X_246  0.46176472306251526)
(X_247  0.33235296607017517)
(X_248  0.09509804844856262)
(X_249  0.0833333432674408)
(X_250  0.07156863063573837)
(X_251  0.18333333730697632)
(X_252  0.07549020648002625)
(X_253  0.0833333432674408)
(X_254  0.09117648005485535)
(X_255  0.2029411792755127)
(X_256  0.21470588445663452)
(X_257  0.22254902124404907)
(X_258  0.2343137264251709)
(X_259  0.24215686321258545)
(X_260  0.2911764681339264)
(X_261  0.3499999940395355)
(X_262  0.40882351994514465)
(X_263  0.4205882251262665)
(X_264  0.5009803771972656)
(X_265  0.47745099663734436)
(X_266  0.45000001788139343)
(X_267  0.43039217591285706)
(X_268  0.3382352888584137)
(X_269  0.3225490152835846)
(X_270  0.43039217591285706)
(X_271  0.47745099663734436)
(X_272  0.4166666567325592)
(X_273  0.5284313559532166)
(X_274  0.42843136191368103)
(X_275  0.4362744987010956)
(X_276  0.3892156779766083)
(X_277  0.31470587849617004)
(X_278  0.20490197837352753)
(X_279  0.11862745881080627)
(X_280  0.4735294282436371)
(X_281  0.4735294282436371)
(X_282  0.385294109582901)
(X_283  0.4009803831577301)
(X_284  0.41274508833885193)
(X_285  0.520588219165802)
(X_286  0.520588219165802)
(X_287  0.5166666507720947)
(X_288  0.3735294044017792)
(X_289  0.42450979351997375)
(X_290  0.44019606709480286)
(X_291  0.385294109582901)
(X_292  0.31078431010246277)
(X_293  0.2911764681339264)
(X_294  0.32647058367729187)
(X_295  0.3656862676143646)
(X_296  0.5911765098571777)
(X_297  0.46764707565307617)
(X_298  0.42843136191368103)
(X_299  0.4892157018184662)
(X_300  0.457843154668808)
(X_301  0.45000001788139343)
(X_302  0.46568629145622253)
(X_303  0.3892156779766083)
(X_304  0.551960825920105)
(X_305  0.41274508833885193)
(X_306  0.36176469922065735)
(X_307  0.33039215207099915)
(X_308  0.5088235139846802)
(X_309  0.5009803771972656)
(X_310  0.39313724637031555)
(X_311  0.39313724637031555)
(X_312  0.3970588147640228)
(X_313  0.39313724637031555)
(X_314  0.3813725411891937)
(X_315  0.3696078360080719)
(X_316  0.34607842564582825)
(X_317  0.45000001788139343)
(X_318  0.4225490391254425)
(X_319  0.3598039448261261)
(X_320  0.3401961028575897)
(X_321  0.3029411733150482)
(X_322  0.41274508833885193)
(X_323  0.5911765098571777)
(X_324  0.5186274647712708)
(X_325  0.5656862854957581)
(X_326  0.5303921699523926)
(X_327  0.40882351994514465)
(X_328  0.4539215862751007)
(X_329  0.4852941334247589)
(X_330  0.37745097279548645)
(X_331  0.3186274468898773)
(X_332  0.4382353127002716)
(X_333  0.3499999940395355)
(X_334  0.3735294044017792)
(X_335  0.5009803771972656)
(X_336  0.40882351994514465)
(X_337  0.5009803771972656)
(X_338  0.4892157018184662)
(X_339  0.48137256503105164)
(X_340  0.4852941334247589)
(X_341  0.4892157018184662)
(X_342  0.49313727021217346)
(X_343  0.39313724637031555)
(X_344  0.5127450823783875)
(X_345  0.47745099663734436)
(X_346  0.3186274468898773)
(X_347  0.28333333134651184)
(X_348  0.31078431010246277)
(X_349  0.3735294044017792)
(X_350  0.42450979351997375)
(X_351  0.5401960611343384)
(X_352  0.4696078598499298)
(X_353  0.5166666507720947)
(X_354  0.5088235139846802)
(X_355  0.34607842564582825)
(X_356  0.4421568810939789)
(X_357  0.4892157018184662)
(X_358  0.4892157018184662)
(X_359  0.43431374430656433)
(X_360  0.39901962876319885)
(X_361  0.29901960492134094)
(X_362  0.3068627417087555)
(X_363  0.3186274468898773)
(X_364  0.22843138873577118)
(X_365  0.23235295712947845)
(X_366  0.23627452552318573)
(X_367  0.33627453446388245)
(X_368  0.3401961028575897)
(X_369  0.35196080803871155)
(X_370  0.2754901945590973)
(X_371  0.29509803652763367)
(X_372  0.4009803831577301)
(X_373  0.3696078360080719)
(X_374  0.34215685725212097)
(X_375  0.457843154668808)
(X_376  0.41274508833885193)
(X_377  0.42843136191368103)
(X_378  0.3656862676143646)
(X_379  0.28333333134651184)
(X_380  0.4068627655506134)
(X_381  0.35196080803871155)
(X_382  0.344117671251297)
(X_383  0.29901960492134094)
(X_384  0.32647058367729187)
(X_385  0.31470587849617004)
(X_386  0.33039215207099915)
(X_387  0.37745097279548645)
(X_388  0.4264706075191498)
(X_389  0.4264706075191498)
(X_390  0.43431374430656433)
(X_391  0.4382353127002716)
(X_392  0.24215686321258545)
(X_393  0.2539215683937073)
(X_394  0.2617647051811218)
(X_395  0.24607843160629272)
(X_396  0.22254902124404907)
(X_397  0.21470588445663452)
(X_398  0.1303921639919281)
(X_399  0.15000000596046448)
(X_400  0.26764705777168274)
(X_401  0.3480392396450043)
(X_402  0.344117671251297)
(X_403  0.387254923582077)
(X_404  0.3539215624332428)
(X_405  0.3656862676143646)
(X_406  0.27941176295280457)
(X_407  0.2813725471496582)
(X_408  0.2245098203420639)
(X_409  0.15000000596046448)
(X_410  0.2617647051811218)
(X_411  0.3637255132198334)
(X_412  0.4068627655506134)
(X_413  0.28333333134651184)
(X_414  0.4264706075191498)
(X_415  0.520588219165802)
(X_416  0.3578431308269501)
(X_417  0.3539215624332428)
(X_418  0.3382352888584137)
(X_419  0.41862747073173523)
(X_420  0.3578431308269501)
(X_421  0.3735294044017792)
(X_422  0.3735294044017792)
(X_423  0.33039215207099915)
(X_424  0.26764705777168274)
(X_425  0.22058825194835663)
(X_426  0.21274511516094208)
(X_427  0.2245098203420639)
(X_428  0.1931372582912445)
(X_429  0.16568627953529358)
(X_430  0.13823530077934265)
(X_431  0.15392157435417175)
(X_432  0.3088235557079315)
(X_433  0.3401961028575897)
(X_434  0.19705882668495178)
(X_435  0.1303921639919281)
(X_436  0.2813725471496582)
(X_437  0.2656862735748291)
(X_438  0.2813725471496582)
(X_439  0.3284313976764679)
(X_440  0.344117671251297)
(X_441  0.240196093916893)
(X_442  0.26764705777168274)
(X_443  0.31470587849617004)
(X_444  0.3382352888584137)
(X_445  0.3029411733150482)
(X_446  0.24411766231060028)
(X_447  0.28921568393707275)
(X_448  0.48137256503105164)
(X_449  0.46568629145622253)
(X_450  0.457843154668808)
(X_451  0.4696078598499298)
(X_452  0.49705883860588074)
(X_453  0.5127450823783875)
(X_454  0.5088235139846802)
(X_455  0.5009803771972656)
(X_456  0.4421568810939789)
(X_457  0.43431374430656433)
(X_458  0.41470590233802795)
(X_459  0.387254923582077)
(X_460  0.3715686500072479)
(X_461  0.344117671251297)
(X_462  0.29313725233078003)
(X_463  0.23823529481887817)
(X_464  0.10686275362968445)
(X_465  0.1460784375667572)
(X_466  0.29313725233078003)
(X_467  0.3245098292827606)
(X_468  0.344117671251297)
(X_469  0.3598039448261261)
(X_470  0.38333335518836975)
(X_471  0.4068627655506134)
(X_472  0.41862747073173523)
(X_473  0.46568629145622253)
(X_474  0.4852941334247589)
(X_475  0.4539215862751007)
(X_476  0.29901960492134094)
(X_477  0.27941176295280457)
(X_478  0.3598039448261261)
(X_479  0.35196080803871155)
(X_480  0.2598039209842682)
(X_481  0.2598039209842682)
(X_482  0.24803923070430756)
(X_483  0.23627452552318573)
(X_484  0.33235296607017517)
(X_485  0.33235296607017517)
(X_486  0.22058825194835663)
(X_487  0.20098040997982025)
(X_488  0.19705882668495178)
(X_489  0.18529412150382996)
(X_490  0.15000000596046448)
(X_491  0.10686275362968445)
(X_492  0.09509804844856262)
(X_493  0.12254902720451355)
(X_494  0.2617647051811218)
(X_495  0.2852941155433655)
(X_496  0.30098041892051697)
(X_497  0.31666669249534607)
(X_498  0.3401961028575897)
(X_499  0.2598039209842682)
(X_500  0.29509803652763367)
(X_501  0.34607842564582825)
(X_502  0.37745097279548645)
(X_503  0.36176469922065735)
(X_504  0.09117648005485535)
(X_505  0.0833333432674408)
(X_506  0.19117647409439087)
(X_507  0.2186274528503418)
(X_508  0.1617647111415863)
(X_509  0.19705882668495178)
(X_510  0.22058825194835663)
(X_511  0.2245098203420639)
(X_512  0.18921568989753723)
(X_513  0.18529412150382996)
(X_514  0.16568627953529358)
(X_515  0.14215686917304993)
(X_516  0.13431373238563538)
(X_517  0.12647059559822083)
(X_518  0.09509804844856262)
(X_519  0.05980392172932625)
(X_520  0.06372549384832382)
(X_521  0.0833333432674408)
(X_522  0.10686275362968445)
(X_523  0.11862745881080627)
(X_524  0.12647059559822083)
(X_525  0.13823530077934265)
(X_526  0.1617647111415863)
(X_527  0.18137255311012268)
(X_528  0.16960784792900085)
(X_529  0.22058825194835663)
(X_530  0.2598039209842682)
(X_531  0.3598039448261261)
(X_532  0.15980392694473267)
(X_533  0.1558823585510254)
(X_534  0.15196079015731812)
(X_535  0.16372549533843994)
(X_536  0.1872549057006836)
(X_537  0.114705890417099)
(X_538  0.1303921639919281)
(X_539  0.13431373238563538)
(X_540  0.15392157435417175)
(X_541  0.15392157435417175)
(X_542  0.2343137264251709)
(X_543  0.20686274766921997)
(X_544  0.19509804248809814)
(X_545  0.19117647409439087)
(X_546  0.1715686321258545)
(X_547  0.04411764815449715)
(X_548  0.136274516582489)
(X_549  0.14411765336990356)
(X_550  0.1558823585510254)
(X_551  0.05588235333561897)
(X_552  0.15980392694473267)
(X_553  0.16764706373214722)
(X_554  0.1872549057006836)
(X_555  0.0990196168422699)
(X_556  0.19901961088180542)
(X_557  0.13431373238563538)
(X_558  0.1617647111415863)
(X_559  0.2656862735748291)
(X_560  0.16764706373214722)
(X_561  0.05980392172932625)
(X_562  0.04411764815449715)
(X_563  0.04019607976078987)
(X_564  0.04019607976078987)
(X_565  0.14411765336990356)
(X_566  0.04411764815449715)
(X_567  0.04411764815449715)
(X_568  0.06372549384832382)
(X_569  0.07156863063573837)
(X_570  0.06372549384832382)
(X_571  0.0519607849419117)
(X_572  0.05588235333561897)
(X_573  0.0676470622420311)
(X_574  0.06372549384832382)
(X_575  0.0519607849419117)
(X_576  0.036274511367082596)
(X_577  0.036274511367082596)
(X_578  0.036274511367082596)
(X_579  0.03235294297337532)
(X_580  0.12843137979507446)
(X_581  0.136274516582489)
(X_582  0.14803922176361084)
(X_583  0.1558823585510254)
(X_584  0.1558823585510254)
(X_585  0.07156863063573837)
(X_586  0.07549020648002625)
(X_587  0.07156863063573837)
(X_588  0.11666666716337204)
(X_589  0.01666666939854622)
(X_590  0.020588237792253494)
(X_591  0.028431374579668045)
(X_592  0.036274511367082596)
(X_593  0.04803921654820442)
(X_594  0.1558823585510254)
(X_595  0.15980392694473267)
(X_596  0.13235294818878174)
(X_597  0.14411765336990356)
(X_598  0.04019607976078987)
(X_599  0.028431374579668045)
(X_600  0.02450980618596077)
(X_601  0.036274511367082596)
(X_602  0.036274511367082596)
(X_603  0.020588237792253494)
(X_604  0.14803922176361084)
(X_605  0.14411765336990356)
(X_606  0.1401960849761963)
(X_607  0.13235294818878174)
(X_608  0.13235294818878174)
(X_609  0.136274516582489)
(X_610  0.1401960849761963)
(X_611  0.04411764815449715)
(X_612  0.03235294297337532)
(X_613  0.03235294297337532)
(X_614  0.12843137979507446)
(X_615  0.12058823555707932)
(X_616  0.14803922176361084)
(X_617  0.15196079015731812)
(X_618  0.0519607849419117)
(X_619  0.04803921654820442)
(X_620  0.04019607976078987)
(X_621  0.13235294818878174)
(X_622  0.12843137979507446)
(X_623  0.12450980395078659)
(X_624  0.136274516582489)
(X_625  0.15196079015731812)
(X_626  0.15196079015731812)
(X_627  0.03235294297337532)
(X_628  0.02450980618596077)
(X_629  0.02450980618596077)
(X_630  0.12058823555707932)
(X_631  0.10490196198225021)
(X_632  0.14411765336990356)
(X_633  0.1401960849761963)
(X_634  0.136274516582489)
(X_635  0.03235294297337532)
(X_636  0.13235294818878174)
(X_637  0.136274516582489)
(X_638  0.13235294818878174)
(X_639  0.13235294818878174)
(X_640  0.1558823585510254)
(X_641  0.15196079015731812)
(X_642  0.15196079015731812)
(X_643  0.15980392694473267)
(X_644  0.11274509876966476)
(X_645  0.02450980618596077)
(X_646  0.036274511367082596)
(X_647  0.04411764815449715)
(X_648  0.04411764815449715)
(X_649  0.04019607976078987)
(X_650  0.1401960849761963)
(X_651  0.136274516582489)
(X_652  0.10098039358854294)
(X_653  0.02450980618596077)
(X_654  0.036274511367082596)
(X_655  0.028431374579668045)
(X_656  0.028431374579668045)
(X_657  0.1401960849761963)
(X_658  0.1401960849761963)
(X_659  0.028431374579668045)
(X_660  0.13235294818878174)
(X_661  0.12843137979507446)
(X_662  0.12450980395078659)
(X_663  0.02450980618596077)
(X_664  0.028431374579668045)
(X_665  0.02450980618596077)
(X_666  0.020588237792253494)
(X_667  0.01666666939854622)
(X_668  0.012745101936161518)
(X_669  0.008823529817163944)
(X_670  0.020588237792253494)
(X_671  0.04019607976078987)
(X_672  0.136274516582489)
(X_673  0.036274511367082596)
(X_674  0.03235294297337532)
(X_675  0.03235294297337532)
(X_676  0.13235294818878174)
(X_677  0.13235294818878174)
(X_678  0.13235294818878174)
(X_679  0.13235294818878174)
(X_680  0.12450980395078659)
(X_681  0.12450980395078659)
(X_682  0.12450980395078659)
(X_683  0.12450980395078659)
(X_684  0.12450980395078659)
(X_685  0.12450980395078659)
(X_686  0.02450980618596077)
(X_687  0.02450980618596077)
(X_688  0.12450980395078659)
(X_689  0.12450980395078659)
(X_690  0.12450980395078659)
(X_691  0.12450980395078659)
(X_692  0.12450980395078659)
(X_693  0.12450980395078659)
(X_694  0.02450980618596077)
(X_695  0.02450980618596077)
(X_696  0.13235294818878174)
(X_697  0.12843137979507446)
(X_698  0.12843137979507446)
(X_699  0.12450980395078659)
(X_700  0.12450980395078659)
(X_701  0.02450980618596077)
(X_702  0.02450980618596077)
(X_703  0.12450980395078659)
(X_704  0.02450980618596077)
(X_705  0.02450980618596077)
(X_706  0.02450980618596077)
(X_707  0.02450980618596077)
(X_708  0.020588237792253494)
(X_709  0.020588237792253494)
(X_710  0.020588237792253494)
(X_711  0.020588237792253494)
(X_712  0.12058823555707932)
(X_713  0.020588237792253494)
(X_714  0.020588237792253494)
(X_715  0.020588237792253494)
(X_716  0.020588237792253494)
(X_717  0.020588237792253494)
(X_718  0.020588237792253494)
(X_719  0.020588237792253494)
(X_720  0.020588237792253494)
(X_721  0.12058823555707932)
(X_722  0.020588237792253494)
(X_723  0.020588237792253494)
(X_724  0.12450980395078659)
(X_725  0.020588237792253494)
(X_726  0.12058823555707932)
(X_727  0.11666666716337204)
(X_728  0.11274509876966476)
(X_729  0.012745101936161518)
(X_730  0.012745101936161518)
(X_731  0.11274509876966476)
(X_732  0.11666666716337204)
(X_733  0.11666666716337204)
(X_734  0.11666666716337204)
(X_735  0.11666666716337204)
(X_736  0.11666666716337204)
(X_737  0.11666666716337204)
(X_738  0.01666666939854622)
(X_739  0.01666666939854622)
(X_740  0.11666666716337204)
(X_741  0.11666666716337204)
(X_742  0.11666666716337204)
(X_743  0.11666666716337204)
(X_744  0.01666666939854622)
(X_745  0.01666666939854622)
(X_746  0.01666666939854622)
(X_747  0.01666666939854622)
(X_748  0.01666666939854622)
(X_749  0.11666666716337204)
(X_750  0.11666666716337204)
(X_751  0.01666666939854622)
(X_752  0.11666666716337204)
(X_753  0.11274509876966476)
(X_754  0.10882353037595749)
(X_755  0.10882353037595749)
(X_756  0.10882353037595749)
(X_757  0.008823529817163944)
(X_758  0.008823529817163944)
(X_759  0.10882353037595749)
(X_760  0.012745101936161518)
(X_761  0.11274509876966476)
(X_762  0.11274509876966476)
(X_763  0.11274509876966476)
(X_764  0.012745101936161518)
(X_765  0.012745101936161518)
(X_766  0.012745101936161518)
(X_767  0.012745101936161518)
(X_768  0.012745101936161518)
(X_769  0.012745101936161518)
(X_770  0.012745101936161518)
(X_771  0.012745101936161518)
(X_772  0.012745101936161518)
(X_773  0.012745101936161518)
(X_774  0.012745101936161518)
(X_775  0.012745101936161518)
(X_776  0.012745101936161518)
(X_777  0.012745101936161518)
(X_778  0.012745101936161518)
(X_779  0.012745101936161518)
(X_780  0.012745101936161518)
(X_781  0.012745101936161518)
(X_782  0.008823529817163944)
(X_783  0.004901961423456669)
(Y_0 -33.78359603881836)
(Y_1 54.80501937866211)
(Y_2 -26.471939086914062)
(Y_3 6.271772861480713))