((X_0  0.136274516582489)
(X_1  0.04019607976078987)
(X_2  0.04411764815449715)
(X_3  0.04411764815449715)
(X_4  0.136274516582489)
(X_5  0.13235294818878174)
(X_6  0.12843137979507446)
(X_7  0.028431374579668045)
(X_8  0.15196079015731812)
(X_9  0.15196079015731812)
(X_10  0.15196079015731812)
(X_11  0.15196079015731812)
(X_12  0.14803922176361084)
(X_13  0.1401960849761963)
(X_14  0.136274516582489)
(X_15  0.13235294818878174)
(X_16  0.05588235333561897)
(X_17  0.04019607976078987)
(X_18  0.028431374579668045)
(X_19  0.03235294297337532)
(X_20  0.14411765336990356)
(X_21  0.15196079015731812)
(X_22  0.14803922176361084)
(X_23  0.04411764815449715)
(X_24  0.136274516582489)
(X_25  0.1401960849761963)
(X_26  0.04019607976078987)
(X_27  0.1401960849761963)
(X_28  0.14803922176361084)
(X_29  0.15196079015731812)
(X_30  0.0519607849419117)
(X_31  0.04411764815449715)
(X_32  0.04019607976078987)
(X_33  0.03235294297337532)
(X_34  0.03235294297337532)
(X_35  0.03235294297337532)
(X_36  0.05980392172932625)
(X_37  0.05588235333561897)
(X_38  0.0519607849419117)
(X_39  0.04411764815449715)
(X_40  0.04019607976078987)
(X_41  0.1401960849761963)
(X_42  0.1401960849761963)
(X_43  0.04019607976078987)
(X_44  0.14803922176361084)
(X_45  0.136274516582489)
(X_46  0.12843137979507446)
(X_47  0.028431374579668045)
(X_48  0.04019607976078987)
(X_49  0.04803921654820442)
(X_50  0.04411764815449715)
(X_51  0.04019607976078987)
(X_52  0.136274516582489)
(X_53  0.136274516582489)
(X_54  0.036274511367082596)
(X_55  0.136274516582489)
(X_56  0.14411765336990356)
(X_57  0.04019607976078987)
(X_58  0.036274511367082596)
(X_59  0.028431374579668045)
(X_60  0.02450980618596077)
(X_61  0.02450980618596077)
(X_62  0.02450980618596077)
(X_63  0.02450980618596077)
(X_64  0.14411765336990356)
(X_65  0.04019607976078987)
(X_66  0.03235294297337532)
(X_67  0.02450980618596077)
(X_68  0.020588237792253494)
(X_69  0.020588237792253494)
(X_70  0.02450980618596077)
(X_71  0.028431374579668045)
(X_72  0.0519607849419117)
(X_73  0.04803921654820442)
(X_74  0.04411764815449715)
(X_75  0.04411764815449715)
(X_76  0.15196079015731812)
(X_77  0.15196079015731812)
(X_78  0.14803922176361084)
(X_79  0.14411765336990356)
(X_80  0.14803922176361084)
(X_81  0.14803922176361084)
(X_82  0.04411764815449715)
(X_83  0.14411765336990356)
(X_84  0.14803922176361084)
(X_85  0.1401960849761963)
(X_86  0.13235294818878174)
(X_87  0.12843137979507446)
(X_88  0.13235294818878174)
(X_89  0.136274516582489)
(X_90  0.136274516582489)
(X_91  0.036274511367082596)
(X_92  0.12843137979507446)
(X_93  0.028431374579668045)
(X_94  0.02450980618596077)
(X_95  0.02450980618596077)
(X_96  0.020588237792253494)
(X_97  0.12058823555707932)
(X_98  0.12058823555707932)
(X_99  0.11666666716337204)
(X_100  0.12450980395078659)
(X_101  0.12450980395078659)
(X_102  0.12450980395078659)
(X_103  0.12450980395078659)
(X_104  0.02450980618596077)
(X_105  0.01666666939854622)
(X_106  0.008823529817163944)
(X_107  0.004901961423456669)
(X_108  0.020588237792253494)
(X_109  0.01666666939854622)
(X_110  0.01666666939854622)
(X_111  0.11274509876966476)
(X_112  0.04411764815449715)
(X_113  0.13235294818878174)
(X_114  0.12843137979507446)
(X_115  0.12843137979507446)
(X_116  0.1401960849761963)
(X_117  0.04411764815449715)
(X_118  0.04019607976078987)
(X_119  0.036274511367082596)
(X_120  0.028431374579668045)
(X_121  0.03235294297337532)
(X_122  0.036274511367082596)
(X_123  0.04019607976078987)
(X_124  0.1401960849761963)
(X_125  0.03235294297337532)
(X_126  0.02450980618596077)
(X_127  0.020588237792253494)
(X_128  0.13235294818878174)
(X_129  0.136274516582489)
(X_130  0.14411765336990356)
(X_131  0.1401960849761963)
(X_132  0.136274516582489)
(X_133  0.12450980395078659)
(X_134  0.01666666939854622)
(X_135  0.10882353037595749)
(X_136  0.13235294818878174)
(X_137  0.12843137979507446)
(X_138  0.12843137979507446)
(X_139  0.12450980395078659)
(X_140  0.12058823555707932)
(X_141  0.11274509876966476)
(X_142  0.10490196198225021)
(X_143  0.10882353037595749)
(X_144  0.12058823555707932)
(X_145  0.020588237792253494)
(X_146  0.008823529817163944)
(X_147  0.09313725680112839)
(X_148  0.11666666716337204)
(X_149  0.12058823555707932)
(X_150  0.12450980395078659)
(X_151  0.12843137979507446)
(X_152  0.12843137979507446)
(X_153  0.12450980395078659)
(X_154  0.12058823555707932)
(X_155  0.11666666716337204)
(X_156  0.008823529817163944)
(X_157  0.020588237792253494)
(X_158  0.136274516582489)
(X_159  0.14411765336990356)
(X_160  0.136274516582489)
(X_161  0.028431374579668045)
(X_162  0.020588237792253494)
(X_163  0.12058823555707932)
(X_164  0.036274511367082596)
(X_165  0.036274511367082596)
(X_166  0.03235294297337532)
(X_167  0.13235294818878174)
(X_168  0.10686275362968445)
(X_169  0.19509804248809814)
(X_170  0.1872549057006836)
(X_171  0.19117647409439087)
(X_172  0.19509804248809814)
(X_173  0.1872549057006836)
(X_174  0.05980392172932625)
(X_175  0.03235294297337532)
(X_176  0.136274516582489)
(X_177  0.03235294297337532)
(X_178  0.02450980618596077)
(X_179  0.12058823555707932)
(X_180  0.12058823555707932)
(X_181  0.12450980395078659)
(X_182  0.13235294818878174)
(X_183  0.1401960849761963)
(X_184  0.11666666716337204)
(X_185  0.1401960849761963)
(X_186  0.16764706373214722)
(X_187  0.18333333730697632)
(X_188  0.1872549057006836)
(X_189  0.0833333432674408)
(X_190  0.0833333432674408)
(X_191  0.1872549057006836)
(X_192  0.19117647409439087)
(X_193  0.19117647409439087)
(X_194  0.19117647409439087)
(X_195  0.09117648005485535)
(X_196  0.27156862616539)
(X_197  0.3598039448261261)
(X_198  0.35196080803871155)
(X_199  0.35196080803871155)
(X_200  0.3480392396450043)
(X_201  0.33235296607017517)
(X_202  0.29313725233078003)
(X_203  0.2617647051811218)
(X_204  0.08725491166114807)
(X_205  0.07156863063573837)
(X_206  0.0519607849419117)
(X_207  0.136274516582489)
(X_208  0.04019607976078987)
(X_209  0.0519607849419117)
(X_210  0.07549020648002625)
(X_211  0.08725491166114807)
(X_212  0.28921568393707275)
(X_213  0.31666669249534607)
(X_214  0.3558823764324188)
(X_215  0.3794117867946625)
(X_216  0.3911764919757843)
(X_217  0.3950980603694916)
(X_218  0.39901962876319885)
(X_219  0.4068627655506134)
(X_220  0.40294119715690613)
(X_221  0.3029411733150482)
(X_222  0.3029411733150482)
(X_223  0.40294119715690613)
(X_224  0.24803923070430756)
(X_225  0.24411766231060028)
(X_226  0.33235296607017517)
(X_227  0.3088235557079315)
(X_228  0.19705882668495178)
(X_229  0.18921568989753723)
(X_230  0.17352941632270813)
(X_231  0.15392157435417175)
(X_232  0.2656862735748291)
(X_233  0.28921568393707275)
(X_234  0.3127451241016388)
(X_235  0.2088235467672348)
(X_236  0.18921568989753723)
(X_237  0.19705882668495178)
(X_238  0.24803923070430756)
(X_239  0.3029411733150482)
(X_240  0.2088235467672348)
(X_241  0.3794117867946625)
(X_242  0.387254923582077)
(X_243  0.32058826088905334)
(X_244  0.2970588207244873)
(X_245  0.3598039448261261)
(X_246  0.3950980603694916)
(X_247  0.2754901945590973)
(X_248  0.29509803652763367)
(X_249  0.31470587849617004)
(X_250  0.3382352888584137)
(X_251  0.45000001788139343)
(X_252  0.21666668355464935)
(X_253  0.19705882668495178)
(X_254  0.18529412150382996)
(X_255  0.28921568393707275)
(X_256  0.30490198731422424)
(X_257  0.33627453446388245)
(X_258  0.36764708161354065)
(X_259  0.3911764919757843)
(X_260  0.39313724637031555)
(X_261  0.42843136191368103)
(X_262  0.5598039627075195)
(X_263  0.5362744927406311)
(X_264  0.4539215862751007)
(X_265  0.35196080803871155)
(X_266  0.2774509787559509)
(X_267  0.1460784375667572)
(X_268  0.18529412150382996)
(X_269  0.30098041892051697)
(X_270  0.31666669249534607)
(X_271  0.22058825194835663)
(X_272  0.22058825194835663)
(X_273  0.22843138873577118)
(X_274  0.23627452552318573)
(X_275  0.24411766231060028)
(X_276  0.39901962876319885)
(X_277  0.29901960492134094)
(X_278  0.29509803652763367)
(X_279  0.28333333134651184)
(X_280  0.4009803831577301)
(X_281  0.4539215862751007)
(X_282  0.31470587849617004)
(X_283  0.31470587849617004)
(X_284  0.32647058367729187)
(X_285  0.4539215862751007)
(X_286  0.5088235139846802)
(X_287  0.5715686678886414)
(X_288  0.4990196228027344)
(X_289  0.5186274647712708)
(X_290  0.5264706015586853)
(X_291  0.4990196228027344)
(X_292  0.4323529303073883)
(X_293  0.3578431308269501)
(X_294  0.29509803652763367)
(X_295  0.2598039209842682)
(X_296  0.32647058367729187)
(X_297  0.25196078419685364)
(X_298  0.31666669249534607)
(X_299  0.33627453446388245)
(X_300  0.33235296607017517)
(X_301  0.30490198731422424)
(X_302  0.33235296607017517)
(X_303  0.29509803652763367)
(X_304  0.2598039209842682)
(X_305  0.2598039209842682)
(X_306  0.26372548937797546)
(X_307  0.2558823525905609)
(X_308  0.5872549414634705)
(X_309  0.5245097875595093)
(X_310  0.3696078360080719)
(X_311  0.3539215624332428)
(X_312  0.3343137204647064)
(X_313  0.3225490152835846)
(X_314  0.3656862676143646)
(X_315  0.42450979351997375)
(X_316  0.3970588147640228)
(X_317  0.4009803831577301)
(X_318  0.49705883860588074)
(X_319  0.4852941334247589)
(X_320  0.4852941334247589)
(X_321  0.4009803831577301)
(X_322  0.4166666567325592)
(X_323  0.4166666567325592)
(X_324  0.4205882251262665)
(X_325  0.3539215624332428)
(X_326  0.31470587849617004)
(X_327  0.43039217591285706)
(X_328  0.41862747073173523)
(X_329  0.387254923582077)
(X_330  0.3186274468898773)
(X_331  0.3892156779766083)
(X_332  0.5245097875595093)
(X_333  0.5323529243469238)
(X_334  0.4480392038822174)
(X_335  0.45588237047195435)
(X_336  0.3970588147640228)
(X_337  0.457843154668808)
(X_338  0.4225490391254425)
(X_339  0.4068627655506134)
(X_340  0.3754902184009552)
(X_341  0.344117671251297)
(X_342  0.2598039209842682)
(X_343  0.29901960492134094)
(X_344  0.39901962876319885)
(X_345  0.4107843339443207)
(X_346  0.31470587849617004)
(X_347  0.3029411733150482)
(X_348  0.3068627417087555)
(X_349  0.32647058367729187)
(X_350  0.32647058367729187)
(X_351  0.4107843339443207)
(X_352  0.4068627655506134)
(X_353  0.4421568810939789)
(X_354  0.4892157018184662)
(X_355  0.5127450823783875)
(X_356  0.5009803771972656)
(X_357  0.48137256503105164)
(X_358  0.48137256503105164)
(X_359  0.49313727021217346)
(X_360  0.5009803771972656)
(X_361  0.49313727021217346)
(X_362  0.3813725411891937)
(X_363  0.3696078360080719)
(X_364  0.3343137204647064)
(X_365  0.33039215207099915)
(X_366  0.3186274468898773)
(X_367  0.3911764919757843)
(X_368  0.3558823764324188)
(X_369  0.33235296607017517)
(X_370  0.22843138873577118)
(X_371  0.23235295712947845)
(X_372  0.2598039209842682)
(X_373  0.2754901945590973)
(X_374  0.2598039209842682)
(X_375  0.32058826088905334)
(X_376  0.3088235557079315)
(X_377  0.22058825194835663)
(X_378  0.21666668355464935)
(X_379  0.2970588207244873)
(X_380  0.3127451241016388)
(X_381  0.38333335518836975)
(X_382  0.43039217591285706)
(X_383  0.31470587849617004)
(X_384  0.29509803652763367)
(X_385  0.3029411733150482)
(X_386  0.4068627655506134)
(X_387  0.39901962876319885)
(X_388  0.41862747073173523)
(X_389  0.3911764919757843)
(X_390  0.35196080803871155)
(X_391  0.3245098292827606)
(X_392  0.33235296607017517)
(X_393  0.3637255132198334)
(X_394  0.3598039448261261)
(X_395  0.3088235557079315)
(X_396  0.27352941036224365)
(X_397  0.2696078419685364)
(X_398  0.2656862735748291)
(X_399  0.24607843160629272)
(X_400  0.29313725233078003)
(X_401  0.3088235557079315)
(X_402  0.28921568393707275)
(X_403  0.23823529481887817)
(X_404  0.2186274528503418)
(X_405  0.15000000596046448)
(X_406  0.17352941632270813)
(X_407  0.16568627953529358)
(X_408  0.18529412150382996)
(X_409  0.20490197837352753)
(X_410  0.19705882668495178)
(X_411  0.25784313678741455)
(X_412  0.23823529481887817)
(X_413  0.2539215683937073)
(X_414  0.27352941036224365)
(X_415  0.2813725471496582)
(X_416  0.17352941632270813)
(X_417  0.15392157435417175)
(X_418  0.13431373238563538)
(X_419  0.12647059559822083)
(X_420  0.13431373238563538)
(X_421  0.18529412150382996)
(X_422  0.18529412150382996)
(X_423  0.12254902720451355)
(X_424  0.09509804844856262)
(X_425  0.1303921639919281)
(X_426  0.13823530077934265)
(X_427  0.21078431606292725)
(X_428  0.114705890417099)
(X_429  0.15784314274787903)
(X_430  0.16568627953529358)
(X_431  0.12647059559822083)
(X_432  0.10294118523597717)
(X_433  0.21470588445663452)
(X_434  0.21078431606292725)
(X_435  0.08725491166114807)
(X_436  0.21470588445663452)
(X_437  0.20686274766921997)
(X_438  0.20686274766921997)
(X_439  0.21470588445663452)
(X_440  0.21078431606292725)
(X_441  0.2029411792755127)
(X_442  0.0990196168422699)
(X_443  0.0990196168422699)
(X_444  0.09509804844856262)
(X_445  0.09509804844856262)
(X_446  0.10294118523597717)
(X_447  0.2186274528503418)
(X_448  0.2186274528503418)
(X_449  0.1872549057006836)
(X_450  0.17941176891326904)
(X_451  0.2029411792755127)
(X_452  0.0990196168422699)
(X_453  0.06372549384832382)
(X_454  0.15980392694473267)
(X_455  0.1872549057006836)
(X_456  0.1558823585510254)
(X_457  0.16372549533843994)
(X_458  0.16764706373214722)
(X_459  0.17549020051956177)
(X_460  0.1715686321258545)
(X_461  0.16372549533843994)
(X_462  0.1558823585510254)
(X_463  0.14803922176361084)
(X_464  0.06372549384832382)
(X_465  0.06372549384832382)
(X_466  0.16372549533843994)
(X_467  0.16372549533843994)
(X_468  0.16372549533843994)
(X_469  0.16372549533843994)
(X_470  0.16372549533843994)
(X_471  0.16372549533843994)
(X_472  0.15980392694473267)
(X_473  0.15980392694473267)
(X_474  0.15980392694473267)
(X_475  0.15980392694473267)
(X_476  0.08725491166114807)
(X_477  0.05980392172932625)
(X_478  0.1558823585510254)
(X_479  0.17941176891326904)
(X_480  0.07549020648002625)
(X_481  0.04411764815449715)
(X_482  0.04019607976078987)
(X_483  0.06372549384832382)
(X_484  0.1401960849761963)
(X_485  0.1401960849761963)
(X_486  0.14411765336990356)
(X_487  0.04803921654820442)
(X_488  0.04411764815449715)
(X_489  0.04019607976078987)
(X_490  0.036274511367082596)
(X_491  0.03235294297337532)
(X_492  0.03235294297337532)
(X_493  0.03235294297337532)
(X_494  0.03235294297337532)
(X_495  0.13235294818878174)
(X_496  0.13235294818878174)
(X_497  0.13235294818878174)
(X_498  0.13235294818878174)
(X_499  0.13235294818878174)
(X_500  0.1401960849761963)
(X_501  0.04019607976078987)
(X_502  0.04019607976078987)
(X_503  0.04019607976078987)
(X_504  0.14803922176361084)
(X_505  0.12450980395078659)
(X_506  0.12450980395078659)
(X_507  0.04411764815449715)
(X_508  0.04411764815449715)
(X_509  0.020588237792253494)
(X_510  0.01666666939854622)
(X_511  0.1401960849761963)
(X_512  0.01666666939854622)
(X_513  0.01666666939854622)
(X_514  0.11666666716337204)
(X_515  0.01666666939854622)
(X_516  0.012745101936161518)
(X_517  0.012745101936161518)
(X_518  0.008823529817163944)
(X_519  0.008823529817163944)
(X_520  0.004901961423456669)
(X_521  0.004901961423456669)
(X_522  0.004901961423456669)
(X_523  0.004901961423456669)
(X_524  0.004901961423456669)
(X_525  0.004901961423456669)
(X_526  0.10490196198225021)
(X_527  0.10490196198225021)
(X_528  0.01666666939854622)
(X_529  0.01666666939854622)
(X_530  0.01666666939854622)
(X_531  0.01666666939854622)
(X_532  0.12058823555707932)
(X_533  0.10490196198225021)
(X_534  0.10490196198225021)
(X_535  0.12058823555707932)
(X_536  0.020588237792253494)
(X_537  0.004901961423456669)
(X_538  0.008823529817163944)
(X_539  0.12058823555707932)
(X_540  0.008823529817163944)
(X_541  0.10490196198225021)
(X_542  0.10098039358854294)
(X_543  -0.0029411755967885256)
(X_544  -0.0029411755967885256)
(X_545  -0.0029411755967885256)
(X_546  -0.0029411755967885256)
(X_547  0.0009803927969187498)
(X_548  0.10098039358854294)
(X_549  0.10098039358854294)
(X_550  0.10098039358854294)
(X_551  0.10098039358854294)
(X_552  0.10098039358854294)
(X_553  0.10098039358854294)
(X_554  0.10098039358854294)
(X_555  0.0009803927969187498)
(X_556  0.10490196198225021)
(X_557  0.004901961423456669)
(X_558  0.004901961423456669)
(X_559  0.10490196198225021)
(X_560  0.10882353037595749)
(X_561  0.0009803927969187498)
(X_562  0.10098039358854294)
(X_563  0.11274509876966476)
(X_564  0.11274509876966476)
(X_565  0.10490196198225021)
(X_566  0.008823529817163944)
(X_567  0.01666666939854622)
(X_568  0.004901961423456669)
(X_569  0.10490196198225021)
(X_570  0.10098039358854294)
(X_571  -0.0029411755967885256)
(X_572  -0.006862743757665157)
(X_573  -0.0029411755967885256)
(X_574  -0.0029411755967885256)
(X_575  -0.0029411755967885256)
(X_576  0.0009803927969187498)
(X_577  0.0009803927969187498)
(X_578  0.0009803927969187498)
(X_579  0.10098039358854294)
(X_580  0.10098039358854294)
(X_581  0.10098039358854294)
(X_582  0.10098039358854294)
(X_583  0.10098039358854294)
(X_584  0.10490196198225021)
(X_585  0.004901961423456669)
(X_586  0.004901961423456669)
(X_587  0.004901961423456669)
(X_588  0.004901961423456669)
(X_589  0.004901961423456669)
(X_590  0.004901961423456669)
(X_591  0.004901961423456669)
(X_592  0.004901961423456669)
(X_593  0.004901961423456669)
(X_594  0.10490196198225021)
(X_595  0.10882353037595749)
(X_596  0.10490196198225021)
(X_597  0.004901961423456669)
(X_598  0.004901961423456669)
(X_599  0.0009803927969187498)
(X_600  0.0009803927969187498)
(X_601  -0.0029411755967885256)
(X_602  -0.0029411755967885256)
(X_603  -0.0029411755967885256)
(X_604  0.09313725680112839)
(X_605  0.09313725680112839)
(X_606  0.09313725680112839)
(X_607  0.09313725680112839)
(X_608  0.09313725680112839)
(X_609  0.09313725680112839)
(X_610  0.09313725680112839)
(X_611  -0.006862743757665157)
(X_612  0.0009803927969187498)
(X_613  0.0009803927969187498)
(X_614  0.0009803927969187498)
(X_615  0.10098039358854294)
(X_616  0.09705882519483566)
(X_617  0.0009803927969187498)
(X_618  0.10098039358854294)
(X_619  0.09705882519483566)
(X_620  0.09705882519483566)
(X_621  0.09705882519483566)
(X_622  -0.0029411755967885256)
(X_623  0.09313725680112839)
(X_624  0.09313725680112839)
(X_625  0.09705882519483566)
(X_626  0.10098039358854294)
(X_627  0.10098039358854294)
(X_628  0.0009803927969187498)
(X_629  -0.0029411755967885256)
(X_630  0.08921568840742111)
(X_631  0.08529412001371384)
(X_632  -0.010784312151372433)
(X_633  -0.010784312151372433)
(X_634  -0.010784312151372433)
(X_635  -0.010784312151372433)
(X_636  0.08921568840742111)
(X_637  0.08921568840742111)
(X_638  0.08921568840742111)
(X_639  0.08921568840742111)
(X_640  0.09313725680112839)
(X_641  0.09313725680112839)
(X_642  0.09313725680112839)
(X_643  0.09313725680112839)
(X_644  -0.010784312151372433)
(X_645  -0.0029411755967885256)
(X_646  -0.006862743757665157)
(X_647  0.08529412001371384)
(X_648  0.08529412001371384)
(X_649  0.08921568840742111)
(X_650  -0.010784312151372433)
(X_651  -0.018627449870109558)
(X_652  -0.014705880545079708)
(X_653  -0.010784312151372433)
(X_654  -0.0029411755967885256)
(X_655  0.0009803927969187498)
(X_656  -0.0029411755967885256)
(X_657  -0.006862743757665157)
(X_658  -0.018627449870109558)
(X_659  -0.022549020126461983)
(X_660  0.08921568840742111)
(X_661  0.08921568840742111)
(X_662  0.08921568840742111)
(X_663  0.08921568840742111)
(X_664  -0.010784312151372433)
(X_665  -0.010784312151372433)
(X_666  -0.010784312151372433)
(X_667  -0.010784312151372433)
(X_668  -0.014705880545079708)
(X_669  -0.014705880545079708)
(X_670  -0.014705880545079708)
(X_671  -0.014705880545079708)
(X_672  0.08529412001371384)
(X_673  -0.018627449870109558)
(X_674  -0.022549020126461983)
(X_675  -0.018627449870109558)
(X_676  -0.010784312151372433)
(X_677  0.08921568840742111)
(X_678  0.08921568840742111)
(X_679  0.08529412001371384)
(X_680  -0.010784312151372433)
(X_681  0.08529412001371384)
(X_682  0.08137255162000656)
(X_683  0.08529412001371384)
(X_684  0.09313725680112839)
(X_685  0.10098039358854294)
(X_686  0.0009803927969187498)
(X_687  0.0009803927969187498)
(X_688  0.08529412001371384)
(X_689  0.09313725680112839)
(X_690  -0.0029411755967885256)
(X_691  0.09705882519483566)
(X_692  0.08921568840742111)
(X_693  -0.014705880545079708)
(X_694  -0.014705880545079708)
(X_695  -0.010784312151372433)
(X_696  -0.0029411755967885256)
(X_697  0.10098039358854294)
(X_698  0.10490196198225021)
(X_699  0.10098039358854294)
(X_700  0.10490196198225021)
(X_701  0.0009803927969187498)
(X_702  -0.0029411755967885256)
(X_703  -0.0029411755967885256)
(X_704  -0.0029411755967885256)
(X_705  -0.006862743757665157)
(X_706  -0.010784312151372433)
(X_707  -0.014705880545079708)
(X_708  0.0009803927969187498)
(X_709  -0.0029411755967885256)
(X_710  -0.010784312151372433)
(X_711  0.08529412001371384)
(X_712  0.08137255162000656)
(X_713  0.08137255162000656)
(X_714  -0.018627449870109558)
(X_715  -0.022549020126461983)
(X_716  0.08529412001371384)
(X_717  -0.006862743757665157)
(X_718  0.0009803927969187498)
(X_719  0.0009803927969187498)
(X_720  -0.006862743757665157)
(X_721  -0.010784312151372433)
(X_722  -0.010784312151372433)
(X_723  0.09313725680112839)
(X_724  0.06960784643888474)
(X_725  0.07745098322629929)
(X_726  0.08137255162000656)
(X_727  0.08137255162000656)
(X_728  0.06960784643888474)
(X_729  -0.026470588520169258)
(X_730  0.07352941483259201)
(X_731  0.07745098322629929)
(X_732  0.08137255162000656)
(X_733  0.08137255162000656)
(X_734  0.08529412001371384)
(X_735  0.08529412001371384)
(X_736  0.061764705926179886)
(X_737  0.061764705926179886)
(X_738  0.06568627804517746)
(X_739  0.06568627804517746)
(X_740  0.07352941483259201)
(X_741  0.07745098322629929)
(X_742  0.08529412001371384)
(X_743  0.08921568840742111)
(X_744  0.05000000074505806)
(X_745  0.061764705926179886)
(X_746  -0.022549020126461983)
(X_747  -0.010784312151372433)
(X_748  0.09313725680112839)
(X_749  0.09705882519483566)
(X_750  0.008823529817163944)
(X_751  0.01666666939854622)
(X_752  0.12058823555707932)
(X_753  0.12843137979507446)
(X_754  0.1401960849761963)
(X_755  0.1401960849761963)
(X_756  0.19509804248809814)
(X_757  0.10294118523597717)
(X_758  0.12254902720451355)
(X_759  0.13823530077934265)
(X_760  0.15392157435417175)
(X_761  0.2696078419685364)
(X_762  0.2852941155433655)
(X_763  0.2970588207244873)
(X_764  0.36764708161354065)
(X_765  0.38333335518836975)
(X_766  0.3029411733150482)
(X_767  0.32647058367729187)
(X_768  0.3539215624332428)
(X_769  0.3813725411891937)
(X_770  0.40882351994514465)
(X_771  0.42450979351997375)
(X_772  0.48725491762161255)
(X_773  0.5068627595901489)
(X_774  0.5343137383460999)
(X_775  0.5578431487083435)
(X_776  0.5813725590705872)
(X_777  0.6009804010391235)
(X_778  0.6245098114013672)
(X_779  0.636274516582489)
(X_780  0.679411768913269)
(X_781  0.6911764740943909)
(X_782  0.7029411792755127)
(X_783  0.7107843160629272)
(Y_0 -22.51531219482422)
(Y_1 30.338459014892578)
(Y_2 -18.166627883911133)
(Y_3 13.092519760131836))