((X_0  0.47745099663734436)
(X_1  0.3656862676143646)
(X_2  0.2872548997402191)
(X_3  0.2539215683937073)
(X_4  0.16764706373214722)
(X_5  0.1715686321258545)
(X_6  0.19901961088180542)
(X_7  0.10686275362968445)
(X_8  0.1872549057006836)
(X_9  0.1715686321258545)
(X_10  0.15980392694473267)
(X_11  0.05588235333561897)
(X_12  0.05980392172932625)
(X_13  0.15980392694473267)
(X_14  0.14803922176361084)
(X_15  0.136274516582489)
(X_16  0.04411764815449715)
(X_17  0.04019607976078987)
(X_18  0.04019607976078987)
(X_19  0.04019607976078987)
(X_20  0.1401960849761963)
(X_21  0.14411765336990356)
(X_22  0.0519607849419117)
(X_23  0.05588235333561897)
(X_24  0.15196079015731812)
(X_25  0.1558823585510254)
(X_26  0.15980392694473267)
(X_27  0.16372549533843994)
(X_28  0.22647058963775635)
(X_29  0.2539215683937073)
(X_30  0.13823530077934265)
(X_31  0.07549020648002625)
(X_32  0.03235294297337532)
(X_33  0.04803921654820442)
(X_34  0.06372549384832382)
(X_35  0.15980392694473267)
(X_36  0.0833333432674408)
(X_37  0.07156863063573837)
(X_38  0.05980392172932625)
(X_39  0.05980392172932625)
(X_40  0.0676470622420311)
(X_41  0.0676470622420311)
(X_42  0.06372549384832382)
(X_43  0.05588235333561897)
(X_44  0.13235294818878174)
(X_45  0.136274516582489)
(X_46  0.04019607976078987)
(X_47  0.04411764815449715)
(X_48  0.04411764815449715)
(X_49  0.04411764815449715)
(X_50  0.04411764815449715)
(X_51  0.04411764815449715)
(X_52  0.136274516582489)
(X_53  0.136274516582489)
(X_54  0.1401960849761963)
(X_55  0.1401960849761963)
(X_56  0.17941176891326904)
(X_57  0.11862745881080627)
(X_58  0.1303921639919281)
(X_59  0.0990196168422699)
(X_60  0.07549020648002625)
(X_61  0.0833333432674408)
(X_62  0.08725491166114807)
(X_63  0.07941177487373352)
(X_64  0.1558823585510254)
(X_65  0.04803921654820442)
(X_66  0.04411764815449715)
(X_67  0.04411764815449715)
(X_68  0.15196079015731812)
(X_69  0.05588235333561897)
(X_70  0.0519607849419117)
(X_71  0.0519607849419117)
(X_72  0.05588235333561897)
(X_73  0.05980392172932625)
(X_74  0.0676470622420311)
(X_75  0.1715686321258545)
(X_76  0.17549020051956177)
(X_77  0.1715686321258545)
(X_78  0.16764706373214722)
(X_79  0.16372549533843994)
(X_80  0.15196079015731812)
(X_81  0.15196079015731812)
(X_82  0.14803922176361084)
(X_83  0.14803922176361084)
(X_84  0.20686274766921997)
(X_85  0.22647058963775635)
(X_86  0.2186274528503418)
(X_87  0.17549020051956177)
(X_88  0.14803922176361084)
(X_89  0.15196079015731812)
(X_90  0.05980392172932625)
(X_91  0.05588235333561897)
(X_92  0.04803921654820442)
(X_93  0.04411764815449715)
(X_94  0.04019607976078987)
(X_95  0.04019607976078987)
(X_96  0.1401960849761963)
(X_97  0.14411765336990356)
(X_98  0.14411765336990356)
(X_99  0.14411765336990356)
(X_100  0.14411765336990356)
(X_101  0.14411765336990356)
(X_102  0.14411765336990356)
(X_103  0.14411765336990356)
(X_104  0.04411764815449715)
(X_105  0.04411764815449715)
(X_106  0.04411764815449715)
(X_107  0.04411764815449715)
(X_108  0.05980392172932625)
(X_109  0.05980392172932625)
(X_110  0.05588235333561897)
(X_111  0.1558823585510254)
(X_112  0.07549020648002625)
(X_113  0.18333333730697632)
(X_114  0.1715686321258545)
(X_115  0.14411765336990356)
(X_116  0.028431374579668045)
(X_117  0.03235294297337532)
(X_118  0.04803921654820442)
(X_119  0.0519607849419117)
(X_120  0.0676470622420311)
(X_121  0.0676470622420311)
(X_122  0.06372549384832382)
(X_123  0.15980392694473267)
(X_124  0.1558823585510254)
(X_125  0.0519607849419117)
(X_126  0.05588235333561897)
(X_127  0.05588235333561897)
(X_128  0.15980392694473267)
(X_129  0.1558823585510254)
(X_130  0.14803922176361084)
(X_131  0.14411765336990356)
(X_132  0.14411765336990356)
(X_133  0.14803922176361084)
(X_134  0.0519607849419117)
(X_135  0.15980392694473267)
(X_136  0.136274516582489)
(X_137  0.036274511367082596)
(X_138  0.036274511367082596)
(X_139  0.1401960849761963)
(X_140  0.16764706373214722)
(X_141  0.17549020051956177)
(X_142  0.18333333730697632)
(X_143  0.17941176891326904)
(X_144  0.07156863063573837)
(X_145  0.06372549384832382)
(X_146  0.06372549384832382)
(X_147  0.15980392694473267)
(X_148  0.15980392694473267)
(X_149  0.16372549533843994)
(X_150  0.16372549533843994)
(X_151  0.1558823585510254)
(X_152  0.14411765336990356)
(X_153  0.1401960849761963)
(X_154  0.14411765336990356)
(X_155  0.15196079015731812)
(X_156  0.05588235333561897)
(X_157  0.0519607849419117)
(X_158  0.14803922176361084)
(X_159  0.14411765336990356)
(X_160  0.1401960849761963)
(X_161  0.14411765336990356)
(X_162  0.14803922176361084)
(X_163  0.15196079015731812)
(X_164  0.03235294297337532)
(X_165  0.03235294297337532)
(X_166  0.036274511367082596)
(X_167  0.136274516582489)
(X_168  0.0519607849419117)
(X_169  0.15196079015731812)
(X_170  0.05588235333561897)
(X_171  0.15980392694473267)
(X_172  0.14803922176361084)
(X_173  0.136274516582489)
(X_174  0.12450980395078659)
(X_175  0.02450980618596077)
(X_176  0.136274516582489)
(X_177  0.1401960849761963)
(X_178  0.14411765336990356)
(X_179  0.1401960849761963)
(X_180  0.12843137979507446)
(X_181  0.12843137979507446)
(X_182  0.036274511367082596)
(X_183  0.04803921654820442)
(X_184  0.1401960849761963)
(X_185  0.14803922176361084)
(X_186  0.15196079015731812)
(X_187  0.1558823585510254)
(X_188  0.1558823585510254)
(X_189  0.04803921654820442)
(X_190  0.036274511367082596)
(X_191  0.13235294818878174)
(X_192  0.15196079015731812)
(X_193  0.15196079015731812)
(X_194  0.15196079015731812)
(X_195  0.15196079015731812)
(X_196  0.05588235333561897)
(X_197  0.14411765336990356)
(X_198  0.036274511367082596)
(X_199  0.036274511367082596)
(X_200  0.03235294297337532)
(X_201  0.13235294818878174)
(X_202  0.14411765336990356)
(X_203  0.15980392694473267)
(X_204  0.03235294297337532)
(X_205  0.1401960849761963)
(X_206  0.14803922176361084)
(X_207  0.14411765336990356)
(X_208  0.036274511367082596)
(X_209  0.04019607976078987)
(X_210  0.0519607849419117)
(X_211  0.06372549384832382)
(X_212  0.25)
(X_213  0.2617647051811218)
(X_214  0.18137255311012268)
(X_215  0.29313725233078003)
(X_216  0.29313725233078003)
(X_217  0.27352941036224365)
(X_218  0.2539215683937073)
(X_219  0.23823529481887817)
(X_220  0.15980392694473267)
(X_221  0.05980392172932625)
(X_222  0.05588235333561897)
(X_223  0.15196079015731812)
(X_224  0.03235294297337532)
(X_225  0.008823529817163944)
(X_226  0.028431374579668045)
(X_227  0.07549020648002625)
(X_228  0.08725491166114807)
(X_229  0.16764706373214722)
(X_230  0.07941177487373352)
(X_231  0.12254902720451355)
(X_232  0.23039215803146362)
(X_233  0.18137255311012268)
(X_234  0.24411766231060028)
(X_235  0.24411766231060028)
(X_236  0.2245098203420639)
(X_237  0.28333333134651184)
(X_238  0.34607842564582825)
(X_239  0.33039215207099915)
(X_240  0.31470587849617004)
(X_241  0.2754901945590973)
(X_242  0.33235296607017517)
(X_243  0.31666669249534607)
(X_244  0.3245098292827606)
(X_245  0.35196080803871155)
(X_246  0.40294119715690613)
(X_247  0.45000001788139343)
(X_248  0.2872548997402191)
(X_249  0.2558823525905609)
(X_250  0.21274511516094208)
(X_251  0.2774509787559509)
(X_252  0.11862745881080627)
(X_253  0.1303921639919281)
(X_254  0.1617647111415863)
(X_255  0.3245098292827606)
(X_256  0.387254923582077)
(X_257  0.4382353127002716)
(X_258  0.4696078598499298)
(X_259  0.4852941334247589)
(X_260  0.4598039388656616)
(X_261  0.40882351994514465)
(X_262  0.3892156779766083)
(X_263  0.385294109582901)
(X_264  0.3696078360080719)
(X_265  0.46176472306251526)
(X_266  0.40294119715690613)
(X_267  0.2970588207244873)
(X_268  0.3911764919757843)
(X_269  0.3715686500072479)
(X_270  0.3598039448261261)
(X_271  0.36764708161354065)
(X_272  0.36764708161354065)
(X_273  0.3558823764324188)
(X_274  0.24411766231060028)
(X_275  0.3480392396450043)
(X_276  0.387254923582077)
(X_277  0.2872548997402191)
(X_278  0.28333333134651184)
(X_279  0.2911764681339264)
(X_280  0.551960825920105)
(X_281  0.551960825920105)
(X_282  0.5323529243469238)
(X_283  0.41274508833885193)
(X_284  0.4205882251262665)
(X_285  0.5323529243469238)
(X_286  0.5166666507720947)
(X_287  0.47745099663734436)
(X_288  0.29901960492134094)
(X_289  0.29509803652763367)
(X_290  0.34607842564582825)
(X_291  0.3735294044017792)
(X_292  0.3225490152835846)
(X_293  0.2754901945590973)
(X_294  0.25196078419685364)
(X_295  0.2245098203420639)
(X_296  0.3794117867946625)
(X_297  0.26764705777168274)
(X_298  0.2754901945590973)
(X_299  0.4068627655506134)
(X_300  0.4225490391254425)
(X_301  0.39901962876319885)
(X_302  0.3637255132198334)
(X_303  0.24411766231060028)
(X_304  0.1931372582912445)
(X_305  0.20098040997982025)
(X_306  0.21274511516094208)
(X_307  0.22843138873577118)
(X_308  0.44607844948768616)
(X_309  0.4421568810939789)
(X_310  0.4225490391254425)
(X_311  0.29509803652763367)
(X_312  0.2754901945590973)
(X_313  0.26764705777168274)
(X_314  0.2558823525905609)
(X_315  0.240196093916893)
(X_316  0.42450979351997375)
(X_317  0.5323529243469238)
(X_318  0.5872549414634705)
(X_319  0.5754902362823486)
(X_320  0.43039217591285706)
(X_321  0.21666668355464935)
(X_322  0.22058825194835663)
(X_323  0.2598039209842682)
(X_324  0.3578431308269501)
(X_325  0.3186274468898773)
(X_326  0.2911764681339264)
(X_327  0.4107843339443207)
(X_328  0.43431374430656433)
(X_329  0.4382353127002716)
(X_330  0.32647058367729187)
(X_331  0.3225490152835846)
(X_332  0.2558823525905609)
(X_333  0.23627452552318573)
(X_334  0.21274511516094208)
(X_335  0.20098040997982025)
(X_336  0.31078431010246277)
(X_337  0.4264706075191498)
(X_338  0.44607844948768616)
(X_339  0.46176472306251526)
(X_340  0.457843154668808)
(X_341  0.46568629145622253)
(X_342  0.5127450823783875)
(X_343  0.4637255072593689)
(X_344  0.5480391979217529)
(X_345  0.4696078598499298)
(X_346  0.47745099663734436)
(X_347  0.4362744987010956)
(X_348  0.4323529303073883)
(X_349  0.4166666567325592)
(X_350  0.42843136191368103)
(X_351  0.5401960611343384)
(X_352  0.5284313559532166)
(X_353  0.46568629145622253)
(X_354  0.4068627655506134)
(X_355  0.3950980603694916)
(X_356  0.4107843339443207)
(X_357  0.4225490391254425)
(X_358  0.43039217591285706)
(X_359  0.4382353127002716)
(X_360  0.3813725411891937)
(X_361  0.3499999940395355)
(X_362  0.31078431010246277)
(X_363  0.27941176295280457)
(X_364  0.46764707565307617)
(X_365  0.4950980544090271)
(X_366  0.6029412150382996)
(X_367  0.5637255311012268)
(X_368  0.5245097875595093)
(X_369  0.4362744987010956)
(X_370  0.48725491762161255)
(X_371  0.5343137383460999)
(X_372  0.4480392038822174)
(X_373  0.3186274468898773)
(X_374  0.26372548937797546)
(X_375  0.40294119715690613)
(X_376  0.33039215207099915)
(X_377  0.34215685725212097)
(X_378  0.3382352888584137)
(X_379  0.31078431010246277)
(X_380  0.43431374430656433)
(X_381  0.3911764919757843)
(X_382  0.3558823764324188)
(X_383  0.2558823525905609)
(X_384  0.27156862616539)
(X_385  0.27941176295280457)
(X_386  0.387254923582077)
(X_387  0.39901962876319885)
(X_388  0.44607844948768616)
(X_389  0.43039217591285706)
(X_390  0.41470590233802795)
(X_391  0.29901960492134094)
(X_392  0.6460784673690796)
(X_393  0.7166666984558105)
(X_394  0.6931372880935669)
(X_395  0.5637255311012268)
(X_396  0.5049019455909729)
(X_397  0.5676470994949341)
(X_398  0.6068627834320068)
(X_399  0.479411780834198)
(X_400  0.4696078598499298)
(X_401  0.387254923582077)
(X_402  0.35196080803871155)
(X_403  0.35196080803871155)
(X_404  0.23627452552318573)
(X_405  0.24803923070430756)
(X_406  0.27156862616539)
(X_407  0.3637255132198334)
(X_408  0.2774509787559509)
(X_409  0.2617647051811218)
(X_410  0.2617647051811218)
(X_411  0.28921568393707275)
(X_412  0.30490198731422424)
(X_413  0.3088235557079315)
(X_414  0.3088235557079315)
(X_415  0.32058826088905334)
(X_416  0.25196078419685364)
(X_417  0.24411766231060028)
(X_418  0.23627452552318573)
(X_419  0.23627452552318573)
(X_420  0.5186274647712708)
(X_421  0.6245098114013672)
(X_422  0.5696078538894653)
(X_423  0.36176469922065735)
(X_424  0.29901960492134094)
(X_425  0.41274508833885193)
(X_426  0.4362744987010956)
(X_427  0.3343137204647064)
(X_428  0.25196078419685364)
(X_429  0.18529412150382996)
(X_430  0.15392157435417175)
(X_431  0.15000000596046448)
(X_432  0.23823529481887817)
(X_433  0.25784313678741455)
(X_434  0.17352941632270813)
(X_435  0.1460784375667572)
(X_436  0.21470588445663452)
(X_437  0.20686274766921997)
(X_438  0.21470588445663452)
(X_439  0.2343137264251709)
(X_440  0.23823529481887817)
(X_441  0.22647058963775635)
(X_442  0.12254902720451355)
(X_443  0.1303921639919281)
(X_444  0.1617647111415863)
(X_445  0.1460784375667572)
(X_446  0.12647059559822083)
(X_447  0.21470588445663452)
(X_448  0.4892157018184662)
(X_449  0.5872549414634705)
(X_450  0.5558823943138123)
(X_451  0.3911764919757843)
(X_452  0.31666669249534607)
(X_453  0.3911764919757843)
(X_454  0.41862747073173523)
(X_455  0.3558823764324188)
(X_456  0.2696078419685364)
(X_457  0.23823529481887817)
(X_458  0.2029411792755127)
(X_459  0.08725491166114807)
(X_460  0.09117648005485535)
(X_461  0.10294118523597717)
(X_462  0.10294118523597717)
(X_463  0.09509804844856262)
(X_464  0.05980392172932625)
(X_465  0.06372549384832382)
(X_466  0.1715686321258545)
(X_467  0.17941176891326904)
(X_468  0.17941176891326904)
(X_469  0.17549020051956177)
(X_470  0.16764706373214722)
(X_471  0.16372549533843994)
(X_472  0.19117647409439087)
(X_473  0.1872549057006836)
(X_474  0.1872549057006836)
(X_475  0.17941176891326904)
(X_476  0.31470587849617004)
(X_477  0.3970588147640228)
(X_478  0.4696078598499298)
(X_479  0.31666669249534607)
(X_480  0.25784313678741455)
(X_481  0.22843138873577118)
(X_482  0.25196078419685364)
(X_483  0.18921568989753723)
(X_484  0.23823529481887817)
(X_485  0.21078431606292725)
(X_486  0.17941176891326904)
(X_487  0.06372549384832382)
(X_488  0.07156863063573837)
(X_489  0.0833333432674408)
(X_490  0.0833333432674408)
(X_491  0.07549020648002625)
(X_492  0.04019607976078987)
(X_493  0.04411764815449715)
(X_494  0.15196079015731812)
(X_495  0.1558823585510254)
(X_496  0.1558823585510254)
(X_497  0.14803922176361084)
(X_498  0.14411765336990356)
(X_499  0.136274516582489)
(X_500  0.06372549384832382)
(X_501  0.06372549384832382)
(X_502  0.05980392172932625)
(X_503  0.05588235333561897)
(X_504  0.21666668355464935)
(X_505  0.27941176295280457)
(X_506  0.35196080803871155)
(X_507  0.23039215803146362)
(X_508  0.09117648005485535)
(X_509  0.15392157435417175)
(X_510  0.16960784792900085)
(X_511  0.10686275362968445)
(X_512  0.09509804844856262)
(X_513  0.07156863063573837)
(X_514  0.04411764815449715)
(X_515  0.036274511367082596)
(X_516  0.04411764815449715)
(X_517  0.0519607849419117)
(X_518  0.05588235333561897)
(X_519  0.0519607849419117)
(X_520  0.028431374579668045)
(X_521  0.03235294297337532)
(X_522  0.036274511367082596)
(X_523  0.036274511367082596)
(X_524  0.03235294297337532)
(X_525  0.028431374579668045)
(X_526  0.020588237792253494)
(X_527  0.11274509876966476)
(X_528  0.028431374579668045)
(X_529  0.028431374579668045)
(X_530  0.028431374579668045)
(X_531  0.028431374579668045)
(X_532  0.24215686321258545)
(X_533  0.2813725471496582)
(X_534  0.2539215683937073)
(X_535  0.16764706373214722)
(X_536  0.04803921654820442)
(X_537  0.10294118523597717)
(X_538  0.10686275362968445)
(X_539  0.05588235333561897)
(X_540  0.0519607849419117)
(X_541  0.036274511367082596)
(X_542  0.12058823555707932)
(X_543  0.012745101936161518)
(X_544  0.020588237792253494)
(X_545  0.028431374579668045)
(X_546  0.03235294297337532)
(X_547  0.03235294297337532)
(X_548  0.12843137979507446)
(X_549  0.12843137979507446)
(X_550  0.13235294818878174)
(X_551  0.12843137979507446)
(X_552  0.12450980395078659)
(X_553  0.12058823555707932)
(X_554  0.11274509876966476)
(X_555  0.008823529817163944)
(X_556  0.10882353037595749)
(X_557  0.008823529817163944)
(X_558  0.10882353037595749)
(X_559  0.11274509876966476)
(X_560  0.18333333730697632)
(X_561  0.10686275362968445)
(X_562  0.09117648005485535)
(X_563  0.036274511367082596)
(X_564  0.12843137979507446)
(X_565  0.16372549533843994)
(X_566  0.16764706373214722)
(X_567  0.13235294818878174)
(X_568  0.12450980395078659)
(X_569  0.11666666716337204)
(X_570  0.008823529817163944)
(X_571  0.004901961423456669)
(X_572  0.008823529817163944)
(X_573  0.01666666939854622)
(X_574  0.020588237792253494)
(X_575  0.020588237792253494)
(X_576  0.02450980618596077)
(X_577  0.02450980618596077)
(X_578  0.12450980395078659)
(X_579  0.12058823555707932)
(X_580  0.11666666716337204)
(X_581  0.11274509876966476)
(X_582  0.10882353037595749)
(X_583  0.10490196198225021)
(X_584  0.10098039358854294)
(X_585  0.004901961423456669)
(X_586  0.004901961423456669)
(X_587  0.008823529817163944)
(X_588  0.04019607976078987)
(X_589  0.0519607849419117)
(X_590  0.14803922176361084)
(X_591  0.12058823555707932)
(X_592  0.01666666939854622)
(X_593  0.12843137979507446)
(X_594  0.13235294818878174)
(X_595  0.11666666716337204)
(X_596  0.11274509876966476)
(X_597  0.10882353037595749)
(X_598  0.008823529817163944)
(X_599  0.008823529817163944)
(X_600  0.008823529817163944)
(X_601  0.008823529817163944)
(X_602  0.012745101936161518)
(X_603  0.012745101936161518)
(X_604  0.012745101936161518)
(X_605  0.10882353037595749)
(X_606  0.10882353037595749)
(X_607  0.10490196198225021)
(X_608  0.10490196198225021)
(X_609  0.10098039358854294)
(X_610  0.10098039358854294)
(X_611  0.09705882519483566)
(X_612  0.004901961423456669)
(X_613  0.004901961423456669)
(X_614  0.004901961423456669)
(X_615  0.10882353037595749)
(X_616  0.11274509876966476)
(X_617  0.020588237792253494)
(X_618  0.028431374579668045)
(X_619  0.020588237792253494)
(X_620  0.008823529817163944)
(X_621  0.10490196198225021)
(X_622  0.11274509876966476)
(X_623  0.11666666716337204)
(X_624  0.10490196198225021)
(X_625  0.10882353037595749)
(X_626  0.10882353037595749)
(X_627  0.10882353037595749)
(X_628  0.004901961423456669)
(X_629  0.004901961423456669)
(X_630  0.004901961423456669)
(X_631  0.008823529817163944)
(X_632  0.10490196198225021)
(X_633  0.10098039358854294)
(X_634  0.0009803927969187498)
(X_635  -0.0029411755967885256)
(X_636  -0.0029411755967885256)
(X_637  0.09705882519483566)
(X_638  0.10098039358854294)
(X_639  0.0009803927969187498)
(X_640  0.0009803927969187498)
(X_641  0.0009803927969187498)
(X_642  0.10490196198225021)
(X_643  0.10490196198225021)
(X_644  0.004901961423456669)
(X_645  0.012745101936161518)
(X_646  0.02450980618596077)
(X_647  0.12450980395078659)
(X_648  0.11274509876966476)
(X_649  0.09705882519483566)
(X_650  0.10490196198225021)
(X_651  0.12058823555707932)
(X_652  0.10098039358854294)
(X_653  0.10882353037595749)
(X_654  0.012745101936161518)
(X_655  0.012745101936161518)
(X_656  0.004901961423456669)
(X_657  0.0009803927969187498)
(X_658  0.0009803927969187498)
(X_659  0.0009803927969187498)
(X_660  0.004901961423456669)
(X_661  0.10490196198225021)
(X_662  0.10098039358854294)
(X_663  0.10098039358854294)
(X_664  0.0009803927969187498)
(X_665  0.10490196198225021)
(X_666  0.008823529817163944)
(X_667  0.008823529817163944)
(X_668  -0.0029411755967885256)
(X_669  -0.0029411755967885256)
(X_670  -0.0029411755967885256)
(X_671  -0.0029411755967885256)
(X_672  0.11666666716337204)
(X_673  0.01666666939854622)
(X_674  0.012745101936161518)
(X_675  0.004901961423456669)
(X_676  -0.0029411755967885256)
(X_677  0.10098039358854294)
(X_678  0.11666666716337204)
(X_679  0.13235294818878174)
(X_680  0.10098039358854294)
(X_681  0.09705882519483566)
(X_682  0.10098039358854294)
(X_683  0.11274509876966476)
(X_684  0.11274509876966476)
(X_685  0.10490196198225021)
(X_686  -0.006862743757665157)
(X_687  -0.010784312151372433)
(X_688  0.12058823555707932)
(X_689  0.11274509876966476)
(X_690  0.10098039358854294)
(X_691  0.08529412001371384)
(X_692  0.07745098322629929)
(X_693  0.08137255162000656)
(X_694  -0.0029411755967885256)
(X_695  0.012745101936161518)
(X_696  -0.014705880545079708)
(X_697  0.10098039358854294)
(X_698  0.11666666716337204)
(X_699  0.11274509876966476)
(X_700  0.09313725680112839)
(X_701  0.008823529817163944)
(X_702  0.020588237792253494)
(X_703  0.01666666939854622)
(X_704  0.0009803927969187498)
(X_705  -0.014705880545079708)
(X_706  -0.018627449870109558)
(X_707  -0.018627449870109558)
(X_708  0.012745101936161518)
(X_709  0.004901961423456669)
(X_710  -0.006862743757665157)
(X_711  0.08529412001371384)
(X_712  0.08137255162000656)
(X_713  0.08921568840742111)
(X_714  0.008823529817163944)
(X_715  0.028431374579668045)
(X_716  -0.046078432351350784)
(X_717  -0.026470588520169258)
(X_718  0.004901961423456669)
(X_719  0.04019607976078987)
(X_720  0.07549020648002625)
(X_721  0.11078432202339172)
(X_722  0.15000000596046448)
(X_723  0.17352941632270813)
(X_724  0.39901962876319885)
(X_725  0.46568629145622253)
(X_726  0.5598039627075195)
(X_727  0.638235330581665)
(X_728  0.08529412001371384)
(X_729  0.0009803927969187498)
(X_730  0.11274509876966476)
(X_731  0.11274509876966476)
(X_732  0.10490196198225021)
(X_733  0.008823529817163944)
(X_734  0.020588237792253494)
(X_735  0.036274511367082596)
(X_736  0.06568627804517746)
(X_737  0.09705882519483566)
(X_738  0.12843137979507446)
(X_739  0.1558823585510254)
(X_740  0.1872549057006836)
(X_741  0.2343137264251709)
(X_742  0.29313725233078003)
(X_743  0.33627453446388245)
(X_744  0.4009803831577301)
(X_745  0.551960825920105)
(X_746  0.638235330581665)
(X_747  0.636274516582489)
(X_748  0.7303921580314636)
(X_749  0.8127450942993164)
(X_750  0.8794117569923401)
(X_751  0.9186274409294128)
(X_752  0.9147058725357056)
(X_753  1.0382353067398071)
(X_754  1.0499999523162842)
(X_755  1.0499999523162842)
(X_756  0.09705882519483566)
(X_757  -0.0029411755967885256)
(X_758  -0.006862743757665157)
(X_759  -0.010784312151372433)
(X_760  0.004901961423456669)
(X_761  0.15980392694473267)
(X_762  0.2343137264251709)
(X_763  0.29313725233078003)
(X_764  0.4735294282436371)
(X_765  0.5637255311012268)
(X_766  0.5735294222831726)
(X_767  0.6598039269447327)
(X_768  0.8264706134796143)
(X_769  0.7970588207244873)
(X_770  0.863725483417511)
(X_771  0.8990195989608765)
(X_772  0.9225490093231201)
(X_773  0.9343137145042419)
(X_774  0.949999988079071)
(X_775  0.949999988079071)
(X_776  0.9421568512916565)
(X_777  0.9303921461105347)
(X_778  0.9186274409294128)
(X_779  0.9147058725357056)
(X_780  0.949999988079071)
(X_781  0.949999988079071)
(X_782  0.9421568512916565)
(X_783  0.9147058725357056)
(Y_0 -22.571807861328125)
(Y_1 22.59109115600586)
(Y_2 -16.861474990844727)
(Y_3 20.871736526489258))