((X_0  0.23039215803146362)
(X_1  0.10294118523597717)
(X_2  0.07941177487373352)
(X_3  0.17549020051956177)
(X_4  0.09509804844856262)
(X_5  0.10686275362968445)
(X_6  0.2029411792755127)
(X_7  0.19117647409439087)
(X_8  0.2029411792755127)
(X_9  0.20686274766921997)
(X_10  0.114705890417099)
(X_11  0.11862745881080627)
(X_12  0.21470588445663452)
(X_13  0.20686274766921997)
(X_14  0.0990196168422699)
(X_15  0.09117648005485535)
(X_16  0.11862745881080627)
(X_17  0.10294118523597717)
(X_18  0.08725491166114807)
(X_19  0.09117648005485535)
(X_20  0.10686275362968445)
(X_21  0.11078432202339172)
(X_22  0.09509804844856262)
(X_23  0.07941177487373352)
(X_24  0.07941177487373352)
(X_25  0.07549020648002625)
(X_26  0.07549020648002625)
(X_27  0.1715686321258545)
(X_28  0.12254902720451355)
(X_29  0.114705890417099)
(X_30  0.10686275362968445)
(X_31  0.19901961088180542)
(X_32  0.10294118523597717)
(X_33  0.10686275362968445)
(X_34  0.10686275362968445)
(X_35  0.11078432202339172)
(X_36  0.0990196168422699)
(X_37  0.2029411792755127)
(X_38  0.21078431606292725)
(X_39  0.21470588445663452)
(X_40  0.21078431606292725)
(X_41  0.2029411792755127)
(X_42  0.19509804248809814)
(X_43  0.1872549057006836)
(X_44  0.21078431606292725)
(X_45  0.0990196168422699)
(X_46  0.08725491166114807)
(X_47  0.09117648005485535)
(X_48  0.0990196168422699)
(X_49  0.10686275362968445)
(X_50  0.0990196168422699)
(X_51  0.19117647409439087)
(X_52  0.19901961088180542)
(X_53  0.19509804248809814)
(X_54  0.1872549057006836)
(X_55  0.18333333730697632)
(X_56  0.20686274766921997)
(X_57  0.21470588445663452)
(X_58  0.12254902720451355)
(X_59  0.114705890417099)
(X_60  0.10686275362968445)
(X_61  0.0990196168422699)
(X_62  0.10686275362968445)
(X_63  0.114705890417099)
(X_64  0.0833333432674408)
(X_65  0.1872549057006836)
(X_66  0.19509804248809814)
(X_67  0.0990196168422699)
(X_68  0.19901961088180542)
(X_69  0.19117647409439087)
(X_70  0.18333333730697632)
(X_71  0.17941176891326904)
(X_72  0.09509804844856262)
(X_73  0.09117648005485535)
(X_74  0.0833333432674408)
(X_75  0.0833333432674408)
(X_76  0.0833333432674408)
(X_77  0.09117648005485535)
(X_78  0.19509804248809814)
(X_79  0.19901961088180542)
(X_80  0.20686274766921997)
(X_81  0.2029411792755127)
(X_82  0.19509804248809814)
(X_83  0.18333333730697632)
(X_84  0.0990196168422699)
(X_85  0.10294118523597717)
(X_86  0.11078432202339172)
(X_87  0.11078432202339172)
(X_88  0.10686275362968445)
(X_89  0.2029411792755127)
(X_90  0.19901961088180542)
(X_91  0.19901961088180542)
(X_92  0.1715686321258545)
(X_93  0.17941176891326904)
(X_94  0.1872549057006836)
(X_95  0.09117648005485535)
(X_96  0.19117647409439087)
(X_97  0.18333333730697632)
(X_98  0.17549020051956177)
(X_99  0.1715686321258545)
(X_100  0.19117647409439087)
(X_101  0.19117647409439087)
(X_102  0.1872549057006836)
(X_103  0.07941177487373352)
(X_104  0.17549020051956177)
(X_105  0.17549020051956177)
(X_106  0.1872549057006836)
(X_107  0.19509804248809814)
(X_108  0.0990196168422699)
(X_109  0.09509804844856262)
(X_110  0.1872549057006836)
(X_111  0.17549020051956177)
(X_112  0.2029411792755127)
(X_113  0.19509804248809814)
(X_114  0.09117648005485535)
(X_115  0.2029411792755127)
(X_116  0.2186274528503418)
(X_117  0.2186274528503418)
(X_118  0.2029411792755127)
(X_119  0.18333333730697632)
(X_120  0.17941176891326904)
(X_121  0.1872549057006836)
(X_122  0.09509804844856262)
(X_123  0.0990196168422699)
(X_124  0.19901961088180542)
(X_125  0.19509804248809814)
(X_126  0.08725491166114807)
(X_127  0.0833333432674408)
(X_128  0.10686275362968445)
(X_129  0.10686275362968445)
(X_130  0.2029411792755127)
(X_131  0.19509804248809814)
(X_132  0.1872549057006836)
(X_133  0.18333333730697632)
(X_134  0.08725491166114807)
(X_135  0.09509804844856262)
(X_136  0.19117647409439087)
(X_137  0.19117647409439087)
(X_138  0.18333333730697632)
(X_139  0.17941176891326904)
(X_140  0.21470588445663452)
(X_141  0.19901961088180542)
(X_142  0.1872549057006836)
(X_143  0.2029411792755127)
(X_144  0.22647058963775635)
(X_145  0.23039215803146362)
(X_146  0.11078432202339172)
(X_147  0.08725491166114807)
(X_148  0.19117647409439087)
(X_149  0.19901961088180542)
(X_150  0.20686274766921997)
(X_151  0.21470588445663452)
(X_152  0.21470588445663452)
(X_153  0.21078431606292725)
(X_154  0.10294118523597717)
(X_155  0.0990196168422699)
(X_156  0.11862745881080627)
(X_157  0.21470588445663452)
(X_158  0.21470588445663452)
(X_159  0.21078431606292725)
(X_160  0.21078431606292725)
(X_161  0.20686274766921997)
(X_162  0.2029411792755127)
(X_163  0.19901961088180542)
(X_164  0.19901961088180542)
(X_165  0.19901961088180542)
(X_166  0.19509804248809814)
(X_167  0.19509804248809814)
(X_168  0.10294118523597717)
(X_169  0.09509804844856262)
(X_170  0.09117648005485535)
(X_171  0.0990196168422699)
(X_172  0.11078432202339172)
(X_173  0.114705890417099)
(X_174  0.10686275362968445)
(X_175  0.0990196168422699)
(X_176  0.08725491166114807)
(X_177  0.09117648005485535)
(X_178  0.2029411792755127)
(X_179  0.20686274766921997)
(X_180  0.21078431606292725)
(X_181  0.20686274766921997)
(X_182  0.19901961088180542)
(X_183  0.19509804248809814)
(X_184  0.09509804844856262)
(X_185  0.09117648005485535)
(X_186  0.09117648005485535)
(X_187  0.10294118523597717)
(X_188  0.114705890417099)
(X_189  0.11862745881080627)
(X_190  0.2029411792755127)
(X_191  0.19117647409439087)
(X_192  0.10686275362968445)
(X_193  0.2029411792755127)
(X_194  0.2029411792755127)
(X_195  0.19901961088180542)
(X_196  0.17941176891326904)
(X_197  0.1872549057006836)
(X_198  0.19509804248809814)
(X_199  0.19117647409439087)
(X_200  0.08725491166114807)
(X_201  0.08725491166114807)
(X_202  0.19509804248809814)
(X_203  0.2029411792755127)
(X_204  0.0676470622420311)
(X_205  0.07549020648002625)
(X_206  0.0833333432674408)
(X_207  0.09117648005485535)
(X_208  0.09509804844856262)
(X_209  0.09117648005485535)
(X_210  0.0833333432674408)
(X_211  0.17941176891326904)
(X_212  0.16372549533843994)
(X_213  0.15980392694473267)
(X_214  0.05980392172932625)
(X_215  0.0833333432674408)
(X_216  0.10686275362968445)
(X_217  0.21470588445663452)
(X_218  0.19509804248809814)
(X_219  0.17549020051956177)
(X_220  0.10686275362968445)
(X_221  0.10294118523597717)
(X_222  0.0990196168422699)
(X_223  0.09509804844856262)
(X_224  0.0676470622420311)
(X_225  0.09117648005485535)
(X_226  0.0990196168422699)
(X_227  0.08725491166114807)
(X_228  0.08725491166114807)
(X_229  0.0990196168422699)
(X_230  0.09509804844856262)
(X_231  0.07156863063573837)
(X_232  0.19901961088180542)
(X_233  0.1872549057006836)
(X_234  0.1872549057006836)
(X_235  0.2029411792755127)
(X_236  0.20686274766921997)
(X_237  0.1872549057006836)
(X_238  0.17549020051956177)
(X_239  0.17549020051956177)
(X_240  0.18333333730697632)
(X_241  0.0833333432674408)
(X_242  0.0833333432674408)
(X_243  0.1872549057006836)
(X_244  0.1872549057006836)
(X_245  0.09117648005485535)
(X_246  0.09117648005485535)
(X_247  0.09117648005485535)
(X_248  0.0833333432674408)
(X_249  0.0833333432674408)
(X_250  0.08725491166114807)
(X_251  0.1872549057006836)
(X_252  0.35196080803871155)
(X_253  0.3598039448261261)
(X_254  0.24803923070430756)
(X_255  0.31666669249534607)
(X_256  0.29313725233078003)
(X_257  0.2813725471496582)
(X_258  0.25784313678741455)
(X_259  0.1303921639919281)
(X_260  0.11862745881080627)
(X_261  0.2029411792755127)
(X_262  0.19509804248809814)
(X_263  0.19901961088180542)
(X_264  0.19509804248809814)
(X_265  0.17941176891326904)
(X_266  0.17941176891326904)
(X_267  0.19509804248809814)
(X_268  0.05980392172932625)
(X_269  0.07156863063573837)
(X_270  0.0833333432674408)
(X_271  0.09509804844856262)
(X_272  0.09509804844856262)
(X_273  0.09117648005485535)
(X_274  0.07941177487373352)
(X_275  0.07549020648002625)
(X_276  0.09509804844856262)
(X_277  0.09117648005485535)
(X_278  0.0833333432674408)
(X_279  0.17549020051956177)
(X_280  0.45196080207824707)
(X_281  0.4598039388656616)
(X_282  0.4480392038822174)
(X_283  0.42450979351997375)
(X_284  0.4049019515514374)
(X_285  0.49313727021217346)
(X_286  0.37745097279548645)
(X_287  0.3578431308269501)
(X_288  0.3225490152835846)
(X_289  0.29509803652763367)
(X_290  0.3558823764324188)
(X_291  0.3127451241016388)
(X_292  0.2539215683937073)
(X_293  0.20686274766921997)
(X_294  0.09509804844856262)
(X_295  0.21078431606292725)
(X_296  0.19901961088180542)
(X_297  0.22647058963775635)
(X_298  0.16960784792900085)
(X_299  0.21666668355464935)
(X_300  0.24803923070430756)
(X_301  0.3637255132198334)
(X_302  0.3637255132198334)
(X_303  0.26372548937797546)
(X_304  0.3480392396450043)
(X_305  0.240196093916893)
(X_306  0.2245098203420639)
(X_307  0.3127451241016388)
(X_308  0.3813725411891937)
(X_309  0.3813725411891937)
(X_310  0.3813725411891937)
(X_311  0.37745097279548645)
(X_312  0.3813725411891937)
(X_313  0.385294109582901)
(X_314  0.385294109582901)
(X_315  0.48137256503105164)
(X_316  0.3892156779766083)
(X_317  0.37745097279548645)
(X_318  0.3578431308269501)
(X_319  0.32647058367729187)
(X_320  0.3754902184009552)
(X_321  0.33627453446388245)
(X_322  0.3401961028575897)
(X_323  0.3637255132198334)
(X_324  0.29901960492134094)
(X_325  0.41862747073173523)
(X_326  0.4539215862751007)
(X_327  0.385294109582901)
(X_328  0.4049019515514374)
(X_329  0.40882351994514465)
(X_330  0.4049019515514374)
(X_331  0.4009803831577301)
(X_332  0.5009803771972656)
(X_333  0.49313727021217346)
(X_334  0.47745099663734436)
(X_335  0.46568629145622253)
(X_336  0.29509803652763367)
(X_337  0.3911764919757843)
(X_338  0.387254923582077)
(X_339  0.3911764919757843)
(X_340  0.3950980603694916)
(X_341  0.39901962876319885)
(X_342  0.3068627417087555)
(X_343  0.31470587849617004)
(X_344  0.3794117867946625)
(X_345  0.3754902184009552)
(X_346  0.3794117867946625)
(X_347  0.36764708161354065)
(X_348  0.33627453446388245)
(X_349  0.30098041892051697)
(X_350  0.30490198731422424)
(X_351  0.3245098292827606)
(X_352  0.24803923070430756)
(X_353  0.3598039448261261)
(X_354  0.3754902184009552)
(X_355  0.2911764681339264)
(X_356  0.3029411733150482)
(X_357  0.3068627417087555)
(X_358  0.31078431010246277)
(X_359  0.3068627417087555)
(X_360  0.43039217591285706)
(X_361  0.4225490391254425)
(X_362  0.31078431010246277)
(X_363  0.39901962876319885)
(X_364  0.34215685725212097)
(X_365  0.33039215207099915)
(X_366  0.32647058367729187)
(X_367  0.4382353127002716)
(X_368  0.44607844948768616)
(X_369  0.45000001788139343)
(X_370  0.46568629145622253)
(X_371  0.4852941334247589)
(X_372  0.41274508833885193)
(X_373  0.40882351994514465)
(X_374  0.5166666507720947)
(X_375  0.5166666507720947)
(X_376  0.4892157018184662)
(X_377  0.3539215624332428)
(X_378  0.34215685725212097)
(X_379  0.45000001788139343)
(X_380  0.44607844948768616)
(X_381  0.44607844948768616)
(X_382  0.4421568810939789)
(X_383  0.4382353127002716)
(X_384  0.43039217591285706)
(X_385  0.33039215207099915)
(X_386  0.32647058367729187)
(X_387  0.32647058367729187)
(X_388  0.4264706075191498)
(X_389  0.4225490391254425)
(X_390  0.31470587849617004)
(X_391  0.4068627655506134)
(X_392  0.4990196228027344)
(X_393  0.479411780834198)
(X_394  0.4754902124404907)
(X_395  0.4911764860153198)
(X_396  0.4990196228027344)
(X_397  0.5029411911964417)
(X_398  0.5186274647712708)
(X_399  0.5460784435272217)
(X_400  0.5147058963775635)
(X_401  0.6147059202194214)
(X_402  0.6343137621879578)
(X_403  0.6617647409439087)
(X_404  0.5774509906768799)
(X_405  0.5696078538894653)
(X_406  0.5735294222831726)
(X_407  0.6852941513061523)
(X_408  0.5892156958580017)
(X_409  0.5735294222831726)
(X_410  0.550000011920929)
(X_411  0.5147058963775635)
(X_412  0.479411780834198)
(X_413  0.5480391979217529)
(X_414  0.42450979351997375)
(X_415  0.40882351994514465)
(X_416  0.42450979351997375)
(X_417  0.42450979351997375)
(X_418  0.5245097875595093)
(X_419  0.5245097875595093)
(X_420  0.3186274468898773)
(X_421  0.2911764681339264)
(X_422  0.3715686500072479)
(X_423  0.3754902184009552)
(X_424  0.3715686500072479)
(X_425  0.3558823764324188)
(X_426  0.3637255132198334)
(X_427  0.387254923582077)
(X_428  0.3794117867946625)
(X_429  0.3637255132198334)
(X_430  0.3598039448261261)
(X_431  0.2754901945590973)
(X_432  0.3794117867946625)
(X_433  0.3637255132198334)
(X_434  0.3558823764324188)
(X_435  0.2558823525905609)
(X_436  0.2754901945590973)
(X_437  0.28333333134651184)
(X_438  0.2911764681339264)
(X_439  0.3029411733150482)
(X_440  0.31470587849617004)
(X_441  0.41862747073173523)
(X_442  0.3225490152835846)
(X_443  0.3225490152835846)
(X_444  0.4264706075191498)
(X_445  0.43431374430656433)
(X_446  0.34607842564582825)
(X_447  0.4539215862751007)
(X_448  0.1931372582912445)
(X_449  0.30490198731422424)
(X_450  0.3088235557079315)
(X_451  0.2774509787559509)
(X_452  0.13823530077934265)
(X_453  0.12254902720451355)
(X_454  0.24607843160629272)
(X_455  0.1774509847164154)
(X_456  0.2617647051811218)
(X_457  0.1617647111415863)
(X_458  0.1617647111415863)
(X_459  0.15784314274787903)
(X_460  0.15000000596046448)
(X_461  0.24215686321258545)
(X_462  0.23823529481887817)
(X_463  0.2343137264251709)
(X_464  0.24607843160629272)
(X_465  0.23823529481887817)
(X_466  0.12647059559822083)
(X_467  0.12647059559822083)
(X_468  0.13823530077934265)
(X_469  0.25)
(X_470  0.2539215683937073)
(X_471  0.25784313678741455)
(X_472  0.2774509787559509)
(X_473  0.27352941036224365)
(X_474  0.16568627953529358)
(X_475  0.2617647051811218)
(X_476  0.13823530077934265)
(X_477  0.15000000596046448)
(X_478  0.15392157435417175)
(X_479  0.13823530077934265)
(X_480  0.11078432202339172)
(X_481  0.10294118523597717)
(X_482  0.12254902720451355)
(X_483  0.14215686917304993)
(X_484  0.11862745881080627)
(X_485  0.11862745881080627)
(X_486  0.12254902720451355)
(X_487  0.12254902720451355)
(X_488  0.22647058963775635)
(X_489  0.23039215803146362)
(X_490  0.2343137264251709)
(X_491  0.2343137264251709)
(X_492  0.11862745881080627)
(X_493  0.11078432202339172)
(X_494  0.10294118523597717)
(X_495  0.10294118523597717)
(X_496  0.11078432202339172)
(X_497  0.22254902124404907)
(X_498  0.22647058963775635)
(X_499  0.23039215803146362)
(X_500  0.1303921639919281)
(X_501  0.1303921639919281)
(X_502  0.12254902720451355)
(X_503  0.2186274528503418)
(X_504  0.0833333432674408)
(X_505  0.1872549057006836)
(X_506  0.19509804248809814)
(X_507  0.19509804248809814)
(X_508  0.19117647409439087)
(X_509  0.19117647409439087)
(X_510  0.19901961088180542)
(X_511  0.20686274766921997)
(X_512  0.18333333730697632)
(X_513  0.07941177487373352)
(X_514  0.07941177487373352)
(X_515  0.0833333432674408)
(X_516  0.08725491166114807)
(X_517  0.0990196168422699)
(X_518  0.20686274766921997)
(X_519  0.21470588445663452)
(X_520  0.1872549057006836)
(X_521  0.17941176891326904)
(X_522  0.1715686321258545)
(X_523  0.07156863063573837)
(X_524  0.07941177487373352)
(X_525  0.09117648005485535)
(X_526  0.09117648005485535)
(X_527  0.09117648005485535)
(X_528  0.08725491166114807)
(X_529  0.0833333432674408)
(X_530  0.0833333432674408)
(X_531  0.17941176891326904)
(X_532  0.05980392172932625)
(X_533  0.05980392172932625)
(X_534  0.06372549384832382)
(X_535  0.07549020648002625)
(X_536  0.18333333730697632)
(X_537  0.18333333730697632)
(X_538  0.17941176891326904)
(X_539  0.17549020051956177)
(X_540  0.07549020648002625)
(X_541  0.0676470622420311)
(X_542  0.05980392172932625)
(X_543  0.0519607849419117)
(X_544  0.0519607849419117)
(X_545  0.05588235333561897)
(X_546  0.06372549384832382)
(X_547  0.16764706373214722)
(X_548  0.16372549533843994)
(X_549  0.1558823585510254)
(X_550  0.14803922176361084)
(X_551  0.0519607849419117)
(X_552  0.05980392172932625)
(X_553  0.0676470622420311)
(X_554  0.0676470622420311)
(X_555  0.06372549384832382)
(X_556  0.0676470622420311)
(X_557  0.0676470622420311)
(X_558  0.06372549384832382)
(X_559  0.06372549384832382)
(X_560  0.0519607849419117)
(X_561  0.0519607849419117)
(X_562  0.0519607849419117)
(X_563  0.06372549384832382)
(X_564  0.07156863063573837)
(X_565  0.07156863063573837)
(X_566  0.05980392172932625)
(X_567  0.04803921654820442)
(X_568  0.16764706373214722)
(X_569  0.05980392172932625)
(X_570  0.04803921654820442)
(X_571  0.036274511367082596)
(X_572  0.03235294297337532)
(X_573  0.03235294297337532)
(X_574  0.04019607976078987)
(X_575  0.04411764815449715)
(X_576  0.0519607849419117)
(X_577  0.14803922176361084)
(X_578  0.1401960849761963)
(X_579  0.14411765336990356)
(X_580  0.15196079015731812)
(X_581  0.1558823585510254)
(X_582  0.0519607849419117)
(X_583  0.14803922176361084)
(X_584  0.05980392172932625)
(X_585  0.15980392694473267)
(X_586  0.05588235333561897)
(X_587  0.1558823585510254)
(X_588  0.04411764815449715)
(X_589  0.04411764815449715)
(X_590  0.04411764815449715)
(X_591  0.04803921654820442)
(X_592  0.0519607849419117)
(X_593  0.04803921654820442)
(X_594  0.136274516582489)
(X_595  0.12843137979507446)
(X_596  0.04411764815449715)
(X_597  0.04019607976078987)
(X_598  0.036274511367082596)
(X_599  0.03235294297337532)
(X_600  0.13235294818878174)
(X_601  0.13235294818878174)
(X_602  0.136274516582489)
(X_603  0.1401960849761963)
(X_604  0.14411765336990356)
(X_605  0.1401960849761963)
(X_606  0.136274516582489)
(X_607  0.1401960849761963)
(X_608  0.14411765336990356)
(X_609  0.14803922176361084)
(X_610  0.04411764815449715)
(X_611  0.036274511367082596)
(X_612  0.14411765336990356)
(X_613  0.14411765336990356)
(X_614  0.1401960849761963)
(X_615  0.1401960849761963)
(X_616  0.136274516582489)
(X_617  0.136274516582489)
(X_618  0.1401960849761963)
(X_619  0.136274516582489)
(X_620  0.13235294818878174)
(X_621  0.12843137979507446)
(X_622  0.12450980395078659)
(X_623  0.12450980395078659)
(X_624  0.12450980395078659)
(X_625  0.12843137979507446)
(X_626  0.028431374579668045)
(X_627  0.028431374579668045)
(X_628  0.03235294297337532)
(X_629  0.036274511367082596)
(X_630  0.036274511367082596)
(X_631  0.136274516582489)
(X_632  0.03235294297337532)
(X_633  0.028431374579668045)
(X_634  0.12450980395078659)
(X_635  0.12843137979507446)
(X_636  0.136274516582489)
(X_637  0.136274516582489)
(X_638  0.12843137979507446)
(X_639  0.12450980395078659)
(X_640  0.13235294818878174)
(X_641  0.13235294818878174)
(X_642  0.12450980395078659)
(X_643  0.12058823555707932)
(X_644  0.13235294818878174)
(X_645  0.136274516582489)
(X_646  0.04019607976078987)
(X_647  0.036274511367082596)
(X_648  0.028431374579668045)
(X_649  0.02450980618596077)
(X_650  0.028431374579668045)
(X_651  0.136274516582489)
(X_652  0.02450980618596077)
(X_653  0.028431374579668045)
(X_654  0.028431374579668045)
(X_655  0.03235294297337532)
(X_656  0.13235294818878174)
(X_657  0.12843137979507446)
(X_658  0.12843137979507446)
(X_659  0.12450980395078659)
(X_660  0.12450980395078659)
(X_661  0.12058823555707932)
(X_662  0.01666666939854622)
(X_663  0.020588237792253494)
(X_664  0.02450980618596077)
(X_665  0.02450980618596077)
(X_666  0.01666666939854622)
(X_667  0.012745101936161518)
(X_668  0.028431374579668045)
(X_669  0.02450980618596077)
(X_670  0.020588237792253494)
(X_671  0.11666666716337204)
(X_672  0.01666666939854622)
(X_673  0.12058823555707932)
(X_674  0.12058823555707932)
(X_675  0.11666666716337204)
(X_676  0.11666666716337204)
(X_677  0.11274509876966476)
(X_678  0.11274509876966476)
(X_679  0.11666666716337204)
(X_680  0.12450980395078659)
(X_681  0.12058823555707932)
(X_682  0.12450980395078659)
(X_683  0.13235294818878174)
(X_684  0.12450980395078659)
(X_685  0.11274509876966476)
(X_686  0.12450980395078659)
(X_687  0.14803922176361084)
(X_688  0.12450980395078659)
(X_689  0.13235294818878174)
(X_690  0.12450980395078659)
(X_691  0.11666666716337204)
(X_692  0.12058823555707932)
(X_693  0.136274516582489)
(X_694  0.13235294818878174)
(X_695  0.11274509876966476)
(X_696  0.14803922176361084)
(X_697  0.04803921654820442)
(X_698  0.03235294297337532)
(X_699  0.10882353037595749)
(X_700  0.12450980395078659)
(X_701  0.12843137979507446)
(X_702  0.03235294297337532)
(X_703  0.13235294818878174)
(X_704  0.12843137979507446)
(X_705  0.12843137979507446)
(X_706  0.03235294297337532)
(X_707  0.036274511367082596)
(X_708  0.03235294297337532)
(X_709  0.028431374579668045)
(X_710  0.028431374579668045)
(X_711  0.036274511367082596)
(X_712  0.02450980618596077)
(X_713  0.008823529817163944)
(X_714  0.01666666939854622)
(X_715  0.036274511367082596)
(X_716  0.028431374579668045)
(X_717  0.03235294297337532)
(X_718  0.02450980618596077)
(X_719  0.008823529817163944)
(X_720  0.012745101936161518)
(X_721  0.02450980618596077)
(X_722  0.020588237792253494)
(X_723  0.0009803927969187498)
(X_724  0.03235294297337532)
(X_725  0.036274511367082596)
(X_726  0.02450980618596077)
(X_727  0.008823529817163944)
(X_728  0.09705882519483566)
(X_729  0.10490196198225021)
(X_730  0.012745101936161518)
(X_731  0.11666666716337204)
(X_732  0.11274509876966476)
(X_733  0.11666666716337204)
(X_734  0.12450980395078659)
(X_735  0.13235294818878174)
(X_736  0.020588237792253494)
(X_737  0.01666666939854622)
(X_738  0.020588237792253494)
(X_739  0.03235294297337532)
(X_740  0.028431374579668045)
(X_741  0.01666666939854622)
(X_742  0.02450980618596077)
(X_743  0.04019607976078987)
(X_744  0.01666666939854622)
(X_745  0.02450980618596077)
(X_746  0.01666666939854622)
(X_747  0.004901961423456669)
(X_748  0.012745101936161518)
(X_749  0.13235294818878174)
(X_750  0.12843137979507446)
(X_751  0.11274509876966476)
(X_752  0.11274509876966476)
(X_753  0.12450980395078659)
(X_754  0.12450980395078659)
(X_755  0.11666666716337204)
(X_756  0.1460784375667572)
(X_757  0.15784314274787903)
(X_758  0.17352941632270813)
(X_759  0.2774509787559509)
(X_760  0.2774509787559509)
(X_761  0.2813725471496582)
(X_762  0.29313725233078003)
(X_763  0.3088235557079315)
(X_764  0.20098040997982025)
(X_765  0.19705882668495178)
(X_766  0.3088235557079315)
(X_767  0.33235296607017517)
(X_768  0.3401961028575897)
(X_769  0.3401961028575897)
(X_770  0.3480392396450043)
(X_771  0.3637255132198334)
(X_772  0.3911764919757843)
(X_773  0.29509803652763367)
(X_774  0.29509803652763367)
(X_775  0.29509803652763367)
(X_776  0.31470587849617004)
(X_777  0.34215685725212097)
(X_778  0.3499999940395355)
(X_779  0.4382353127002716)
(X_780  0.4852941334247589)
(X_781  0.40882351994514465)
(X_782  0.4205882251262665)
(X_783  0.4166666567325592)
(Y_0 23.038616180419922)
(Y_1 17.996545791625977)
(Y_2 3.4379961490631104)
(Y_3 -44.632362365722656))