((X_0  1.0460784435272217)
(X_1  0.949999988079071)
(X_2  0.949999988079071)
(X_3  1.0499999523162842)
(X_4  1.0499999523162842)
(X_5  1.0499999523162842)
(X_6  1.0499999523162842)
(X_7  0.949999988079071)
(X_8  1.0460784435272217)
(X_9  1.0499999523162842)
(X_10  1.0499999523162842)
(X_11  1.0499999523162842)
(X_12  1.0499999523162842)
(X_13  1.0499999523162842)
(X_14  1.0499999523162842)
(X_15  0.949999988079071)
(X_16  0.949999988079071)
(X_17  0.949999988079071)
(X_18  0.949999988079071)
(X_19  0.949999988079071)
(X_20  1.0499999523162842)
(X_21  1.0460784435272217)
(X_22  1.0460784435272217)
(X_23  1.0421568155288696)
(X_24  1.0499999523162842)
(X_25  1.0499999523162842)
(X_26  0.949999988079071)
(X_27  1.0499999523162842)
(X_28  1.0499999523162842)
(X_29  1.0499999523162842)
(X_30  0.949999988079071)
(X_31  0.949999988079071)
(X_32  0.949999988079071)
(X_33  0.949999988079071)
(X_34  0.949999988079071)
(X_35  1.0499999523162842)
(X_36  0.949999988079071)
(X_37  0.949999988079071)
(X_38  0.9460784196853638)
(X_39  0.9421568512916565)
(X_40  0.9343137145042419)
(X_41  1.0264705419540405)
(X_42  1.022549033164978)
(X_43  0.9186274409294128)
(X_44  1.0499999523162842)
(X_45  1.0499999523162842)
(X_46  0.949999988079071)
(X_47  0.949999988079071)
(X_48  0.9460784196853638)
(X_49  0.9460784196853638)
(X_50  0.9460784196853638)
(X_51  0.9460784196853638)
(X_52  1.0499999523162842)
(X_53  1.0499999523162842)
(X_54  1.0421568155288696)
(X_55  1.0382353067398071)
(X_56  0.9401960968971252)
(X_57  0.8362745046615601)
(X_58  0.8245097994804382)
(X_59  0.8127450942993164)
(X_60  0.7970588207244873)
(X_61  0.7852941155433655)
(X_62  0.7735294103622437)
(X_63  0.7696078419685364)
(X_64  0.8343137502670288)
(X_65  0.7303921580314636)
(X_66  0.7186274528503418)
(X_67  0.70686274766922)
(X_68  0.6911764740943909)
(X_69  0.679411768913269)
(X_70  0.6715686321258545)
(X_71  0.6637254953384399)
(X_72  0.6205882430076599)
(X_73  0.6088235378265381)
(X_74  0.5892156958580017)
(X_75  0.5617647171020508)
(X_76  0.6343137621879578)
(X_77  0.6068627834320068)
(X_78  0.5833333730697632)
(X_79  0.5715686678886414)
(X_80  0.5166666507720947)
(X_81  0.5127450823783875)
(X_82  0.4049019515514374)
(X_83  0.49705883860588074)
(X_84  0.25)
(X_85  0.24607843160629272)
(X_86  0.13823530077934265)
(X_87  0.22647058963775635)
(X_88  0.21078431606292725)
(X_89  0.0990196168422699)
(X_90  0.09117648005485535)
(X_91  0.0833333432674408)
(X_92  0.1715686321258545)
(X_93  0.0676470622420311)
(X_94  0.05980392172932625)
(X_95  0.04803921654820442)
(X_96  0.136274516582489)
(X_97  0.12843137979507446)
(X_98  0.12058823555707932)
(X_99  0.11666666716337204)
(X_100  0.12450980395078659)
(X_101  0.12058823555707932)
(X_102  0.11666666716337204)
(X_103  0.11274509876966476)
(X_104  0.008823529817163944)
(X_105  0.004901961423456669)
(X_106  0.0009803927969187498)
(X_107  0.0009803927969187498)
(X_108  0.02450980618596077)
(X_109  0.020588237792253494)
(X_110  0.012745101936161518)
(X_111  0.10490196198225021)
(X_112  -0.0029411755967885256)
(X_113  0.09705882519483566)
(X_114  0.10098039358854294)
(X_115  0.004901961423456669)
(X_116  0.004901961423456669)
(X_117  0.008823529817163944)
(X_118  0.008823529817163944)
(X_119  0.012745101936161518)
(X_120  0.01666666939854622)
(X_121  0.01666666939854622)
(X_122  0.012745101936161518)
(X_123  0.008823529817163944)
(X_124  0.10882353037595749)
(X_125  0.10490196198225021)
(X_126  0.0009803927969187498)
(X_127  0.0009803927969187498)
(X_128  0.09705882519483566)
(X_129  0.10098039358854294)
(X_130  0.10490196198225021)
(X_131  0.10882353037595749)
(X_132  0.11274509876966476)
(X_133  0.11666666716337204)
(X_134  0.020588237792253494)
(X_135  0.12450980395078659)
(X_136  0.12843137979507446)
(X_137  0.02450980618596077)
(X_138  0.12058823555707932)
(X_139  0.12058823555707932)
(X_140  0.12058823555707932)
(X_141  0.12058823555707932)
(X_142  0.11666666716337204)
(X_143  0.11666666716337204)
(X_144  0.11274509876966476)
(X_145  0.012745101936161518)
(X_146  0.008823529817163944)
(X_147  0.008823529817163944)
(X_148  0.10882353037595749)
(X_149  0.10882353037595749)
(X_150  0.008823529817163944)
(X_151  0.012745101936161518)
(X_152  0.11666666716337204)
(X_153  0.11666666716337204)
(X_154  0.11666666716337204)
(X_155  0.12058823555707932)
(X_156  0.04019607976078987)
(X_157  0.036274511367082596)
(X_158  0.12843137979507446)
(X_159  0.12058823555707932)
(X_160  0.10882353037595749)
(X_161  -0.0029411755967885256)
(X_162  -0.010784312151372433)
(X_163  0.08529412001371384)
(X_164  0.10490196198225021)
(X_165  0.004901961423456669)
(X_166  0.0009803927969187498)
(X_167  0.10098039358854294)
(X_168  0.020588237792253494)
(X_169  0.11666666716337204)
(X_170  0.008823529817163944)
(X_171  0.10098039358854294)
(X_172  0.09313725680112839)
(X_173  -0.014705880545079708)
(X_174  -0.018627449870109558)
(X_175  -0.022549020126461983)
(X_176  0.10490196198225021)
(X_177  0.10490196198225021)
(X_178  0.004901961423456669)
(X_179  0.004901961423456669)
(X_180  0.10490196198225021)
(X_181  0.004901961423456669)
(X_182  0.004901961423456669)
(X_183  0.0009803927969187498)
(X_184  0.07352941483259201)
(X_185  0.07745098322629929)
(X_186  0.08529412001371384)
(X_187  0.09313725680112839)
(X_188  0.10490196198225021)
(X_189  0.012745101936161518)
(X_190  0.020588237792253494)
(X_191  0.12450980395078659)
(X_192  0.09705882519483566)
(X_193  0.09705882519483566)
(X_194  0.09313725680112839)
(X_195  -0.006862743757665157)
(X_196  0.0009803927969187498)
(X_197  0.10490196198225021)
(X_198  0.11274509876966476)
(X_199  0.01666666939854622)
(X_200  0.12450980395078659)
(X_201  0.13235294818878174)
(X_202  0.04019607976078987)
(X_203  0.04019607976078987)
(X_204  0.03235294297337532)
(X_205  0.028431374579668045)
(X_206  0.02450980618596077)
(X_207  0.020588237792253494)
(X_208  0.012745101936161518)
(X_209  0.008823529817163944)
(X_210  0.004901961423456669)
(X_211  0.0009803927969187498)
(X_212  0.11666666716337204)
(X_213  0.11666666716337204)
(X_214  0.11274509876966476)
(X_215  0.10882353037595749)
(X_216  0.10098039358854294)
(X_217  -0.0029411755967885256)
(X_218  0.09313725680112839)
(X_219  0.09313725680112839)
(X_220  0.10882353037595749)
(X_221  0.004901961423456669)
(X_222  0.004901961423456669)
(X_223  0.10098039358854294)
(X_224  0.0676470622420311)
(X_225  0.05980392172932625)
(X_226  0.17941176891326904)
(X_227  0.2343137264251709)
(X_228  0.20098040997982025)
(X_229  0.25196078419685364)
(X_230  0.27941176295280457)
(X_231  0.2911764681339264)
(X_232  0.39901962876319885)
(X_233  0.39901962876319885)
(X_234  0.3794117867946625)
(X_235  0.22843138873577118)
(X_236  0.15000000596046448)
(X_237  0.07156863063573837)
(X_238  0.10882353037595749)
(X_239  -0.026470588520169258)
(X_240  0.01666666939854622)
(X_241  0.008823529817163944)
(X_242  0.10098039358854294)
(X_243  0.09705882519483566)
(X_244  0.10490196198225021)
(X_245  0.10882353037595749)
(X_246  0.10490196198225021)
(X_247  -0.0029411755967885256)
(X_248  -0.0029411755967885256)
(X_249  0.0009803927969187498)
(X_250  0.004901961423456669)
(X_251  0.10490196198225021)
(X_252  0.31078431010246277)
(X_253  0.31078431010246277)
(X_254  0.3186274468898773)
(X_255  0.43431374430656433)
(X_256  0.4421568810939789)
(X_257  0.43431374430656433)
(X_258  0.41862747073173523)
(X_259  0.3068627417087555)
(X_260  0.31470587849617004)
(X_261  0.3068627417087555)
(X_262  0.3068627417087555)
(X_263  0.4225490391254425)
(X_264  0.41470590233802795)
(X_265  0.3558823764324188)
(X_266  0.2539215683937073)
(X_267  0.07156863063573837)
(X_268  -0.038235295563936234)
(X_269  0.09705882519483566)
(X_270  0.12450980395078659)
(X_271  0.020588237792253494)
(X_272  -0.006862743757665157)
(X_273  -0.018627449870109558)
(X_274  0.09313725680112839)
(X_275  0.11274509876966476)
(X_276  -0.010784312151372433)
(X_277  -0.010784312151372433)
(X_278  -0.006862743757665157)
(X_279  -0.006862743757665157)
(X_280  0.38333335518836975)
(X_281  0.387254923582077)
(X_282  0.2872548997402191)
(X_283  0.27941176295280457)
(X_284  0.26764705777168274)
(X_285  0.3558823764324188)
(X_286  0.33627453446388245)
(X_287  0.3245098292827606)
(X_288  0.2245098203420639)
(X_289  0.20098040997982025)
(X_290  0.18921568989753723)
(X_291  0.21274511516094208)
(X_292  0.2558823525905609)
(X_293  0.27156862616539)
(X_294  0.24411766231060028)
(X_295  0.21274511516094208)
(X_296  0.18333333730697632)
(X_297  0.04019607976078987)
(X_298  -0.0029411755967885256)
(X_299  0.08529412001371384)
(X_300  0.10882353037595749)
(X_301  0.12450980395078659)
(X_302  0.01666666939854622)
(X_303  0.0009803927969187498)
(X_304  0.012745101936161518)
(X_305  0.012745101936161518)
(X_306  0.012745101936161518)
(X_307  0.012745101936161518)
(X_308  0.2245098203420639)
(X_309  0.21274511516094208)
(X_310  0.1931372582912445)
(X_311  0.18529412150382996)
(X_312  0.20490197837352753)
(X_313  0.23627452552318573)
(X_314  0.24803923070430756)
(X_315  0.24411766231060028)
(X_316  0.2598039209842682)
(X_317  0.35196080803871155)
(X_318  0.3284313976764679)
(X_319  0.30490198731422424)
(X_320  0.1931372582912445)
(X_321  0.2088235467672348)
(X_322  0.240196093916893)
(X_323  0.26764705777168274)
(X_324  0.2245098203420639)
(X_325  0.1303921639919281)
(X_326  0.020588237792253494)
(X_327  0.06960784643888474)
(X_328  0.08921568840742111)
(X_329  0.12058823555707932)
(X_330  0.12058823555707932)
(X_331  0.10490196198225021)
(X_332  -0.0029411755967885256)
(X_333  -0.006862743757665157)
(X_334  -0.006862743757665157)
(X_335  -0.010784312151372433)
(X_336  0.31078431010246277)
(X_337  0.3911764919757843)
(X_338  0.3637255132198334)
(X_339  0.35196080803871155)
(X_340  0.38333335518836975)
(X_341  0.4225490391254425)
(X_342  0.4264706075191498)
(X_343  0.29901960492134094)
(X_344  0.45000001788139343)
(X_345  0.457843154668808)
(X_346  0.457843154668808)
(X_347  0.33039215207099915)
(X_348  0.28333333134651184)
(X_349  0.2245098203420639)
(X_350  0.18137255311012268)
(X_351  0.25784313678741455)
(X_352  0.30490198731422424)
(X_353  0.2852941155433655)
(X_354  0.23823529481887817)
(X_355  0.16764706373214722)
(X_356  0.10098039358854294)
(X_357  0.07352941483259201)
(X_358  0.09313725680112839)
(X_359  0.12058823555707932)
(X_360  0.10882353037595749)
(X_361  0.10490196198225021)
(X_362  -0.0029411755967885256)
(X_363  -0.006862743757665157)
(X_364  0.31078431010246277)
(X_365  0.31470587849617004)
(X_366  0.3068627417087555)
(X_367  0.3950980603694916)
(X_368  0.41470590233802795)
(X_369  0.4382353127002716)
(X_370  0.31078431010246277)
(X_371  0.26372548937797546)
(X_372  0.2911764681339264)
(X_373  0.27941176295280457)
(X_374  0.28333333134651184)
(X_375  0.4107843339443207)
(X_376  0.3343137204647064)
(X_377  0.31078431010246277)
(X_378  0.24411766231060028)
(X_379  0.18529412150382996)
(X_380  0.20490197837352753)
(X_381  0.3088235557079315)
(X_382  0.30098041892051697)
(X_383  0.27352941036224365)
(X_384  0.23039215803146362)
(X_385  0.0833333432674408)
(X_386  0.04019607976078987)
(X_387  0.01666666939854622)
(X_388  0.11666666716337204)
(X_389  0.11274509876966476)
(X_390  0.004901961423456669)
(X_391  -0.0029411755967885256)
(X_392  0.31666669249534607)
(X_393  0.3558823764324188)
(X_394  0.26764705777168274)
(X_395  0.344117671251297)
(X_396  0.33627453446388245)
(X_397  0.35196080803871155)
(X_398  0.3401961028575897)
(X_399  0.3088235557079315)
(X_400  0.2970588207244873)
(X_401  0.2813725471496582)
(X_402  0.2852941155433655)
(X_403  0.33235296607017517)
(X_404  0.3029411733150482)
(X_405  0.3539215624332428)
(X_406  0.3578431308269501)
(X_407  0.34215685725212097)
(X_408  0.3068627417087555)
(X_409  0.24803923070430756)
(X_410  0.29313725233078003)
(X_411  0.2852941155433655)
(X_412  0.3127451241016388)
(X_413  0.30490198731422424)
(X_414  0.25)
(X_415  0.19117647409439087)
(X_416  0.0519607849419117)
(X_417  0.14411765336990356)
(X_418  0.036274511367082596)
(X_419  0.028431374579668045)
(X_420  0.12254902720451355)
(X_421  0.17352941632270813)
(X_422  0.18529412150382996)
(X_423  0.13431373238563538)
(X_424  0.09509804844856262)
(X_425  0.11078432202339172)
(X_426  0.23039215803146362)
(X_427  0.23039215803146362)
(X_428  0.22254902124404907)
(X_429  0.24215686321258545)
(X_430  0.16960784792900085)
(X_431  0.19705882668495178)
(X_432  0.2245098203420639)
(X_433  0.3558823764324188)
(X_434  0.2911764681339264)
(X_435  0.31470587849617004)
(X_436  0.4696078598499298)
(X_437  0.39901962876319885)
(X_438  0.3088235557079315)
(X_439  0.25)
(X_440  0.24607843160629272)
(X_441  0.2774509787559509)
(X_442  0.21274511516094208)
(X_443  0.23235295712947845)
(X_444  0.21274511516094208)
(X_445  0.20490197837352753)
(X_446  0.1931372582912445)
(X_447  0.2852941155433655)
(X_448  0.24607843160629272)
(X_449  0.24607843160629272)
(X_450  0.1460784375667572)
(X_451  0.13431373238563538)
(X_452  0.114705890417099)
(X_453  0.08725491166114807)
(X_454  0.06372549384832382)
(X_455  0.14803922176361084)
(X_456  0.1715686321258545)
(X_457  0.1872549057006836)
(X_458  0.21078431606292725)
(X_459  0.24215686321258545)
(X_460  0.27352941036224365)
(X_461  0.20098040997982025)
(X_462  0.22058825194835663)
(X_463  0.23235295712947845)
(X_464  0.2754901945590973)
(X_465  0.3029411733150482)
(X_466  0.28333333134651184)
(X_467  0.31666669249534607)
(X_468  0.27352941036224365)
(X_469  0.2696078419685364)
(X_470  0.25784313678741455)
(X_471  0.23039215803146362)
(X_472  0.24215686321258545)
(X_473  0.2539215683937073)
(X_474  0.2774509787559509)
(X_475  0.2970588207244873)
(X_476  0.11078432202339172)
(X_477  0.11078432202339172)
(X_478  0.20686274766921997)
(X_479  0.2029411792755127)
(X_480  0.09117648005485535)
(X_481  0.07156863063573837)
(X_482  0.05980392172932625)
(X_483  0.04803921654820442)
(X_484  0.1558823585510254)
(X_485  0.16764706373214722)
(X_486  0.0833333432674408)
(X_487  0.0990196168422699)
(X_488  0.11862745881080627)
(X_489  0.1303921639919281)
(X_490  0.14215686917304993)
(X_491  0.1460784375667572)
(X_492  0.15392157435417175)
(X_493  0.2245098203420639)
(X_494  0.2754901945590973)
(X_495  0.2754901945590973)
(X_496  0.3637255132198334)
(X_497  0.35196080803871155)
(X_498  0.31666669249534607)
(X_499  0.16960784792900085)
(X_500  0.2696078419685364)
(X_501  0.15392157435417175)
(X_502  0.13431373238563538)
(X_503  0.114705890417099)
(X_504  0.05980392172932625)
(X_505  0.05980392172932625)
(X_506  0.1558823585510254)
(X_507  0.05588235333561897)
(X_508  0.0519607849419117)
(X_509  0.14803922176361084)
(X_510  0.14411765336990356)
(X_511  0.14411765336990356)
(X_512  0.0519607849419117)
(X_513  0.05980392172932625)
(X_514  0.16764706373214722)
(X_515  0.07549020648002625)
(X_516  0.0833333432674408)
(X_517  0.08725491166114807)
(X_518  0.09117648005485535)
(X_519  0.09117648005485535)
(X_520  0.09509804844856262)
(X_521  0.15000000596046448)
(X_522  0.18921568989753723)
(X_523  0.19705882668495178)
(X_524  0.2088235467672348)
(X_525  0.344117671251297)
(X_526  0.3598039448261261)
(X_527  0.3480392396450043)
(X_528  0.2245098203420639)
(X_529  0.20490197837352753)
(X_530  0.17352941632270813)
(X_531  0.1460784375667572)
(X_532  0.12843137979507446)
(X_533  0.12450980395078659)
(X_534  0.12058823555707932)
(X_535  0.11666666716337204)
(X_536  0.01666666939854622)
(X_537  0.020588237792253494)
(X_538  0.028431374579668045)
(X_539  0.12843137979507446)
(X_540  0.036274511367082596)
(X_541  0.1401960849761963)
(X_542  0.14803922176361084)
(X_543  0.15980392694473267)
(X_544  0.0676470622420311)
(X_545  0.07156863063573837)
(X_546  0.07549020648002625)
(X_547  0.07549020648002625)
(X_548  0.19117647409439087)
(X_549  0.21078431606292725)
(X_550  0.11078432202339172)
(X_551  0.19509804248809814)
(X_552  0.21078431606292725)
(X_553  0.2696078419685364)
(X_554  0.2245098203420639)
(X_555  0.25196078419685364)
(X_556  0.32058826088905334)
(X_557  0.22058825194835663)
(X_558  0.3245098292827606)
(X_559  0.3245098292827606)
(X_560  0.01666666939854622)
(X_561  0.008823529817163944)
(X_562  0.004901961423456669)
(X_563  -0.0029411755967885256)
(X_564  -0.0029411755967885256)
(X_565  0.0009803927969187498)
(X_566  0.008823529817163944)
(X_567  0.012745101936161518)
(X_568  0.10490196198225021)
(X_569  0.10882353037595749)
(X_570  0.11666666716337204)
(X_571  0.02450980618596077)
(X_572  0.03235294297337532)
(X_573  0.04019607976078987)
(X_574  0.04019607976078987)
(X_575  0.04411764815449715)
(X_576  0.0519607849419117)
(X_577  0.07941177487373352)
(X_578  0.2029411792755127)
(X_579  0.20686274766921997)
(X_580  0.21078431606292725)
(X_581  0.22647058963775635)
(X_582  0.24607843160629272)
(X_583  0.2539215683937073)
(X_584  0.15784314274787903)
(X_585  0.16960784792900085)
(X_586  0.18529412150382996)
(X_587  0.20098040997982025)
(X_588  0.10882353037595749)
(X_589  0.004901961423456669)
(X_590  -0.0029411755967885256)
(X_591  -0.006862743757665157)
(X_592  -0.010784312151372433)
(X_593  -0.006862743757665157)
(X_594  0.09313725680112839)
(X_595  0.09705882519483566)
(X_596  0.10098039358854294)
(X_597  0.004901961423456669)
(X_598  0.008823529817163944)
(X_599  0.008823529817163944)
(X_600  0.012745101936161518)
(X_601  0.012745101936161518)
(X_602  0.008823529817163944)
(X_603  0.008823529817163944)
(X_604  0.11666666716337204)
(X_605  0.1401960849761963)
(X_606  0.16372549533843994)
(X_607  0.17549020051956177)
(X_608  0.1715686321258545)
(X_609  0.1715686321258545)
(X_610  0.07941177487373352)
(X_611  0.08725491166114807)
(X_612  0.13431373238563538)
(X_613  0.1303921639919281)
(X_614  0.12254902720451355)
(X_615  0.21470588445663452)
(X_616  0.10098039358854294)
(X_617  0.09705882519483566)
(X_618  -0.006862743757665157)
(X_619  -0.010784312151372433)
(X_620  -0.010784312151372433)
(X_621  0.08921568840742111)
(X_622  0.08921568840742111)
(X_623  0.08921568840742111)
(X_624  0.09705882519483566)
(X_625  0.10098039358854294)
(X_626  0.10098039358854294)
(X_627  0.10490196198225021)
(X_628  0.004901961423456669)
(X_629  0.0009803927969187498)
(X_630  0.0009803927969187498)
(X_631  -0.0029411755967885256)
(X_632  0.10490196198225021)
(X_633  0.10490196198225021)
(X_634  0.10490196198225021)
(X_635  0.10490196198225021)
(X_636  0.0009803927969187498)
(X_637  0.10882353037595749)
(X_638  0.1401960849761963)
(X_639  0.16764706373214722)
(X_640  0.21078431606292725)
(X_641  0.19901961088180542)
(X_642  0.17941176891326904)
(X_643  0.16372549533843994)
(X_644  0.08921568840742111)
(X_645  -0.010784312151372433)
(X_646  0.08921568840742111)
(X_647  0.08921568840742111)
(X_648  0.08921568840742111)
(X_649  0.08921568840742111)
(X_650  0.08921568840742111)
(X_651  0.08921568840742111)
(X_652  -0.026470588520169258)
(X_653  -0.026470588520169258)
(X_654  -0.018627449870109558)
(X_655  -0.014705880545079708)
(X_656  -0.010784312151372433)
(X_657  -0.010784312151372433)
(X_658  -0.010784312151372433)
(X_659  -0.010784312151372433)
(X_660  0.07745098322629929)
(X_661  0.08529412001371384)
(X_662  0.10098039358854294)
(X_663  0.10882353037595749)
(X_664  0.004901961423456669)
(X_665  0.0009803927969187498)
(X_666  0.01666666939854622)
(X_667  0.036274511367082596)
(X_668  0.04019607976078987)
(X_669  0.04019607976078987)
(X_670  0.036274511367082596)
(X_671  0.03235294297337532)
(X_672  0.08137255162000656)
(X_673  -0.018627449870109558)
(X_674  -0.018627449870109558)
(X_675  -0.018627449870109558)
(X_676  0.08137255162000656)
(X_677  0.08137255162000656)
(X_678  0.08137255162000656)
(X_679  0.08137255162000656)
(X_680  0.07745098322629929)
(X_681  0.07745098322629929)
(X_682  -0.022549020126461983)
(X_683  -0.018627449870109558)
(X_684  0.08137255162000656)
(X_685  -0.014705880545079708)
(X_686  -0.014705880545079708)
(X_687  -0.014705880545079708)
(X_688  0.08529412001371384)
(X_689  0.08529412001371384)
(X_690  0.08529412001371384)
(X_691  0.08921568840742111)
(X_692  0.08921568840742111)
(X_693  0.09313725680112839)
(X_694  0.09313725680112839)
(X_695  0.09313725680112839)
(X_696  0.12450980395078659)
(X_697  0.12058823555707932)
(X_698  0.11274509876966476)
(X_699  0.004901961423456669)
(X_700  0.08137255162000656)
(X_701  -0.018627449870109558)
(X_702  -0.018627449870109558)
(X_703  0.08137255162000656)
(X_704  0.08137255162000656)
(X_705  -0.018627449870109558)
(X_706  -0.018627449870109558)
(X_707  -0.018627449870109558)
(X_708  -0.022549020126461983)
(X_709  -0.022549020126461983)
(X_710  -0.022549020126461983)
(X_711  -0.018627449870109558)
(X_712  0.08137255162000656)
(X_713  -0.014705880545079708)
(X_714  -0.014705880545079708)
(X_715  -0.014705880545079708)
(X_716  -0.014705880545079708)
(X_717  -0.014705880545079708)
(X_718  -0.014705880545079708)
(X_719  -0.010784312151372433)
(X_720  -0.010784312151372433)
(X_721  -0.010784312151372433)
(X_722  -0.006862743757665157)
(X_723  -0.006862743757665157)
(X_724  0.11274509876966476)
(X_725  0.10882353037595749)
(X_726  0.10098039358854294)
(X_727  0.09705882519483566)
(X_728  0.08137255162000656)
(X_729  -0.018627449870109558)
(X_730  0.08137255162000656)
(X_731  0.08137255162000656)
(X_732  0.08137255162000656)
(X_733  0.08137255162000656)
(X_734  0.08137255162000656)
(X_735  0.08137255162000656)
(X_736  -0.022549020126461983)
(X_737  -0.022549020126461983)
(X_738  -0.022549020126461983)
(X_739  -0.018627449870109558)
(X_740  -0.018627449870109558)
(X_741  -0.014705880545079708)
(X_742  -0.014705880545079708)
(X_743  -0.014705880545079708)
(X_744  -0.014705880545079708)
(X_745  -0.014705880545079708)
(X_746  -0.014705880545079708)
(X_747  -0.014705880545079708)
(X_748  0.08921568840742111)
(X_749  0.08921568840742111)
(X_750  -0.010784312151372433)
(X_751  0.09313725680112839)
(X_752  0.09705882519483566)
(X_753  0.09313725680112839)
(X_754  0.08921568840742111)
(X_755  0.08529412001371384)
(X_756  0.08137255162000656)
(X_757  -0.018627449870109558)
(X_758  -0.018627449870109558)
(X_759  -0.018627449870109558)
(X_760  -0.018627449870109558)
(X_761  0.08137255162000656)
(X_762  0.08137255162000656)
(X_763  0.08137255162000656)
(X_764  0.07745098322629929)
(X_765  0.07745098322629929)
(X_766  -0.022549020126461983)
(X_767  -0.018627449870109558)
(X_768  -0.018627449870109558)
(X_769  -0.014705880545079708)
(X_770  -0.014705880545079708)
(X_771  -0.014705880545079708)
(X_772  -0.018627449870109558)
(X_773  -0.018627449870109558)
(X_774  -0.014705880545079708)
(X_775  -0.014705880545079708)
(X_776  -0.014705880545079708)
(X_777  0.08921568840742111)
(X_778  -0.010784312151372433)
(X_779  -0.010784312151372433)
(X_780  -0.014705880545079708)
(X_781  -0.014705880545079708)
(X_782  -0.018627449870109558)
(X_783  -0.018627449870109558)
(Y_0 -9.290974617004395)
(Y_1 16.928194046020508)
(Y_2 -6.205721855163574)
(Y_3 -0.8553023338317871))