((X_0  0.17549020051956177)
(X_1  0.19901961088180542)
(X_2  0.2029411792755127)
(X_3  0.1872549057006836)
(X_4  0.1872549057006836)
(X_5  0.2029411792755127)
(X_6  0.07941177487373352)
(X_7  0.03235294297337532)
(X_8  0.07156863063573837)
(X_9  0.2029411792755127)
(X_10  0.2029411792755127)
(X_11  0.07549020648002625)
(X_12  0.07941177487373352)
(X_13  0.20686274766921997)
(X_14  0.19117647409439087)
(X_15  0.04803921654820442)
(X_16  0.08725491166114807)
(X_17  0.05980392172932625)
(X_18  0.0990196168422699)
(X_19  0.11078432202339172)
(X_20  0.16764706373214722)
(X_21  0.2029411792755127)
(X_22  0.14215686917304993)
(X_23  0.09509804844856262)
(X_24  0.17549020051956177)
(X_25  0.18333333730697632)
(X_26  0.19509804248809814)
(X_27  0.2029411792755127)
(X_28  0.21078431606292725)
(X_29  0.11078432202339172)
(X_30  0.09117648005485535)
(X_31  0.07156863063573837)
(X_32  0.07156863063573837)
(X_33  0.0990196168422699)
(X_34  0.21470588445663452)
(X_35  0.21470588445663452)
(X_36  0.0519607849419117)
(X_37  0.1872549057006836)
(X_38  0.11078432202339172)
(X_39  0.114705890417099)
(X_40  0.12254902720451355)
(X_41  0.13431373238563538)
(X_42  0.13431373238563538)
(X_43  0.12254902720451355)
(X_44  0.19901961088180542)
(X_45  0.17549020051956177)
(X_46  0.20686274766921997)
(X_47  0.114705890417099)
(X_48  0.07549020648002625)
(X_49  0.0990196168422699)
(X_50  0.11862745881080627)
(X_51  0.0676470622420311)
(X_52  0.16372549533843994)
(X_53  0.1715686321258545)
(X_54  0.17549020051956177)
(X_55  0.17941176891326904)
(X_56  0.17941176891326904)
(X_57  0.07941177487373352)
(X_58  0.08725491166114807)
(X_59  0.09509804844856262)
(X_60  0.09117648005485535)
(X_61  0.07549020648002625)
(X_62  0.07156863063573837)
(X_63  0.0833333432674408)
(X_64  0.12254902720451355)
(X_65  0.12254902720451355)
(X_66  0.13431373238563538)
(X_67  0.1460784375667572)
(X_68  0.24607843160629272)
(X_69  0.1460784375667572)
(X_70  0.16568627953529358)
(X_71  0.1931372582912445)
(X_72  0.23235295712947845)
(X_73  0.18921568989753723)
(X_74  0.1617647111415863)
(X_75  0.11862745881080627)
(X_76  0.17549020051956177)
(X_77  0.19509804248809814)
(X_78  0.22254902124404907)
(X_79  0.19117647409439087)
(X_80  0.17941176891326904)
(X_81  0.18333333730697632)
(X_82  0.1872549057006836)
(X_83  0.19509804248809814)
(X_84  0.19901961088180542)
(X_85  0.1872549057006836)
(X_86  0.10294118523597717)
(X_87  0.1303921639919281)
(X_88  0.12254902720451355)
(X_89  0.08725491166114807)
(X_90  0.0833333432674408)
(X_91  0.11078432202339172)
(X_92  0.18921568989753723)
(X_93  0.1303921639919281)
(X_94  0.09117648005485535)
(X_95  0.09509804844856262)
(X_96  0.1872549057006836)
(X_97  0.16764706373214722)
(X_98  0.19509804248809814)
(X_99  0.25)
(X_100  0.1872549057006836)
(X_101  0.24607843160629272)
(X_102  0.33235296607017517)
(X_103  0.38333335518836975)
(X_104  0.3794117867946625)
(X_105  0.240196093916893)
(X_106  0.15784314274787903)
(X_107  0.07549020648002625)
(X_108  0.1872549057006836)
(X_109  0.17941176891326904)
(X_110  0.07156863063573837)
(X_111  0.16764706373214722)
(X_112  0.10294118523597717)
(X_113  0.06372549384832382)
(X_114  0.14803922176361084)
(X_115  0.16764706373214722)
(X_116  0.08725491166114807)
(X_117  0.10686275362968445)
(X_118  0.1617647111415863)
(X_119  0.2245098203420639)
(X_120  0.21666668355464935)
(X_121  0.13823530077934265)
(X_122  0.08725491166114807)
(X_123  0.09509804844856262)
(X_124  0.09509804844856262)
(X_125  0.06372549384832382)
(X_126  0.07549020648002625)
(X_127  0.12254902720451355)
(X_128  0.17549020051956177)
(X_129  0.2186274528503418)
(X_130  0.2539215683937073)
(X_131  0.2813725471496582)
(X_132  0.33627453446388245)
(X_133  0.387254923582077)
(X_134  0.3186274468898773)
(X_135  0.4382353127002716)
(X_136  0.22843138873577118)
(X_137  0.20490197837352753)
(X_138  0.17352941632270813)
(X_139  0.23823529481887817)
(X_140  0.22254902124404907)
(X_141  0.20686274766921997)
(X_142  0.20686274766921997)
(X_143  0.24607843160629272)
(X_144  0.1931372582912445)
(X_145  0.23235295712947845)
(X_146  0.2754901945590973)
(X_147  0.4107843339443207)
(X_148  0.25)
(X_149  0.19901961088180542)
(X_150  0.17941176891326904)
(X_151  0.2029411792755127)
(X_152  0.21078431606292725)
(X_153  0.1872549057006836)
(X_154  0.19117647409439087)
(X_155  0.22254902124404907)
(X_156  0.15000000596046448)
(X_157  0.2245098203420639)
(X_158  0.344117671251297)
(X_159  0.344117671251297)
(X_160  0.2754901945590973)
(X_161  0.28333333134651184)
(X_162  0.28333333134651184)
(X_163  0.41470590233802795)
(X_164  0.3656862676143646)
(X_165  0.34607842564582825)
(X_166  0.31470587849617004)
(X_167  0.387254923582077)
(X_168  0.29509803652763367)
(X_169  0.3029411733150482)
(X_170  0.3186274468898773)
(X_171  0.4382353127002716)
(X_172  0.46568629145622253)
(X_173  0.47745099663734436)
(X_174  0.3499999940395355)
(X_175  0.31078431010246277)
(X_176  0.17549020051956177)
(X_177  0.16372549533843994)
(X_178  0.16372549533843994)
(X_179  0.16764706373214722)
(X_180  0.15980392694473267)
(X_181  0.15980392694473267)
(X_182  0.0990196168422699)
(X_183  0.1460784375667572)
(X_184  0.5049019455909729)
(X_185  0.5401960611343384)
(X_186  0.46176472306251526)
(X_187  0.3558823764324188)
(X_188  0.2245098203420639)
(X_189  0.20490197837352753)
(X_190  0.2245098203420639)
(X_191  0.40294119715690613)
(X_192  0.40294119715690613)
(X_193  0.40294119715690613)
(X_194  0.29901960492134094)
(X_195  0.39901962876319885)
(X_196  0.44019606709480286)
(X_197  0.5245097875595093)
(X_198  0.48137256503105164)
(X_199  0.33039215207099915)
(X_200  0.3186274468898773)
(X_201  0.41862747073173523)
(X_202  0.3637255132198334)
(X_203  0.29313725233078003)
(X_204  0.27352941036224365)
(X_205  0.2774509787559509)
(X_206  0.2656862735748291)
(X_207  0.23039215803146362)
(X_208  0.09509804844856262)
(X_209  0.114705890417099)
(X_210  0.20098040997982025)
(X_211  0.27941176295280457)
(X_212  0.46176472306251526)
(X_213  0.5558823943138123)
(X_214  0.44019606709480286)
(X_215  0.36176469922065735)
(X_216  0.31470587849617004)
(X_217  0.23627452552318573)
(X_218  0.2852941155433655)
(X_219  0.33235296607017517)
(X_220  0.3480392396450043)
(X_221  0.2558823525905609)
(X_222  0.26372548937797546)
(X_223  0.3754902184009552)
(X_224  0.3539215624332428)
(X_225  0.34215685725212097)
(X_226  0.3225490152835846)
(X_227  0.2911764681339264)
(X_228  0.2598039209842682)
(X_229  0.22843138873577118)
(X_230  0.20098040997982025)
(X_231  0.18529412150382996)
(X_232  0.28921568393707275)
(X_233  0.23235295712947845)
(X_234  0.24411766231060028)
(X_235  0.22843138873577118)
(X_236  0.2558823525905609)
(X_237  0.3186274468898773)
(X_238  0.32647058367729187)
(X_239  0.28333333134651184)
(X_240  0.3578431308269501)
(X_241  0.31078431010246277)
(X_242  0.3794117867946625)
(X_243  0.40294119715690613)
(X_244  0.4421568810939789)
(X_245  0.4225490391254425)
(X_246  0.33235296607017517)
(X_247  0.24215686321258545)
(X_248  0.1774509847164154)
(X_249  0.2852941155433655)
(X_250  0.20490197837352753)
(X_251  0.23235295712947845)
(X_252  0.387254923582077)
(X_253  0.27941176295280457)
(X_254  0.2598039209842682)
(X_255  0.23627452552318573)
(X_256  0.3088235557079315)
(X_257  0.2813725471496582)
(X_258  0.25784313678741455)
(X_259  0.1460784375667572)
(X_260  0.2754901945590973)
(X_261  0.31470587849617004)
(X_262  0.3343137204647064)
(X_263  0.34215685725212097)
(X_264  0.3892156779766083)
(X_265  0.42843136191368103)
(X_266  0.48137256503105164)
(X_267  0.39901962876319885)
(X_268  0.36764708161354065)
(X_269  0.3284313976764679)
(X_270  0.30490198731422424)
(X_271  0.33235296607017517)
(X_272  0.3754902184009552)
(X_273  0.3754902184009552)
(X_274  0.31666669249534607)
(X_275  0.15392157435417175)
(X_276  0.24215686321258545)
(X_277  0.25784313678741455)
(X_278  0.18529412150382996)
(X_279  0.20098040997982025)
(X_280  0.31470587849617004)
(X_281  0.3068627417087555)
(X_282  0.29509803652763367)
(X_283  0.27941176295280457)
(X_284  0.2598039209842682)
(X_285  0.3401961028575897)
(X_286  0.32058826088905334)
(X_287  0.3127451241016388)
(X_288  0.3225490152835846)
(X_289  0.3499999940395355)
(X_290  0.3696078360080719)
(X_291  0.4009803831577301)
(X_292  0.45196080207824707)
(X_293  0.46764707565307617)
(X_294  0.37745097279548645)
(X_295  0.3558823764324188)
(X_296  0.2774509787559509)
(X_297  0.15392157435417175)
(X_298  0.13823530077934265)
(X_299  0.1617647111415863)
(X_300  0.30490198731422424)
(X_301  0.3284313976764679)
(X_302  0.31666669249534607)
(X_303  0.1931372582912445)
(X_304  0.12647059559822083)
(X_305  0.1617647111415863)
(X_306  0.20490197837352753)
(X_307  0.23627452552318573)
(X_308  0.4382353127002716)
(X_309  0.43431374430656433)
(X_310  0.33039215207099915)
(X_311  0.3186274468898773)
(X_312  0.3068627417087555)
(X_313  0.3950980603694916)
(X_314  0.38333335518836975)
(X_315  0.3754902184009552)
(X_316  0.39901962876319885)
(X_317  0.4107843339443207)
(X_318  0.41862747073173523)
(X_319  0.4382353127002716)
(X_320  0.47745099663734436)
(X_321  0.3813725411891937)
(X_322  0.29509803652763367)
(X_323  0.18921568989753723)
(X_324  0.24215686321258545)
(X_325  0.12647059559822083)
(X_326  0.114705890417099)
(X_327  0.12647059559822083)
(X_328  0.1617647111415863)
(X_329  0.2970588207244873)
(X_330  0.31666669249534607)
(X_331  0.3245098292827606)
(X_332  0.27156862616539)
(X_333  0.41470590233802795)
(X_334  0.3656862676143646)
(X_335  0.39313724637031555)
(X_336  0.3401961028575897)
(X_337  0.3401961028575897)
(X_338  0.33627453446388245)
(X_339  0.33235296607017517)
(X_340  0.3245098292827606)
(X_341  0.31666669249534607)
(X_342  0.2088235467672348)
(X_343  0.20490197837352753)
(X_344  0.3480392396450043)
(X_345  0.3480392396450043)
(X_346  0.23627452552318573)
(X_347  0.2245098203420639)
(X_348  0.23627452552318573)
(X_349  0.24803923070430756)
(X_350  0.20490197837352753)
(X_351  0.25)
(X_352  0.22647058963775635)
(X_353  0.21470588445663452)
(X_354  0.2029411792755127)
(X_355  0.2029411792755127)
(X_356  0.2186274528503418)
(X_357  0.24607843160629272)
(X_358  0.2813725471496582)
(X_359  0.30490198731422424)
(X_360  0.2656862735748291)
(X_361  0.29313725233078003)
(X_362  0.21666668355464935)
(X_363  0.21666668355464935)
(X_364  0.15000000596046448)
(X_365  0.25)
(X_366  0.25)
(X_367  0.1460784375667572)
(X_368  0.14215686917304993)
(X_369  0.2343137264251709)
(X_370  0.23039215803146362)
(X_371  0.12647059559822083)
(X_372  0.17352941632270813)
(X_373  0.16960784792900085)
(X_374  0.1460784375667572)
(X_375  0.2186274528503418)
(X_376  0.114705890417099)
(X_377  0.1303921639919281)
(X_378  0.12647059559822083)
(X_379  0.11078432202339172)
(X_380  0.19509804248809814)
(X_381  0.1872549057006836)
(X_382  0.17549020051956177)
(X_383  0.0676470622420311)
(X_384  0.07156863063573837)
(X_385  0.1872549057006836)
(X_386  0.21470588445663452)
(X_387  0.2343137264251709)
(X_388  0.21470588445663452)
(X_389  0.22254902124404907)
(X_390  0.22254902124404907)
(X_391  0.114705890417099)
(X_392  0.2186274528503418)
(X_393  0.21470588445663452)
(X_394  0.21470588445663452)
(X_395  0.21078431606292725)
(X_396  0.20686274766921997)
(X_397  0.19901961088180542)
(X_398  0.09509804844856262)
(X_399  0.09117648005485535)
(X_400  0.09509804844856262)
(X_401  0.09509804844856262)
(X_402  0.07941177487373352)
(X_403  0.16764706373214722)
(X_404  0.16764706373214722)
(X_405  0.07941177487373352)
(X_406  0.07156863063573837)
(X_407  0.15980392694473267)
(X_408  0.16372549533843994)
(X_409  0.15980392694473267)
(X_410  0.1558823585510254)
(X_411  0.14803922176361084)
(X_412  0.14411765336990356)
(X_413  0.15196079015731812)
(X_414  0.16372549533843994)
(X_415  0.17549020051956177)
(X_416  0.0990196168422699)
(X_417  0.0990196168422699)
(X_418  0.0990196168422699)
(X_419  0.10294118523597717)
(X_420  0.17941176891326904)
(X_421  0.07549020648002625)
(X_422  0.07549020648002625)
(X_423  0.07156863063573837)
(X_424  0.0676470622420311)
(X_425  0.05980392172932625)
(X_426  0.0519607849419117)
(X_427  0.04803921654820442)
(X_428  0.05980392172932625)
(X_429  0.05980392172932625)
(X_430  0.05980392172932625)
(X_431  0.0676470622420311)
(X_432  0.0833333432674408)
(X_433  0.18333333730697632)
(X_434  0.05980392172932625)
(X_435  0.03235294297337532)
(X_436  0.14803922176361084)
(X_437  0.14803922176361084)
(X_438  0.14803922176361084)
(X_439  0.14803922176361084)
(X_440  0.14803922176361084)
(X_441  0.14803922176361084)
(X_442  0.0519607849419117)
(X_443  0.05588235333561897)
(X_444  0.0833333432674408)
(X_445  0.07941177487373352)
(X_446  0.07941177487373352)
(X_447  0.18333333730697632)
(X_448  0.16764706373214722)
(X_449  0.16372549533843994)
(X_450  0.16372549533843994)
(X_451  0.15980392694473267)
(X_452  0.15980392694473267)
(X_453  0.1558823585510254)
(X_454  0.1558823585510254)
(X_455  0.15196079015731812)
(X_456  0.1558823585510254)
(X_457  0.1558823585510254)
(X_458  0.15196079015731812)
(X_459  0.04803921654820442)
(X_460  0.04019607976078987)
(X_461  0.036274511367082596)
(X_462  0.03235294297337532)
(X_463  0.03235294297337532)
(X_464  0.04411764815449715)
(X_465  0.04019607976078987)
(X_466  0.136274516582489)
(X_467  0.136274516582489)
(X_468  0.136274516582489)
(X_469  0.1401960849761963)
(X_470  0.14411765336990356)
(X_471  0.14803922176361084)
(X_472  0.04411764815449715)
(X_473  0.14411765336990356)
(X_474  0.14411765336990356)
(X_475  0.14411765336990356)
(X_476  0.02450980618596077)
(X_477  0.12450980395078659)
(X_478  0.12843137979507446)
(X_479  0.13235294818878174)
(X_480  0.136274516582489)
(X_481  0.04411764815449715)
(X_482  0.04803921654820442)
(X_483  0.14803922176361084)
(X_484  0.1401960849761963)
(X_485  0.1401960849761963)
(X_486  0.04411764815449715)
(X_487  0.04803921654820442)
(X_488  0.0519607849419117)
(X_489  0.05588235333561897)
(X_490  0.05980392172932625)
(X_491  0.05980392172932625)
(X_492  0.02450980618596077)
(X_493  0.12450980395078659)
(X_494  0.12450980395078659)
(X_495  0.12450980395078659)
(X_496  0.12843137979507446)
(X_497  0.1401960849761963)
(X_498  0.14803922176361084)
(X_499  0.0519607849419117)
(X_500  0.04803921654820442)
(X_501  0.04803921654820442)
(X_502  0.0519607849419117)
(X_503  0.0519607849419117)
(X_504  0.1401960849761963)
(X_505  0.04019607976078987)
(X_506  0.04019607976078987)
(X_507  0.036274511367082596)
(X_508  0.036274511367082596)
(X_509  0.036274511367082596)
(X_510  0.03235294297337532)
(X_511  0.03235294297337532)
(X_512  0.02450980618596077)
(X_513  0.02450980618596077)
(X_514  0.02450980618596077)
(X_515  0.02450980618596077)
(X_516  0.02450980618596077)
(X_517  0.02450980618596077)
(X_518  0.02450980618596077)
(X_519  0.02450980618596077)
(X_520  0.04411764815449715)
(X_521  0.04019607976078987)
(X_522  0.136274516582489)
(X_523  0.028431374579668045)
(X_524  0.028431374579668045)
(X_525  0.02450980618596077)
(X_526  0.028431374579668045)
(X_527  0.12843137979507446)
(X_528  0.012745101936161518)
(X_529  0.012745101936161518)
(X_530  0.01666666939854622)
(X_531  0.11666666716337204)
(X_532  0.12058823555707932)
(X_533  0.11666666716337204)
(X_534  0.11666666716337204)
(X_535  0.11274509876966476)
(X_536  0.10882353037595749)
(X_537  0.004901961423456669)
(X_538  0.004901961423456669)
(X_539  0.10098039358854294)
(X_540  0.028431374579668045)
(X_541  0.028431374579668045)
(X_542  0.12843137979507446)
(X_543  0.028431374579668045)
(X_544  0.12450980395078659)
(X_545  0.12450980395078659)
(X_546  0.02450980618596077)
(X_547  0.02450980618596077)
(X_548  0.13235294818878174)
(X_549  0.12843137979507446)
(X_550  0.12450980395078659)
(X_551  0.12058823555707932)
(X_552  0.11666666716337204)
(X_553  0.11666666716337204)
(X_554  0.01666666939854622)
(X_555  0.012745101936161518)
(X_556  0.12450980395078659)
(X_557  0.02450980618596077)
(X_558  0.02450980618596077)
(X_559  0.12450980395078659)
(X_560  0.12843137979507446)
(X_561  0.03235294297337532)
(X_562  0.03235294297337532)
(X_563  0.036274511367082596)
(X_564  0.036274511367082596)
(X_565  0.1401960849761963)
(X_566  0.1401960849761963)
(X_567  0.14411765336990356)
(X_568  0.01666666939854622)
(X_569  0.12058823555707932)
(X_570  0.12450980395078659)
(X_571  0.028431374579668045)
(X_572  0.03235294297337532)
(X_573  0.036274511367082596)
(X_574  0.04019607976078987)
(X_575  0.04411764815449715)
(X_576  0.008823529817163944)
(X_577  0.008823529817163944)
(X_578  0.11666666716337204)
(X_579  0.12058823555707932)
(X_580  0.12450980395078659)
(X_581  0.12843137979507446)
(X_582  0.12843137979507446)
(X_583  0.13235294818878174)
(X_584  0.11274509876966476)
(X_585  0.008823529817163944)
(X_586  0.004901961423456669)
(X_587  0.004901961423456669)
(X_588  0.16372549533843994)
(X_589  0.05980392172932625)
(X_590  0.15196079015731812)
(X_591  0.14411765336990356)
(X_592  0.03235294297337532)
(X_593  0.020588237792253494)
(X_594  0.11274509876966476)
(X_595  0.10882353037595749)
(X_596  0.14411765336990356)
(X_597  0.1401960849761963)
(X_598  0.03235294297337532)
(X_599  0.02450980618596077)
(X_600  0.012745101936161518)
(X_601  0.004901961423456669)
(X_602  -0.0029411755967885256)
(X_603  -0.006862743757665157)
(X_604  0.04803921654820442)
(X_605  0.04411764815449715)
(X_606  0.1401960849761963)
(X_607  0.13235294818878174)
(X_608  0.12058823555707932)
(X_609  0.10882353037595749)
(X_610  0.10098039358854294)
(X_611  0.09313725680112839)
(X_612  0.03235294297337532)
(X_613  0.028431374579668045)
(X_614  0.020588237792253494)
(X_615  0.11666666716337204)
(X_616  0.8068627715110779)
(X_617  0.6990196108818054)
(X_618  0.6872549057006836)
(X_619  0.6715686321258545)
(X_620  0.6519607901573181)
(X_621  0.7362745404243469)
(X_622  0.7245098352432251)
(X_623  0.7166666984558105)
(X_624  0.6774510145187378)
(X_625  0.6696078777313232)
(X_626  0.6578431725502014)
(X_627  0.638235330581665)
(X_628  0.522549033164978)
(X_629  0.5029411911964417)
(X_630  0.4911764860153198)
(X_631  0.5833333730697632)
(X_632  0.4892157018184662)
(X_633  0.385294109582901)
(X_634  0.3735294044017792)
(X_635  0.3539215624332428)
(X_636  0.33039215207099915)
(X_637  0.4068627655506134)
(X_638  0.387254923582077)
(X_639  0.27156862616539)
(X_640  0.22843138873577118)
(X_641  0.2245098203420639)
(X_642  0.3127451241016388)
(X_643  0.30490198731422424)
(X_644  0.9421568512916565)
(X_645  0.9421568512916565)
(X_646  1.0460784435272217)
(X_647  1.0460784435272217)
(X_648  1.0499999523162842)
(X_649  0.949999988079071)
(X_650  0.949999988079071)
(X_651  1.0499999523162842)
(X_652  1.0460784435272217)
(X_653  1.0460784435272217)
(X_654  1.0460784435272217)
(X_655  1.0460784435272217)
(X_656  0.9460784196853638)
(X_657  0.9460784196853638)
(X_658  0.9460784196853638)
(X_659  0.9460784196853638)
(X_660  1.0499999523162842)
(X_661  1.0499999523162842)
(X_662  1.0499999523162842)
(X_663  1.0499999523162842)
(X_664  0.9421568512916565)
(X_665  1.0303921699523926)
(X_666  1.018627405166626)
(X_667  0.9107843041419983)
(X_668  0.9147058725357056)
(X_669  0.906862735748291)
(X_670  0.8950980305671692)
(X_671  0.8833333253860474)
(X_672  1.0499999523162842)
(X_673  0.949999988079071)
(X_674  0.949999988079071)
(X_675  0.949999988079071)
(X_676  0.949999988079071)
(X_677  1.0499999523162842)
(X_678  0.949999988079071)
(X_679  0.949999988079071)
(X_680  1.0499999523162842)
(X_681  1.0499999523162842)
(X_682  1.0499999523162842)
(X_683  1.0499999523162842)
(X_684  1.0499999523162842)
(X_685  1.0499999523162842)
(X_686  0.949999988079071)
(X_687  0.949999988079071)
(X_688  1.0499999523162842)
(X_689  1.0499999523162842)
(X_690  0.949999988079071)
(X_691  0.949999988079071)
(X_692  1.0499999523162842)
(X_693  1.0499999523162842)
(X_694  0.949999988079071)
(X_695  0.949999988079071)
(X_696  0.949999988079071)
(X_697  1.0499999523162842)
(X_698  1.0499999523162842)
(X_699  1.0499999523162842)
(X_700  1.0499999523162842)
(X_701  0.949999988079071)
(X_702  0.949999988079071)
(X_703  0.949999988079071)
(X_704  0.949999988079071)
(X_705  0.949999988079071)
(X_706  0.949999988079071)
(X_707  0.949999988079071)
(X_708  0.949999988079071)
(X_709  0.949999988079071)
(X_710  1.0499999523162842)
(X_711  1.0499999523162842)
(X_712  1.0499999523162842)
(X_713  1.0499999523162842)
(X_714  0.949999988079071)
(X_715  0.949999988079071)
(X_716  1.0499999523162842)
(X_717  0.949999988079071)
(X_718  0.949999988079071)
(X_719  0.949999988079071)
(X_720  1.0499999523162842)
(X_721  1.0499999523162842)
(X_722  0.949999988079071)
(X_723  0.949999988079071)
(X_724  1.0499999523162842)
(X_725  1.0499999523162842)
(X_726  1.0499999523162842)
(X_727  1.0499999523162842)
(X_728  1.0499999523162842)
(X_729  0.949999988079071)
(X_730  1.0499999523162842)
(X_731  1.0499999523162842)
(X_732  0.949999988079071)
(X_733  0.949999988079071)
(X_734  0.949999988079071)
(X_735  0.949999988079071)
(X_736  1.0499999523162842)
(X_737  1.0499999523162842)
(X_738  1.0499999523162842)
(X_739  1.0499999523162842)
(X_740  1.0499999523162842)
(X_741  1.0499999523162842)
(X_742  1.0499999523162842)
(X_743  1.0499999523162842)
(X_744  0.949999988079071)
(X_745  1.0499999523162842)
(X_746  1.0499999523162842)
(X_747  0.949999988079071)
(X_748  0.949999988079071)
(X_749  0.949999988079071)
(X_750  0.949999988079071)
(X_751  0.949999988079071)
(X_752  0.949999988079071)
(X_753  1.0499999523162842)
(X_754  1.0499999523162842)
(X_755  1.0499999523162842)
(X_756  1.0499999523162842)
(X_757  0.949999988079071)
(X_758  0.949999988079071)
(X_759  0.949999988079071)
(X_760  0.949999988079071)
(X_761  1.0499999523162842)
(X_762  1.0499999523162842)
(X_763  1.0499999523162842)
(X_764  1.0499999523162842)
(X_765  1.0499999523162842)
(X_766  0.949999988079071)
(X_767  0.949999988079071)
(X_768  0.949999988079071)
(X_769  0.949999988079071)
(X_770  0.949999988079071)
(X_771  0.949999988079071)
(X_772  0.949999988079071)
(X_773  0.949999988079071)
(X_774  0.949999988079071)
(X_775  0.949999988079071)
(X_776  1.0499999523162842)
(X_777  0.949999988079071)
(X_778  0.949999988079071)
(X_779  0.949999988079071)
(X_780  0.949999988079071)
(X_781  0.949999988079071)
(X_782  0.949999988079071)
(X_783  0.949999988079071)
(Y_0 -23.638011932373047)
(Y_1 42.83987808227539)
(Y_2 -22.95512580871582)
(Y_3 3.8068861961364746))