((X_0  1.0421568155288696)
(X_1  0.9460784196853638)
(X_2  0.949999988079071)
(X_3  0.949999988079071)
(X_4  0.949999988079071)
(X_5  1.0499999523162842)
(X_6  0.949999988079071)
(X_7  0.949999988079071)
(X_8  1.0499999523162842)
(X_9  1.0499999523162842)
(X_10  1.0460784435272217)
(X_11  0.9460784196853638)
(X_12  0.9460784196853638)
(X_13  0.9460784196853638)
(X_14  1.0499999523162842)
(X_15  0.949999988079071)
(X_16  0.949999988079071)
(X_17  0.949999988079071)
(X_18  0.949999988079071)
(X_19  0.949999988079071)
(X_20  1.0499999523162842)
(X_21  1.0499999523162842)
(X_22  1.0499999523162842)
(X_23  0.949999988079071)
(X_24  1.0499999523162842)
(X_25  1.0499999523162842)
(X_26  1.0499999523162842)
(X_27  1.0499999523162842)
(X_28  1.0499999523162842)
(X_29  1.0460784435272217)
(X_30  1.0303921699523926)
(X_31  1.022549033164978)
(X_32  0.9225490093231201)
(X_33  0.9343137145042419)
(X_34  1.0460784435272217)
(X_35  1.0499999523162842)
(X_36  1.0499999523162842)
(X_37  0.949999988079071)
(X_38  0.949999988079071)
(X_39  0.949999988079071)
(X_40  0.9460784196853638)
(X_41  0.9421568512916565)
(X_42  0.9421568512916565)
(X_43  0.9382352828979492)
(X_44  1.0499999523162842)
(X_45  1.0499999523162842)
(X_46  1.0499999523162842)
(X_47  0.949999988079071)
(X_48  0.949999988079071)
(X_49  0.949999988079071)
(X_50  0.949999988079071)
(X_51  0.949999988079071)
(X_52  1.0499999523162842)
(X_53  1.0499999523162842)
(X_54  1.0499999523162842)
(X_55  1.0499999523162842)
(X_56  1.0499999523162842)
(X_57  0.949999988079071)
(X_58  0.949999988079071)
(X_59  0.949999988079071)
(X_60  0.949999988079071)
(X_61  0.949999988079071)
(X_62  0.949999988079071)
(X_63  0.949999988079071)
(X_64  0.9421568512916565)
(X_65  0.9460784196853638)
(X_66  0.9460784196853638)
(X_67  0.9460784196853638)
(X_68  0.949999988079071)
(X_69  0.949999988079071)
(X_70  0.949999988079071)
(X_71  0.949999988079071)
(X_72  0.949999988079071)
(X_73  0.949999988079071)
(X_74  0.949999988079071)
(X_75  0.949999988079071)
(X_76  0.949999988079071)
(X_77  1.0499999523162842)
(X_78  1.0499999523162842)
(X_79  1.0499999523162842)
(X_80  1.0460784435272217)
(X_81  1.0460784435272217)
(X_82  1.0460784435272217)
(X_83  1.0460784435272217)
(X_84  1.0382353067398071)
(X_85  1.0421568155288696)
(X_86  1.0460784435272217)
(X_87  1.0460784435272217)
(X_88  0.9460784196853638)
(X_89  0.9421568512916565)
(X_90  0.9382352828979492)
(X_91  0.9343137145042419)
(X_92  0.9421568512916565)
(X_93  0.9421568512916565)
(X_94  0.9460784196853638)
(X_95  0.949999988079071)
(X_96  1.0499999523162842)
(X_97  1.0499999523162842)
(X_98  1.0499999523162842)
(X_99  1.0499999523162842)
(X_100  1.0499999523162842)
(X_101  1.0499999523162842)
(X_102  1.0499999523162842)
(X_103  1.0499999523162842)
(X_104  0.949999988079071)
(X_105  0.949999988079071)
(X_106  0.949999988079071)
(X_107  0.949999988079071)
(X_108  0.949999988079071)
(X_109  0.949999988079071)
(X_110  0.949999988079071)
(X_111  0.949999988079071)
(X_112  0.8990195989608765)
(X_113  0.9872549176216125)
(X_114  0.9676470756530762)
(X_115  0.8519607782363892)
(X_116  0.8519607782363892)
(X_117  0.863725483417511)
(X_118  0.8833333253860474)
(X_119  0.8990195989608765)
(X_120  0.979411780834198)
(X_121  0.8754901885986328)
(X_122  0.8715686202049255)
(X_123  0.9676470756530762)
(X_124  0.9676470756530762)
(X_125  0.8715686202049255)
(X_126  0.8754901885986328)
(X_127  0.8794117569923401)
(X_128  0.9872549176216125)
(X_129  0.9872549176216125)
(X_130  0.9872549176216125)
(X_131  0.9911764860153198)
(X_132  0.9911764860153198)
(X_133  0.8950980305671692)
(X_134  0.9950980544090271)
(X_135  0.9950980544090271)
(X_136  1.0029411315917969)
(X_137  1.0029411315917969)
(X_138  1.0029411315917969)
(X_139  1.0029411315917969)
(X_140  0.1774509847164154)
(X_141  0.29313725233078003)
(X_142  0.3127451241016388)
(X_143  0.22843138873577118)
(X_144  0.23235295712947845)
(X_145  0.22058825194835663)
(X_146  0.20098040997982025)
(X_147  0.28921568393707275)
(X_148  0.30490198731422424)
(X_149  0.2970588207244873)
(X_150  0.28921568393707275)
(X_151  0.28921568393707275)
(X_152  0.29313725233078003)
(X_153  0.30490198731422424)
(X_154  0.32058826088905334)
(X_155  0.33235296607017517)
(X_156  0.3245098292827606)
(X_157  0.3284313976764679)
(X_158  0.3284313976764679)
(X_159  0.33235296607017517)
(X_160  0.33627453446388245)
(X_161  0.23627452552318573)
(X_162  0.240196093916893)
(X_163  0.3401961028575897)
(X_164  0.3637255132198334)
(X_165  0.3637255132198334)
(X_166  0.26372548937797546)
(X_167  0.3637255132198334)
(X_168  0.27352941036224365)
(X_169  0.30490198731422424)
(X_170  0.3480392396450043)
(X_171  0.3794117867946625)
(X_172  0.38333335518836975)
(X_173  0.3598039448261261)
(X_174  0.2245098203420639)
(X_175  0.19705882668495178)
(X_176  0.2186274528503418)
(X_177  0.19901961088180542)
(X_178  0.0676470622420311)
(X_179  0.04019607976078987)
(X_180  0.02450980618596077)
(X_181  0.020588237792253494)
(X_182  0.028431374579668045)
(X_183  0.036274511367082596)
(X_184  0.12058823555707932)
(X_185  0.12058823555707932)
(X_186  0.12450980395078659)
(X_187  0.12450980395078659)
(X_188  0.12843137979507446)
(X_189  0.13235294818878174)
(X_190  0.036274511367082596)
(X_191  0.036274511367082596)
(X_192  0.15196079015731812)
(X_193  0.15196079015731812)
(X_194  0.15196079015731812)
(X_195  0.15196079015731812)
(X_196  0.32647058367729187)
(X_197  0.41470590233802795)
(X_198  0.29509803652763367)
(X_199  0.2872548997402191)
(X_200  0.29509803652763367)
(X_201  0.31470587849617004)
(X_202  0.34215685725212097)
(X_203  0.3578431308269501)
(X_204  0.3539215624332428)
(X_205  0.31470587849617004)
(X_206  0.344117671251297)
(X_207  0.2656862735748291)
(X_208  0.0990196168422699)
(X_209  0.0519607849419117)
(X_210  0.03235294297337532)
(X_211  0.020588237792253494)
(X_212  0.12450980395078659)
(X_213  0.12450980395078659)
(X_214  0.12843137979507446)
(X_215  0.13235294818878174)
(X_216  0.136274516582489)
(X_217  0.1401960849761963)
(X_218  0.1401960849761963)
(X_219  0.14411765336990356)
(X_220  0.1401960849761963)
(X_221  0.1401960849761963)
(X_222  0.1401960849761963)
(X_223  0.1401960849761963)
(X_224  0.2598039209842682)
(X_225  0.2754901945590973)
(X_226  0.3911764919757843)
(X_227  0.4068627655506134)
(X_228  0.4068627655506134)
(X_229  0.2911764681339264)
(X_230  0.2754901945590973)
(X_231  0.2598039209842682)
(X_232  0.3794117867946625)
(X_233  0.387254923582077)
(X_234  0.3578431308269501)
(X_235  0.42843136191368103)
(X_236  0.3578431308269501)
(X_237  0.18529412150382996)
(X_238  0.0676470622420311)
(X_239  0.1558823585510254)
(X_240  0.03235294297337532)
(X_241  0.12843137979507446)
(X_242  0.12450980395078659)
(X_243  0.12843137979507446)
(X_244  0.136274516582489)
(X_245  0.1401960849761963)
(X_246  0.136274516582489)
(X_247  0.03235294297337532)
(X_248  0.028431374579668045)
(X_249  0.036274511367082596)
(X_250  0.04803921654820442)
(X_251  0.15980392694473267)
(X_252  0.4205882251262665)
(X_253  0.40882351994514465)
(X_254  0.385294109582901)
(X_255  0.3735294044017792)
(X_256  0.4735294282436371)
(X_257  0.4852941334247589)
(X_258  0.5088235139846802)
(X_259  0.520588219165802)
(X_260  0.3892156779766083)
(X_261  0.36176469922065735)
(X_262  0.3343137204647064)
(X_263  0.33039215207099915)
(X_264  0.32647058367729187)
(X_265  0.39901962876319885)
(X_266  0.35196080803871155)
(X_267  0.31666669249534607)
(X_268  0.17941176891326904)
(X_269  0.16372549533843994)
(X_270  0.14411765336990356)
(X_271  0.13235294818878174)
(X_272  0.13235294818878174)
(X_273  0.1401960849761963)
(X_274  0.14411765336990356)
(X_275  0.04411764815449715)
(X_276  0.028431374579668045)
(X_277  0.028431374579668045)
(X_278  0.03235294297337532)
(X_279  0.03235294297337532)
(X_280  0.23823529481887817)
(X_281  0.21078431606292725)
(X_282  0.17549020051956177)
(X_283  0.04803921654820442)
(X_284  0.04803921654820442)
(X_285  0.17549020051956177)
(X_286  0.21078431606292725)
(X_287  0.23823529481887817)
(X_288  0.2088235467672348)
(X_289  0.3068627417087555)
(X_290  0.3499999940395355)
(X_291  0.3950980603694916)
(X_292  0.25196078419685364)
(X_293  0.2754901945590973)
(X_294  0.29509803652763367)
(X_295  0.28333333134651184)
(X_296  0.3950980603694916)
(X_297  0.23235295712947845)
(X_298  0.14215686917304993)
(X_299  0.06372549384832382)
(X_300  0.12450980395078659)
(X_301  0.12450980395078659)
(X_302  0.14411765336990356)
(X_303  0.06372549384832382)
(X_304  0.03235294297337532)
(X_305  0.13235294818878174)
(X_306  0.028431374579668045)
(X_307  0.12450980395078659)
(X_308  0.06372549384832382)
(X_309  0.1558823585510254)
(X_310  0.14411765336990356)
(X_311  0.136274516582489)
(X_312  0.036274511367082596)
(X_313  0.04411764815449715)
(X_314  0.05588235333561897)
(X_315  0.06372549384832382)
(X_316  0.16764706373214722)
(X_317  0.19901961088180542)
(X_318  0.22254902124404907)
(X_319  0.2617647051811218)
(X_320  0.26372548937797546)
(X_321  0.34607842564582825)
(X_322  0.3029411733150482)
(X_323  0.19705882668495178)
(X_324  0.25196078419685364)
(X_325  0.27156862616539)
(X_326  0.29509803652763367)
(X_327  0.39901962876319885)
(X_328  0.3598039448261261)
(X_329  0.2774509787559509)
(X_330  0.18333333730697632)
(X_331  0.11666666716337204)
(X_332  0.04019607976078987)
(X_333  0.028431374579668045)
(X_334  0.012745101936161518)
(X_335  0.0009803927969187498)
(X_336  0.036274511367082596)
(X_337  0.14411765336990356)
(X_338  0.15196079015731812)
(X_339  0.15980392694473267)
(X_340  0.05980392172932625)
(X_341  0.15196079015731812)
(X_342  0.14411765336990356)
(X_343  0.036274511367082596)
(X_344  0.12843137979507446)
(X_345  0.10882353037595749)
(X_346  0.008823529817163944)
(X_347  0.05980392172932625)
(X_348  0.1617647111415863)
(X_349  0.2598039209842682)
(X_350  0.31078431010246277)
(X_351  0.41862747073173523)
(X_352  0.3480392396450043)
(X_353  0.3401961028575897)
(X_354  0.3401961028575897)
(X_355  0.3480392396450043)
(X_356  0.3598039448261261)
(X_357  0.3715686500072479)
(X_358  0.3754902184009552)
(X_359  0.2754901945590973)
(X_360  0.18137255311012268)
(X_361  0.16568627953529358)
(X_362  0.13823530077934265)
(X_363  0.114705890417099)
(X_364  0.02450980618596077)
(X_365  0.02450980618596077)
(X_366  0.02450980618596077)
(X_367  0.12843137979507446)
(X_368  0.12843137979507446)
(X_369  0.12450980395078659)
(X_370  0.02450980618596077)
(X_371  0.02450980618596077)
(X_372  0.008823529817163944)
(X_373  0.1401960849761963)
(X_374  0.1715686321258545)
(X_375  0.05588235333561897)
(X_376  0.004901961423456669)
(X_377  0.02450980618596077)
(X_378  0.17352941632270813)
(X_379  0.3382352888584137)
(X_380  0.2696078419685364)
(X_381  0.2813725471496582)
(X_382  0.30098041892051697)
(X_383  0.3284313976764679)
(X_384  0.25196078419685364)
(X_385  0.2558823525905609)
(X_386  0.35196080803871155)
(X_387  0.3401961028575897)
(X_388  0.38333335518836975)
(X_389  0.3754902184009552)
(X_390  0.26372548937797546)
(X_391  0.2558823525905609)
(X_392  0.136274516582489)
(X_393  0.13235294818878174)
(X_394  0.028431374579668045)
(X_395  0.02450980618596077)
(X_396  0.12450980395078659)
(X_397  0.12843137979507446)
(X_398  0.13235294818878174)
(X_399  0.136274516582489)
(X_400  0.05980392172932625)
(X_401  0.12843137979507446)
(X_402  0.10882353037595749)
(X_403  0.11274509876966476)
(X_404  0.012745101936161518)
(X_405  0.012745101936161518)
(X_406  0.036274511367082596)
(X_407  0.07156863063573837)
(X_408  0.3558823764324188)
(X_409  0.30490198731422424)
(X_410  0.2343137264251709)
(X_411  0.1872549057006836)
(X_412  0.17941176891326904)
(X_413  0.114705890417099)
(X_414  0.25784313678741455)
(X_415  0.28921568393707275)
(X_416  0.18529412150382996)
(X_417  0.1931372582912445)
(X_418  0.20490197837352753)
(X_419  0.21666668355464935)
(X_420  0.020588237792253494)
(X_421  0.020588237792253494)
(X_422  0.02450980618596077)
(X_423  0.02450980618596077)
(X_424  0.02450980618596077)
(X_425  0.02450980618596077)
(X_426  0.020588237792253494)
(X_427  0.12058823555707932)
(X_428  0.10098039358854294)
(X_429  0.11666666716337204)
(X_430  0.028431374579668045)
(X_431  0.020588237792253494)
(X_432  0.012745101936161518)
(X_433  0.012745101936161518)
(X_434  0.020588237792253494)
(X_435  0.028431374579668045)
(X_436  0.24607843160629272)
(X_437  0.23039215803146362)
(X_438  0.21078431606292725)
(X_439  0.19901961088180542)
(X_440  0.19509804248809814)
(X_441  0.19509804248809814)
(X_442  0.09117648005485535)
(X_443  0.09117648005485535)
(X_444  0.1303921639919281)
(X_445  0.13823530077934265)
(X_446  0.15000000596046448)
(X_447  0.25784313678741455)
(X_448  0.13235294818878174)
(X_449  0.02450980618596077)
(X_450  0.01666666939854622)
(X_451  0.11274509876966476)
(X_452  0.12058823555707932)
(X_453  0.02450980618596077)
(X_454  0.12843137979507446)
(X_455  0.12450980395078659)
(X_456  0.12058823555707932)
(X_457  0.12843137979507446)
(X_458  0.12843137979507446)
(X_459  0.02450980618596077)
(X_460  0.01666666939854622)
(X_461  0.012745101936161518)
(X_462  0.01666666939854622)
(X_463  0.02450980618596077)
(X_464  0.04803921654820442)
(X_465  0.09509804844856262)
(X_466  0.15000000596046448)
(X_467  0.2696078419685364)
(X_468  0.24607843160629272)
(X_469  0.21470588445663452)
(X_470  0.19509804248809814)
(X_471  0.19117647409439087)
(X_472  0.18333333730697632)
(X_473  0.2186274528503418)
(X_474  0.2617647051811218)
(X_475  0.2813725471496582)
(X_476  0.04411764815449715)
(X_477  0.04411764815449715)
(X_478  0.1401960849761963)
(X_479  0.036274511367082596)
(X_480  0.036274511367082596)
(X_481  0.036274511367082596)
(X_482  0.04019607976078987)
(X_483  0.1401960849761963)
(X_484  0.15196079015731812)
(X_485  0.1558823585510254)
(X_486  0.05980392172932625)
(X_487  0.05588235333561897)
(X_488  0.04803921654820442)
(X_489  0.04411764815449715)
(X_490  0.04803921654820442)
(X_491  0.0519607849419117)
(X_492  0.01666666939854622)
(X_493  0.0676470622420311)
(X_494  0.13823530077934265)
(X_495  0.1931372582912445)
(X_496  0.32058826088905334)
(X_497  0.33235296607017517)
(X_498  0.3401961028575897)
(X_499  0.3480392396450043)
(X_500  0.344117671251297)
(X_501  0.26764705777168274)
(X_502  0.2911764681339264)
(X_503  0.29509803652763367)
(X_504  0.06372549384832382)
(X_505  0.07156863063573837)
(X_506  0.0833333432674408)
(X_507  0.07549020648002625)
(X_508  0.06372549384832382)
(X_509  0.05588235333561897)
(X_510  0.15980392694473267)
(X_511  0.16764706373214722)
(X_512  0.06372549384832382)
(X_513  0.16764706373214722)
(X_514  0.1715686321258545)
(X_515  0.0676470622420311)
(X_516  0.05980392172932625)
(X_517  0.05588235333561897)
(X_518  0.05588235333561897)
(X_519  0.06372549384832382)
(X_520  0.07941177487373352)
(X_521  0.0990196168422699)
(X_522  0.1303921639919281)
(X_523  0.15784314274787903)
(X_524  0.16960784792900085)
(X_525  0.2617647051811218)
(X_526  0.25)
(X_527  0.23823529481887817)
(X_528  0.18921568989753723)
(X_529  0.19705882668495178)
(X_530  0.19705882668495178)
(X_531  0.18529412150382996)
(X_532  0.14803922176361084)
(X_533  0.16764706373214722)
(X_534  0.18333333730697632)
(X_535  0.17549020051956177)
(X_536  0.05588235333561897)
(X_537  0.04411764815449715)
(X_538  0.04803921654820442)
(X_539  0.15980392694473267)
(X_540  0.04411764815449715)
(X_541  0.15196079015731812)
(X_542  0.15196079015731812)
(X_543  0.04803921654820442)
(X_544  0.04411764815449715)
(X_545  0.04019607976078987)
(X_546  0.04019607976078987)
(X_547  0.04803921654820442)
(X_548  0.1401960849761963)
(X_549  0.1401960849761963)
(X_550  0.15196079015731812)
(X_551  0.1715686321258545)
(X_552  0.1872549057006836)
(X_553  0.1872549057006836)
(X_554  0.1715686321258545)
(X_555  0.05588235333561897)
(X_556  0.19901961088180542)
(X_557  0.0990196168422699)
(X_558  0.19117647409439087)
(X_559  0.17549020051956177)
(X_560  0.10882353037595749)
(X_561  0.028431374579668045)
(X_562  0.04411764815449715)
(X_563  0.04019607976078987)
(X_564  0.020588237792253494)
(X_565  0.008823529817163944)
(X_566  0.012745101936161518)
(X_567  0.02450980618596077)
(X_568  0.136274516582489)
(X_569  0.1401960849761963)
(X_570  0.14411765336990356)
(X_571  0.04019607976078987)
(X_572  0.03235294297337532)
(X_573  0.028431374579668045)
(X_574  0.03235294297337532)
(X_575  0.036274511367082596)
(X_576  0.036274511367082596)
(X_577  0.03235294297337532)
(X_578  0.136274516582489)
(X_579  0.1558823585510254)
(X_580  0.17941176891326904)
(X_581  0.19117647409439087)
(X_582  0.17941176891326904)
(X_583  0.16764706373214722)
(X_584  0.19117647409439087)
(X_585  0.09509804844856262)
(X_586  0.09117648005485535)
(X_587  0.08725491166114807)
(X_588  0.10490196198225021)
(X_589  0.01666666939854622)
(X_590  0.12843137979507446)
(X_591  0.02450980618596077)
(X_592  0.012745101936161518)
(X_593  0.10882353037595749)
(X_594  0.11274509876966476)
(X_595  0.12450980395078659)
(X_596  0.1401960849761963)
(X_597  0.14411765336990356)
(X_598  0.04803921654820442)
(X_599  0.04411764815449715)
(X_600  0.036274511367082596)
(X_601  0.03235294297337532)
(X_602  0.036274511367082596)
(X_603  0.04019607976078987)
(X_604  0.16764706373214722)
(X_605  0.15980392694473267)
(X_606  0.1558823585510254)
(X_607  0.15980392694473267)
(X_608  0.16764706373214722)
(X_609  0.16764706373214722)
(X_610  0.15196079015731812)
(X_611  0.136274516582489)
(X_612  0.05980392172932625)
(X_613  0.06372549384832382)
(X_614  0.0676470622420311)
(X_615  0.0676470622420311)
(X_616  0.11666666716337204)
(X_617  0.01666666939854622)
(X_618  0.01666666939854622)
(X_619  0.020588237792253494)
(X_620  0.020588237792253494)
(X_621  0.12450980395078659)
(X_622  0.12843137979507446)
(X_623  0.03235294297337532)
(X_624  0.12843137979507446)
(X_625  0.13235294818878174)
(X_626  0.136274516582489)
(X_627  0.13235294818878174)
(X_628  0.02450980618596077)
(X_629  0.020588237792253494)
(X_630  0.02450980618596077)
(X_631  0.028431374579668045)
(X_632  0.09313725680112839)
(X_633  0.09705882519483566)
(X_634  0.004901961423456669)
(X_635  0.02450980618596077)
(X_636  0.04019607976078987)
(X_637  0.04803921654820442)
(X_638  0.04803921654820442)
(X_639  0.04411764815449715)
(X_640  0.04019607976078987)
(X_641  0.04019607976078987)
(X_642  0.1401960849761963)
(X_643  0.1401960849761963)
(X_644  0.004901961423456669)
(X_645  -0.0029411755967885256)
(X_646  0.08921568840742111)
(X_647  0.09313725680112839)
(X_648  0.10490196198225021)
(X_649  0.11666666716337204)
(X_650  0.12058823555707932)
(X_651  0.12058823555707932)
(X_652  0.10490196198225021)
(X_653  0.10882353037595749)
(X_654  0.012745101936161518)
(X_655  0.008823529817163944)
(X_656  0.0009803927969187498)
(X_657  -0.0029411755967885256)
(X_658  0.0009803927969187498)
(X_659  0.004901961423456669)
(X_660  0.10882353037595749)
(X_661  0.11274509876966476)
(X_662  0.11666666716337204)
(X_663  0.020588237792253494)
(X_664  0.01666666939854622)
(X_665  0.008823529817163944)
(X_666  0.10098039358854294)
(X_667  -0.0029411755967885256)
(X_668  0.11274509876966476)
(X_669  0.10882353037595749)
(X_670  0.10098039358854294)
(X_671  0.0009803927969187498)
(X_672  0.09705882519483566)
(X_673  -0.0029411755967885256)
(X_674  -0.0029411755967885256)
(X_675  -0.0029411755967885256)
(X_676  -0.0029411755967885256)
(X_677  0.09705882519483566)
(X_678  0.09705882519483566)
(X_679  -0.0029411755967885256)
(X_680  0.10882353037595749)
(X_681  0.10882353037595749)
(X_682  0.10882353037595749)
(X_683  0.10490196198225021)
(X_684  0.10490196198225021)
(X_685  0.004901961423456669)
(X_686  0.0009803927969187498)
(X_687  0.0009803927969187498)
(X_688  0.10098039358854294)
(X_689  0.004901961423456669)
(X_690  0.008823529817163944)
(X_691  0.008823529817163944)
(X_692  0.10882353037595749)
(X_693  0.008823529817163944)
(X_694  0.004901961423456669)
(X_695  0.10098039358854294)
(X_696  0.10098039358854294)
(X_697  0.10098039358854294)
(X_698  0.10098039358854294)
(X_699  0.0009803927969187498)
(X_700  0.09705882519483566)
(X_701  -0.0029411755967885256)
(X_702  0.09705882519483566)
(X_703  0.09705882519483566)
(X_704  0.09705882519483566)
(X_705  0.09705882519483566)
(X_706  0.09705882519483566)
(X_707  -0.0029411755967885256)
(X_708  0.004901961423456669)
(X_709  0.004901961423456669)
(X_710  0.004901961423456669)
(X_711  0.004901961423456669)
(X_712  0.10098039358854294)
(X_713  0.0009803927969187498)
(X_714  -0.0029411755967885256)
(X_715  -0.0029411755967885256)
(X_716  0.0009803927969187498)
(X_717  0.0009803927969187498)
(X_718  0.004901961423456669)
(X_719  0.004901961423456669)
(X_720  0.004901961423456669)
(X_721  0.004901961423456669)
(X_722  0.10098039358854294)
(X_723  0.10098039358854294)
(X_724  0.10098039358854294)
(X_725  0.10098039358854294)
(X_726  0.10098039358854294)
(X_727  0.10098039358854294)
(X_728  0.09705882519483566)
(X_729  -0.0029411755967885256)
(X_730  0.09705882519483566)
(X_731  0.09705882519483566)
(X_732  0.09705882519483566)
(X_733  0.09705882519483566)
(X_734  0.09705882519483566)
(X_735  0.09705882519483566)
(X_736  0.10098039358854294)
(X_737  0.10098039358854294)
(X_738  0.0009803927969187498)
(X_739  -0.0029411755967885256)
(X_740  -0.0029411755967885256)
(X_741  -0.0029411755967885256)
(X_742  -0.006862743757665157)
(X_743  -0.006862743757665157)
(X_744  -0.006862743757665157)
(X_745  -0.0029411755967885256)
(X_746  -0.0029411755967885256)
(X_747  0.0009803927969187498)
(X_748  0.0009803927969187498)
(X_749  0.09705882519483566)
(X_750  -0.0029411755967885256)
(X_751  0.09313725680112839)
(X_752  0.10098039358854294)
(X_753  0.10098039358854294)
(X_754  0.10098039358854294)
(X_755  0.10098039358854294)
(X_756  0.09705882519483566)
(X_757  0.09705882519483566)
(X_758  0.09705882519483566)
(X_759  0.09705882519483566)
(X_760  -0.0029411755967885256)
(X_761  0.09705882519483566)
(X_762  0.09705882519483566)
(X_763  0.09705882519483566)
(X_764  0.09705882519483566)
(X_765  0.09705882519483566)
(X_766  -0.0029411755967885256)
(X_767  -0.006862743757665157)
(X_768  -0.006862743757665157)
(X_769  -0.010784312151372433)
(X_770  -0.010784312151372433)
(X_771  -0.010784312151372433)
(X_772  -0.010784312151372433)
(X_773  -0.006862743757665157)
(X_774  -0.006862743757665157)
(X_775  -0.0029411755967885256)
(X_776  -0.0029411755967885256)
(X_777  0.09313725680112839)
(X_778  -0.006862743757665157)
(X_779  -0.010784312151372433)
(X_780  0.0009803927969187498)
(X_781  0.10098039358854294)
(X_782  0.10098039358854294)
(X_783  0.10098039358854294)
(Y_0 -8.919722557067871)
(Y_1 4.485396385192871)
(Y_2 -2.8944313526153564)
(Y_3 9.683517456054688))