((X_0  0.14411765336990356)
(X_1  0.14411765336990356)
(X_2  0.04019607976078987)
(X_3  0.04411764815449715)
(X_4  0.14803922176361084)
(X_5  0.1558823585510254)
(X_6  0.06372549384832382)
(X_7  0.07156863063573837)
(X_8  0.14411765336990356)
(X_9  0.15196079015731812)
(X_10  0.16372549533843994)
(X_11  0.1715686321258545)
(X_12  0.17549020051956177)
(X_13  0.1715686321258545)
(X_14  0.16764706373214722)
(X_15  0.06372549384832382)
(X_16  0.04411764815449715)
(X_17  0.0676470622420311)
(X_18  0.07156863063573837)
(X_19  0.05980392172932625)
(X_20  0.15980392694473267)
(X_21  0.1715686321258545)
(X_22  0.0676470622420311)
(X_23  0.04411764815449715)
(X_24  0.16764706373214722)
(X_25  0.1715686321258545)
(X_26  0.0676470622420311)
(X_27  0.1558823585510254)
(X_28  0.17941176891326904)
(X_29  0.17941176891326904)
(X_30  0.07156863063573837)
(X_31  0.0676470622420311)
(X_32  0.0676470622420311)
(X_33  0.0676470622420311)
(X_34  0.07156863063573837)
(X_35  0.07549020648002625)
(X_36  0.0833333432674408)
(X_37  0.07549020648002625)
(X_38  0.0676470622420311)
(X_39  0.05588235333561897)
(X_40  0.04803921654820442)
(X_41  0.04803921654820442)
(X_42  0.04803921654820442)
(X_43  0.04803921654820442)
(X_44  0.1558823585510254)
(X_45  0.07549020648002625)
(X_46  0.07549020648002625)
(X_47  0.05980392172932625)
(X_48  0.05980392172932625)
(X_49  0.07156863063573837)
(X_50  0.07156863063573837)
(X_51  0.0519607849419117)
(X_52  0.16372549533843994)
(X_53  0.16372549533843994)
(X_54  0.16372549533843994)
(X_55  0.15196079015731812)
(X_56  0.1401960849761963)
(X_57  0.04019607976078987)
(X_58  0.04019607976078987)
(X_59  0.04411764815449715)
(X_60  0.04803921654820442)
(X_61  0.05588235333561897)
(X_62  0.05980392172932625)
(X_63  0.06372549384832382)
(X_64  0.036274511367082596)
(X_65  0.04019607976078987)
(X_66  0.04803921654820442)
(X_67  0.05980392172932625)
(X_68  0.07549020648002625)
(X_69  0.08725491166114807)
(X_70  0.0990196168422699)
(X_71  0.10294118523597717)
(X_72  0.04411764815449715)
(X_73  0.0519607849419117)
(X_74  0.0519607849419117)
(X_75  0.14411765336990356)
(X_76  0.14803922176361084)
(X_77  0.16372549533843994)
(X_78  0.16764706373214722)
(X_79  0.15980392694473267)
(X_80  0.17549020051956177)
(X_81  0.17549020051956177)
(X_82  0.07549020648002625)
(X_83  0.16764706373214722)
(X_84  0.16372549533843994)
(X_85  0.16372549533843994)
(X_86  0.16372549533843994)
(X_87  0.16372549533843994)
(X_88  0.16764706373214722)
(X_89  0.1715686321258545)
(X_90  0.07156863063573837)
(X_91  0.07549020648002625)
(X_92  0.15980392694473267)
(X_93  0.0676470622420311)
(X_94  0.07549020648002625)
(X_95  0.07941177487373352)
(X_96  0.07549020648002625)
(X_97  0.15980392694473267)
(X_98  0.14803922176361084)
(X_99  0.136274516582489)
(X_100  0.19117647409439087)
(X_101  0.1872549057006836)
(X_102  0.1715686321258545)
(X_103  0.15196079015731812)
(X_104  0.1401960849761963)
(X_105  0.036274511367082596)
(X_106  0.036274511367082596)
(X_107  0.03235294297337532)
(X_108  0.04019607976078987)
(X_109  0.04411764815449715)
(X_110  0.04803921654820442)
(X_111  0.1401960849761963)
(X_112  0.07156863063573837)
(X_113  0.0676470622420311)
(X_114  0.06372549384832382)
(X_115  0.1558823585510254)
(X_116  0.14411765336990356)
(X_117  0.136274516582489)
(X_118  0.028431374579668045)
(X_119  0.12450980395078659)
(X_120  0.036274511367082596)
(X_121  0.036274511367082596)
(X_122  0.04411764815449715)
(X_123  0.04803921654820442)
(X_124  0.05980392172932625)
(X_125  0.07156863063573837)
(X_126  0.07941177487373352)
(X_127  0.0833333432674408)
(X_128  0.14411765336990356)
(X_129  0.1401960849761963)
(X_130  0.1401960849761963)
(X_131  0.14411765336990356)
(X_132  0.15196079015731812)
(X_133  0.15980392694473267)
(X_134  0.1715686321258545)
(X_135  0.17941176891326904)
(X_136  0.036274511367082596)
(X_137  0.04019607976078987)
(X_138  0.14803922176361084)
(X_139  0.14411765336990356)
(X_140  0.15196079015731812)
(X_141  0.15196079015731812)
(X_142  0.1558823585510254)
(X_143  0.15980392694473267)
(X_144  0.06372549384832382)
(X_145  0.06372549384832382)
(X_146  0.06372549384832382)
(X_147  0.15980392694473267)
(X_148  0.1558823585510254)
(X_149  0.15196079015731812)
(X_150  0.15196079015731812)
(X_151  0.16764706373214722)
(X_152  0.21078431606292725)
(X_153  0.2696078419685364)
(X_154  0.3284313976764679)
(X_155  0.3637255132198334)
(X_156  0.3343137204647064)
(X_157  0.3029411733150482)
(X_158  0.3637255132198334)
(X_159  0.3245098292827606)
(X_160  0.2696078419685364)
(X_161  0.114705890417099)
(X_162  0.07941177487373352)
(X_163  0.1715686321258545)
(X_164  0.12647059559822083)
(X_165  0.13431373238563538)
(X_166  0.14215686917304993)
(X_167  0.24215686321258545)
(X_168  0.18921568989753723)
(X_169  0.2970588207244873)
(X_170  0.3088235557079315)
(X_171  0.3245098292827606)
(X_172  0.33627453446388245)
(X_173  0.344117671251297)
(X_174  0.24803923070430756)
(X_175  0.35196080803871155)
(X_176  0.3480392396450043)
(X_177  0.33235296607017517)
(X_178  0.21274511516094208)
(X_179  0.20098040997982025)
(X_180  0.3088235557079315)
(X_181  0.33627453446388245)
(X_182  0.36764708161354065)
(X_183  0.3911764919757843)
(X_184  0.43039217591285706)
(X_185  0.4225490391254425)
(X_186  0.43431374430656433)
(X_187  0.46176472306251526)
(X_188  0.47745099663734436)
(X_189  0.3735294044017792)
(X_190  0.37745097279548645)
(X_191  0.49705883860588074)
(X_192  0.520588219165802)
(X_193  0.5323529243469238)
(X_194  0.44019606709480286)
(X_195  0.44019606709480286)
(X_196  0.34607842564582825)
(X_197  0.44607844948768616)
(X_198  0.45000001788139343)
(X_199  0.45000001788139343)
(X_200  0.45000001788139343)
(X_201  0.4421568810939789)
(X_202  0.43431374430656433)
(X_203  0.43039217591285706)
(X_204  0.3068627417087555)
(X_205  0.3068627417087555)
(X_206  0.3068627417087555)
(X_207  0.3068627417087555)
(X_208  0.3068627417087555)
(X_209  0.3068627417087555)
(X_210  0.3068627417087555)
(X_211  0.3068627417087555)
(X_212  0.3558823764324188)
(X_213  0.3480392396450043)
(X_214  0.26372548937797546)
(X_215  0.39901962876319885)
(X_216  0.31470587849617004)
(X_217  0.4107843339443207)
(X_218  0.41470590233802795)
(X_219  0.43431374430656433)
(X_220  0.43039217591285706)
(X_221  0.34215685725212097)
(X_222  0.3499999940395355)
(X_223  0.3539215624332428)
(X_224  0.2872548997402191)
(X_225  0.29509803652763367)
(X_226  0.29901960492134094)
(X_227  0.39901962876319885)
(X_228  0.29509803652763367)
(X_229  0.28333333134651184)
(X_230  0.2754901945590973)
(X_231  0.2754901945590973)
(X_232  0.387254923582077)
(X_233  0.2558823525905609)
(X_234  0.3735294044017792)
(X_235  0.4323529303073883)
(X_236  0.34607842564582825)
(X_237  0.36176469922065735)
(X_238  0.3813725411891937)
(X_239  0.2558823525905609)
(X_240  0.27156862616539)
(X_241  0.387254923582077)
(X_242  0.3715686500072479)
(X_243  0.3401961028575897)
(X_244  0.3480392396450043)
(X_245  0.3911764919757843)
(X_246  0.39901962876319885)
(X_247  0.27156862616539)
(X_248  0.29901960492134094)
(X_249  0.3068627417087555)
(X_250  0.3186274468898773)
(X_251  0.3382352888584137)
(X_252  0.21274511516094208)
(X_253  0.21666668355464935)
(X_254  0.2245098203420639)
(X_255  0.23235295712947845)
(X_256  0.3480392396450043)
(X_257  0.38333335518836975)
(X_258  0.43039217591285706)
(X_259  0.46568629145622253)
(X_260  0.5264706015586853)
(X_261  0.46764707565307617)
(X_262  0.5833333730697632)
(X_263  0.5794118046760559)
(X_264  0.5127450823783875)
(X_265  0.42450979351997375)
(X_266  0.4362744987010956)
(X_267  0.3499999940395355)
(X_268  0.2558823525905609)
(X_269  0.2911764681339264)
(X_270  0.4068627655506134)
(X_271  0.2872548997402191)
(X_272  0.2872548997402191)
(X_273  0.4068627655506134)
(X_274  0.39901962876319885)
(X_275  0.26372548937797546)
(X_276  0.3127451241016388)
(X_277  0.2970588207244873)
(X_278  0.18137255311012268)
(X_279  0.17352941632270813)
(X_280  0.5284313559532166)
(X_281  0.5323529243469238)
(X_282  0.4323529303073883)
(X_283  0.4362744987010956)
(X_284  0.4480392038822174)
(X_285  0.5833333730697632)
(X_286  0.6303921937942505)
(X_287  0.6696078777313232)
(X_288  0.4950980544090271)
(X_289  0.4598039388656616)
(X_290  0.41274508833885193)
(X_291  0.48137256503105164)
(X_292  0.4735294282436371)
(X_293  0.39313724637031555)
(X_294  0.3892156779766083)
(X_295  0.3539215624332428)
(X_296  0.45000001788139343)
(X_297  0.4049019515514374)
(X_298  0.5441176295280457)
(X_299  0.5401960611343384)
(X_300  0.5284313559532166)
(X_301  0.5166666507720947)
(X_302  0.4892157018184662)
(X_303  0.3539215624332428)
(X_304  0.2872548997402191)
(X_305  0.26764705777168274)
(X_306  0.24411766231060028)
(X_307  0.2245098203420639)
(X_308  0.4735294282436371)
(X_309  0.4696078598499298)
(X_310  0.3656862676143646)
(X_311  0.3696078360080719)
(X_312  0.37745097279548645)
(X_313  0.37745097279548645)
(X_314  0.3696078360080719)
(X_315  0.3578431308269501)
(X_316  0.26372548937797546)
(X_317  0.29901960492134094)
(X_318  0.3637255132198334)
(X_319  0.3401961028575897)
(X_320  0.387254923582077)
(X_321  0.2911764681339264)
(X_322  0.2558823525905609)
(X_323  0.36764708161354065)
(X_324  0.34215685725212097)
(X_325  0.39313724637031555)
(X_326  0.5401960611343384)
(X_327  0.5362744927406311)
(X_328  0.4166666567325592)
(X_329  0.3970588147640228)
(X_330  0.4735294282436371)
(X_331  0.45000001788139343)
(X_332  0.47745099663734436)
(X_333  0.4892157018184662)
(X_334  0.4166666567325592)
(X_335  0.45196080207824707)
(X_336  0.2872548997402191)
(X_337  0.3715686500072479)
(X_338  0.3637255132198334)
(X_339  0.3794117867946625)
(X_340  0.4068627655506134)
(X_341  0.39901962876319885)
(X_342  0.2598039209842682)
(X_343  0.22058825194835663)
(X_344  0.2813725471496582)
(X_345  0.2598039209842682)
(X_346  0.24411766231060028)
(X_347  0.21666668355464935)
(X_348  0.2558823525905609)
(X_349  0.22843138873577118)
(X_350  0.18137255311012268)
(X_351  0.31666669249534607)
(X_352  0.3401961028575897)
(X_353  0.3794117867946625)
(X_354  0.41470590233802795)
(X_355  0.31470587849617004)
(X_356  0.3068627417087555)
(X_357  0.4068627655506134)
(X_358  0.4107843339443207)
(X_359  0.4107843339443207)
(X_360  0.4068627655506134)
(X_361  0.4107843339443207)
(X_362  0.3225490152835846)
(X_363  0.44607844948768616)
(X_364  0.24411766231060028)
(X_365  0.21666668355464935)
(X_366  0.18921568989753723)
(X_367  0.30098041892051697)
(X_368  0.3284313976764679)
(X_369  0.33235296607017517)
(X_370  0.20098040997982025)
(X_371  0.16568627953529358)
(X_372  0.1617647111415863)
(X_373  0.23627452552318573)
(X_374  0.2245098203420639)
(X_375  0.18529412150382996)
(X_376  0.19705882668495178)
(X_377  0.17352941632270813)
(X_378  0.1460784375667572)
(X_379  0.18921568989753723)
(X_380  0.2696078419685364)
(X_381  0.28921568393707275)
(X_382  0.31666669249534607)
(X_383  0.23235295712947845)
(X_384  0.24411766231060028)
(X_385  0.26372548937797546)
(X_386  0.2872548997402191)
(X_387  0.40294119715690613)
(X_388  0.43039217591285706)
(X_389  0.39901962876319885)
(X_390  0.3558823764324188)
(X_391  0.32058826088905334)
(X_392  0.29313725233078003)
(X_393  0.2774509787559509)
(X_394  0.2617647051811218)
(X_395  0.15784314274787903)
(X_396  0.2617647051811218)
(X_397  0.2617647051811218)
(X_398  0.24215686321258545)
(X_399  0.22647058963775635)
(X_400  0.10686275362968445)
(X_401  0.1460784375667572)
(X_402  0.23823529481887817)
(X_403  0.21078431606292725)
(X_404  0.2186274528503418)
(X_405  0.21078431606292725)
(X_406  0.0990196168422699)
(X_407  0.11862745881080627)
(X_408  0.09117648005485535)
(X_409  0.10294118523597717)
(X_410  0.12647059559822083)
(X_411  0.2539215683937073)
(X_412  0.1774509847164154)
(X_413  0.18921568989753723)
(X_414  0.30098041892051697)
(X_415  0.3088235557079315)
(X_416  0.16568627953529358)
(X_417  0.23823529481887817)
(X_418  0.10686275362968445)
(X_419  0.08725491166114807)
(X_420  0.0833333432674408)
(X_421  0.0990196168422699)
(X_422  0.11862745881080627)
(X_423  0.12254902720451355)
(X_424  0.114705890417099)
(X_425  0.0990196168422699)
(X_426  0.09117648005485535)
(X_427  0.1872549057006836)
(X_428  0.19117647409439087)
(X_429  0.10686275362968445)
(X_430  0.10686275362968445)
(X_431  0.09509804844856262)
(X_432  0.09117648005485535)
(X_433  0.08725491166114807)
(X_434  0.06372549384832382)
(X_435  0.04411764815449715)
(X_436  0.17941176891326904)
(X_437  0.18333333730697632)
(X_438  0.2029411792755127)
(X_439  0.2343137264251709)
(X_440  0.2539215683937073)
(X_441  0.15000000596046448)
(X_442  0.14215686917304993)
(X_443  0.13431373238563538)
(X_444  0.1303921639919281)
(X_445  0.114705890417099)
(X_446  0.09117648005485535)
(X_447  0.17549020051956177)
(X_448  0.16764706373214722)
(X_449  0.16764706373214722)
(X_450  0.0676470622420311)
(X_451  0.16764706373214722)
(X_452  0.16764706373214722)
(X_453  0.06372549384832382)
(X_454  0.15980392694473267)
(X_455  0.15980392694473267)
(X_456  0.1715686321258545)
(X_457  0.1715686321258545)
(X_458  0.16764706373214722)
(X_459  0.16372549533843994)
(X_460  0.15980392694473267)
(X_461  0.1558823585510254)
(X_462  0.15196079015731812)
(X_463  0.0519607849419117)
(X_464  0.06372549384832382)
(X_465  0.0676470622420311)
(X_466  0.17941176891326904)
(X_467  0.1872549057006836)
(X_468  0.19901961088180542)
(X_469  0.20686274766921997)
(X_470  0.21078431606292725)
(X_471  0.21470588445663452)
(X_472  0.21078431606292725)
(X_473  0.2029411792755127)
(X_474  0.19117647409439087)
(X_475  0.17941176891326904)
(X_476  0.05588235333561897)
(X_477  0.05588235333561897)
(X_478  0.1558823585510254)
(X_479  0.15980392694473267)
(X_480  0.05588235333561897)
(X_481  0.0519607849419117)
(X_482  0.04803921654820442)
(X_483  0.14803922176361084)
(X_484  0.15980392694473267)
(X_485  0.1558823585510254)
(X_486  0.05588235333561897)
(X_487  0.0519607849419117)
(X_488  0.04803921654820442)
(X_489  0.04411764815449715)
(X_490  0.04411764815449715)
(X_491  0.04019607976078987)
(X_492  0.04803921654820442)
(X_493  0.0519607849419117)
(X_494  0.05980392172932625)
(X_495  0.1715686321258545)
(X_496  0.17941176891326904)
(X_497  0.18333333730697632)
(X_498  0.1872549057006836)
(X_499  0.08725491166114807)
(X_500  0.1872549057006836)
(X_501  0.07941177487373352)
(X_502  0.0676470622420311)
(X_503  0.05980392172932625)
(X_504  0.04019607976078987)
(X_505  0.04019607976078987)
(X_506  0.04411764815449715)
(X_507  0.04411764815449715)
(X_508  0.04019607976078987)
(X_509  0.04019607976078987)
(X_510  0.136274516582489)
(X_511  0.13235294818878174)
(X_512  0.04411764815449715)
(X_513  0.04019607976078987)
(X_514  0.04019607976078987)
(X_515  0.036274511367082596)
(X_516  0.03235294297337532)
(X_517  0.03235294297337532)
(X_518  0.028431374579668045)
(X_519  0.028431374579668045)
(X_520  0.028431374579668045)
(X_521  0.03235294297337532)
(X_522  0.04019607976078987)
(X_523  0.04411764815449715)
(X_524  0.0519607849419117)
(X_525  0.15196079015731812)
(X_526  0.1558823585510254)
(X_527  0.1558823585510254)
(X_528  0.05980392172932625)
(X_529  0.0519607849419117)
(X_530  0.04411764815449715)
(X_531  0.036274511367082596)
(X_532  0.13235294818878174)
(X_533  0.13235294818878174)
(X_534  0.13235294818878174)
(X_535  0.13235294818878174)
(X_536  0.13235294818878174)
(X_537  0.028431374579668045)
(X_538  0.02450980618596077)
(X_539  0.02450980618596077)
(X_540  0.03235294297337532)
(X_541  0.03235294297337532)
(X_542  0.12843137979507446)
(X_543  0.12843137979507446)
(X_544  0.12450980395078659)
(X_545  0.02450980618596077)
(X_546  0.020588237792253494)
(X_547  0.020588237792253494)
(X_548  0.11666666716337204)
(X_549  0.12058823555707932)
(X_550  0.02450980618596077)
(X_551  0.028431374579668045)
(X_552  0.12843137979507446)
(X_553  0.12843137979507446)
(X_554  0.12843137979507446)
(X_555  0.02450980618596077)
(X_556  0.1401960849761963)
(X_557  0.036274511367082596)
(X_558  0.028431374579668045)
(X_559  0.12450980395078659)
(X_560  0.12843137979507446)
(X_561  0.028431374579668045)
(X_562  0.12843137979507446)
(X_563  0.028431374579668045)
(X_564  0.028431374579668045)
(X_565  0.02450980618596077)
(X_566  0.020588237792253494)
(X_567  0.01666666939854622)
(X_568  0.02450980618596077)
(X_569  0.12450980395078659)
(X_570  0.12450980395078659)
(X_571  0.12058823555707932)
(X_572  0.020588237792253494)
(X_573  0.020588237792253494)
(X_574  0.020588237792253494)
(X_575  0.020588237792253494)
(X_576  0.008823529817163944)
(X_577  0.012745101936161518)
(X_578  0.01666666939854622)
(X_579  0.01666666939854622)
(X_580  0.01666666939854622)
(X_581  0.11274509876966476)
(X_582  0.11274509876966476)
(X_583  0.10882353037595749)
(X_584  0.12843137979507446)
(X_585  0.028431374579668045)
(X_586  0.02450980618596077)
(X_587  0.020588237792253494)
(X_588  0.12058823555707932)
(X_589  0.02450980618596077)
(X_590  0.02450980618596077)
(X_591  0.12450980395078659)
(X_592  0.02450980618596077)
(X_593  0.020588237792253494)
(X_594  0.01666666939854622)
(X_595  0.11274509876966476)
(X_596  0.11666666716337204)
(X_597  0.11666666716337204)
(X_598  0.11666666716337204)
(X_599  0.01666666939854622)
(X_600  0.01666666939854622)
(X_601  0.01666666939854622)
(X_602  0.01666666939854622)
(X_603  0.01666666939854622)
(X_604  0.10490196198225021)
(X_605  0.10882353037595749)
(X_606  0.10882353037595749)
(X_607  0.11274509876966476)
(X_608  0.11274509876966476)
(X_609  0.10882353037595749)
(X_610  0.10490196198225021)
(X_611  0.10490196198225021)
(X_612  0.020588237792253494)
(X_613  0.020588237792253494)
(X_614  0.12058823555707932)
(X_615  0.12058823555707932)
(X_616  0.11666666716337204)
(X_617  0.11666666716337204)
(X_618  0.01666666939854622)
(X_619  0.01666666939854622)
(X_620  0.01666666939854622)
(X_621  0.11274509876966476)
(X_622  0.008823529817163944)
(X_623  0.10882353037595749)
(X_624  0.10882353037595749)
(X_625  0.10882353037595749)
(X_626  0.10882353037595749)
(X_627  0.10882353037595749)
(X_628  0.008823529817163944)
(X_629  0.012745101936161518)
(X_630  0.012745101936161518)
(X_631  0.11274509876966476)
(X_632  0.0009803927969187498)
(X_633  0.0009803927969187498)
(X_634  0.004901961423456669)
(X_635  0.008823529817163944)
(X_636  0.008823529817163944)
(X_637  0.10490196198225021)
(X_638  0.10490196198225021)
(X_639  0.10098039358854294)
(X_640  0.008823529817163944)
(X_641  0.008823529817163944)
(X_642  0.10882353037595749)
(X_643  0.10882353037595749)
(X_644  0.10882353037595749)
(X_645  0.008823529817163944)
(X_646  0.11274509876966476)
(X_647  0.11274509876966476)
(X_648  0.10882353037595749)
(X_649  0.008823529817163944)
(X_650  0.004901961423456669)
(X_651  0.10098039358854294)
(X_652  0.0009803927969187498)
(X_653  0.004901961423456669)
(X_654  0.004901961423456669)
(X_655  0.004901961423456669)
(X_656  0.004901961423456669)
(X_657  0.004901961423456669)
(X_658  0.004901961423456669)
(X_659  0.004901961423456669)
(X_660  0.09313725680112839)
(X_661  0.09705882519483566)
(X_662  0.10098039358854294)
(X_663  0.10490196198225021)
(X_664  0.004901961423456669)
(X_665  0.004901961423456669)
(X_666  0.0009803927969187498)
(X_667  0.0009803927969187498)
(X_668  -0.0029411755967885256)
(X_669  -0.0029411755967885256)
(X_670  0.0009803927969187498)
(X_671  0.0009803927969187498)
(X_672  0.10882353037595749)
(X_673  0.012745101936161518)
(X_674  0.01666666939854622)
(X_675  0.008823529817163944)
(X_676  0.0009803927969187498)
(X_677  0.09313725680112839)
(X_678  0.09313725680112839)
(X_679  0.10098039358854294)
(X_680  0.008823529817163944)
(X_681  0.10882353037595749)
(X_682  0.10882353037595749)
(X_683  0.10098039358854294)
(X_684  0.08921568840742111)
(X_685  -0.014705880545079708)
(X_686  -0.010784312151372433)
(X_687  -0.006862743757665157)
(X_688  0.10490196198225021)
(X_689  0.10490196198225021)
(X_690  0.0009803927969187498)
(X_691  0.0009803927969187498)
(X_692  0.09705882519483566)
(X_693  0.09705882519483566)
(X_694  -0.0029411755967885256)
(X_695  0.09313725680112839)
(X_696  0.09705882519483566)
(X_697  0.10490196198225021)
(X_698  0.10882353037595749)
(X_699  0.11274509876966476)
(X_700  0.10490196198225021)
(X_701  0.008823529817163944)
(X_702  0.01666666939854622)
(X_703  0.020588237792253494)
(X_704  0.01666666939854622)
(X_705  0.01666666939854622)
(X_706  0.020588237792253494)
(X_707  0.028431374579668045)
(X_708  -0.014705880545079708)
(X_709  -0.006862743757665157)
(X_710  -0.0029411755967885256)
(X_711  -0.0029411755967885256)
(X_712  0.09705882519483566)
(X_713  0.0009803927969187498)
(X_714  0.012745101936161518)
(X_715  0.020588237792253494)
(X_716  0.10098039358854294)
(X_717  0.11666666716337204)
(X_718  0.04019607976078987)
(X_719  0.07156863063573837)
(X_720  0.10686275362968445)
(X_721  0.14215686917304993)
(X_722  0.2656862735748291)
(X_723  0.2813725471496582)
(X_724  0.3284313976764679)
(X_725  0.3401961028575897)
(X_726  0.3598039448261261)
(X_727  0.3794117867946625)
(X_728  0.12843137979507446)
(X_729  0.04803921654820442)
(X_730  0.07941177487373352)
(X_731  0.20686274766921997)
(X_732  0.2343137264251709)
(X_733  0.2617647051811218)
(X_734  0.2852941155433655)
(X_735  0.30098041892051697)
(X_736  0.36764708161354065)
(X_737  0.39901962876319885)
(X_738  0.3499999940395355)
(X_739  0.41274508833885193)
(X_740  0.479411780834198)
(X_741  0.5382353067398071)
(X_742  0.593137264251709)
(X_743  0.6284313797950745)
(X_744  0.7147058844566345)
(X_745  0.7264705896377563)
(X_746  0.8500000238418579)
(X_747  0.7813725471496582)
(X_748  0.9127451181411743)
(X_749  0.9401960968971252)
(X_750  0.9637255072593689)
(X_751  0.9754902124404907)
(X_752  0.9950980544090271)
(X_753  1.0029411315917969)
(X_754  1.018627405166626)
(X_755  1.0303921699523926)
(X_756  0.7754902243614197)
(X_757  0.8029412031173706)
(X_758  0.7460784316062927)
(X_759  0.7892156839370728)
(X_760  0.8323529362678528)
(X_761  0.8715686202049255)
(X_762  0.906862735748291)
(X_763  1.0303921699523926)
(X_764  0.9421568512916565)
(X_765  0.949999988079071)
(X_766  0.949999988079071)
(X_767  0.949999988079071)
(X_768  0.9460784196853638)
(X_769  0.9421568512916565)
(X_770  0.9421568512916565)
(X_771  0.9460784196853638)
(X_772  0.9343137145042419)
(X_773  0.9343137145042419)
(X_774  0.9343137145042419)
(X_775  0.9343137145042419)
(X_776  0.9382352828979492)
(X_777  0.9382352828979492)
(X_778  0.9382352828979492)
(X_779  0.9382352828979492)
(X_780  0.949999988079071)
(X_781  0.949999988079071)
(X_782  0.949999988079071)
(X_783  0.949999988079071)
(Y_0 -19.5670166015625)
(Y_1 33.68965530395508)
(Y_2 -11.883465766906738)
(Y_3 1.0910043716430664))