((X_0  1.0499999523162842)
(X_1  1.0499999523162842)
(X_2  1.0499999523162842)
(X_3  1.0499999523162842)
(X_4  1.0499999523162842)
(X_5  0.9460784196853638)
(X_6  0.9421568512916565)
(X_7  0.9421568512916565)
(X_8  0.949999988079071)
(X_9  0.949999988079071)
(X_10  1.0499999523162842)
(X_11  0.949999988079071)
(X_12  0.949999988079071)
(X_13  1.0499999523162842)
(X_14  1.0460784435272217)
(X_15  0.9421568512916565)
(X_16  0.949999988079071)
(X_17  0.949999988079071)
(X_18  0.949999988079071)
(X_19  0.949999988079071)
(X_20  1.0499999523162842)
(X_21  1.0499999523162842)
(X_22  0.949999988079071)
(X_23  0.949999988079071)
(X_24  1.0499999523162842)
(X_25  1.0499999523162842)
(X_26  0.949999988079071)
(X_27  1.0499999523162842)
(X_28  1.034313678741455)
(X_29  1.0382353067398071)
(X_30  0.9421568512916565)
(X_31  0.949999988079071)
(X_32  0.949999988079071)
(X_33  0.949999988079071)
(X_34  0.949999988079071)
(X_35  1.0499999523162842)
(X_36  1.0421568155288696)
(X_37  0.9421568512916565)
(X_38  1.0460784435272217)
(X_39  0.949999988079071)
(X_40  0.949999988079071)
(X_41  0.949999988079071)
(X_42  0.949999988079071)
(X_43  0.949999988079071)
(X_44  1.0382353067398071)
(X_45  1.0382353067398071)
(X_46  1.0382353067398071)
(X_47  0.9382352828979492)
(X_48  0.9382352828979492)
(X_49  0.9382352828979492)
(X_50  0.9382352828979492)
(X_51  0.9382352828979492)
(X_52  1.0499999523162842)
(X_53  1.0499999523162842)
(X_54  1.0499999523162842)
(X_55  1.0499999523162842)
(X_56  1.0499999523162842)
(X_57  0.949999988079071)
(X_58  0.949999988079071)
(X_59  0.949999988079071)
(X_60  0.9460784196853638)
(X_61  0.9421568512916565)
(X_62  0.9382352828979492)
(X_63  0.9343137145042419)
(X_64  0.949999988079071)
(X_65  0.949999988079071)
(X_66  0.949999988079071)
(X_67  0.949999988079071)
(X_68  0.9421568512916565)
(X_69  0.9303921461105347)
(X_70  0.9264705777168274)
(X_71  0.9225490093231201)
(X_72  0.949999988079071)
(X_73  0.949999988079071)
(X_74  1.0499999523162842)
(X_75  1.0499999523162842)
(X_76  1.0499999523162842)
(X_77  1.0499999523162842)
(X_78  0.949999988079071)
(X_79  0.949999988079071)
(X_80  1.0499999523162842)
(X_81  0.949999988079071)
(X_82  0.949999988079071)
(X_83  1.0499999523162842)
(X_84  1.034313678741455)
(X_85  1.0382353067398071)
(X_86  1.0421568155288696)
(X_87  1.0460784435272217)
(X_88  0.949999988079071)
(X_89  0.949999988079071)
(X_90  0.949999988079071)
(X_91  0.949999988079071)
(X_92  0.9382352828979492)
(X_93  0.9421568512916565)
(X_94  0.949999988079071)
(X_95  0.949999988079071)
(X_96  1.0499999523162842)
(X_97  0.949999988079071)
(X_98  1.0499999523162842)
(X_99  1.0499999523162842)
(X_100  1.0460784435272217)
(X_101  1.0460784435272217)
(X_102  1.0460784435272217)
(X_103  0.9460784196853638)
(X_104  0.9421568512916565)
(X_105  0.9421568512916565)
(X_106  0.9421568512916565)
(X_107  0.9421568512916565)
(X_108  1.0499999523162842)
(X_109  0.949999988079071)
(X_110  0.949999988079071)
(X_111  1.0499999523162842)
(X_112  0.949999988079071)
(X_113  0.949999988079071)
(X_114  0.949999988079071)
(X_115  1.0499999523162842)
(X_116  1.0499999523162842)
(X_117  1.0499999523162842)
(X_118  0.949999988079071)
(X_119  1.0499999523162842)
(X_120  1.0499999523162842)
(X_121  1.0499999523162842)
(X_122  1.0499999523162842)
(X_123  1.0499999523162842)
(X_124  0.949999988079071)
(X_125  0.9460784196853638)
(X_126  0.949999988079071)
(X_127  0.949999988079071)
(X_128  1.0499999523162842)
(X_129  1.0499999523162842)
(X_130  1.0499999523162842)
(X_131  1.0499999523162842)
(X_132  1.0499999523162842)
(X_133  1.0499999523162842)
(X_134  1.0499999523162842)
(X_135  1.0499999523162842)
(X_136  0.949999988079071)
(X_137  0.949999988079071)
(X_138  1.0499999523162842)
(X_139  1.0499999523162842)
(X_140  1.0029411315917969)
(X_141  0.9029411673545837)
(X_142  0.9107843041419983)
(X_143  0.9147058725357056)
(X_144  0.9225490093231201)
(X_145  0.9303921461105347)
(X_146  0.9343137145042419)
(X_147  1.0382353067398071)
(X_148  1.0382353067398071)
(X_149  1.0499999523162842)
(X_150  1.0499999523162842)
(X_151  1.0499999523162842)
(X_152  1.034313678741455)
(X_153  0.9303921461105347)
(X_154  1.0382353067398071)
(X_155  1.0460784435272217)
(X_156  0.949999988079071)
(X_157  0.949999988079071)
(X_158  0.949999988079071)
(X_159  1.0499999523162842)
(X_160  0.949999988079071)
(X_161  0.949999988079071)
(X_162  0.949999988079071)
(X_163  0.949999988079071)
(X_164  0.9460784196853638)
(X_165  0.949999988079071)
(X_166  0.949999988079071)
(X_167  1.0499999523162842)
(X_168  0.3068627417087555)
(X_169  0.4225490391254425)
(X_170  0.45000001788139343)
(X_171  0.4852941334247589)
(X_172  0.5284313559532166)
(X_173  0.4637255072593689)
(X_174  0.4911764860153198)
(X_175  0.5068627595901489)
(X_176  0.6539216041564941)
(X_177  0.6813725829124451)
(X_178  0.7166666984558105)
(X_179  0.7441176772117615)
(X_180  0.7637255191802979)
(X_181  0.6911764740943909)
(X_182  0.7264705896377563)
(X_183  0.7539215683937073)
(X_184  0.8813725709915161)
(X_185  0.8852941393852234)
(X_186  0.8931372761726379)
(X_187  0.9009804129600525)
(X_188  0.9127451181411743)
(X_189  0.820588231086731)
(X_190  0.9284313917160034)
(X_191  0.9323529601097107)
(X_192  0.9676470756530762)
(X_193  0.8754901885986328)
(X_194  0.8833333253860474)
(X_195  0.8911764621734619)
(X_196  0.09117648005485535)
(X_197  0.09117648005485535)
(X_198  0.19117647409439087)
(X_199  0.09509804844856262)
(X_200  0.09509804844856262)
(X_201  0.19509804248809814)
(X_202  0.19509804248809814)
(X_203  0.19509804248809814)
(X_204  0.17549020051956177)
(X_205  0.19509804248809814)
(X_206  0.21078431606292725)
(X_207  0.21470588445663452)
(X_208  0.10294118523597717)
(X_209  0.10294118523597717)
(X_210  0.12254902720451355)
(X_211  0.13823530077934265)
(X_212  0.22647058963775635)
(X_213  0.2343137264251709)
(X_214  0.24607843160629272)
(X_215  0.2617647051811218)
(X_216  0.2813725471496582)
(X_217  0.2970588207244873)
(X_218  0.3088235557079315)
(X_219  0.31666669249534607)
(X_220  0.31666669249534607)
(X_221  0.2245098203420639)
(X_222  0.240196093916893)
(X_223  0.35196080803871155)
(X_224  0.0676470622420311)
(X_225  0.07156863063573837)
(X_226  0.07549020648002625)
(X_227  0.18333333730697632)
(X_228  0.1872549057006836)
(X_229  0.09117648005485535)
(X_230  0.09117648005485535)
(X_231  0.09117648005485535)
(X_232  0.0833333432674408)
(X_233  0.09509804844856262)
(X_234  0.20686274766921997)
(X_235  0.19901961088180542)
(X_236  0.08725491166114807)
(X_237  0.07941177487373352)
(X_238  0.0833333432674408)
(X_239  0.09117648005485535)
(X_240  0.0676470622420311)
(X_241  0.17941176891326904)
(X_242  0.19117647409439087)
(X_243  0.19901961088180542)
(X_244  0.19901961088180542)
(X_245  0.19901961088180542)
(X_246  0.2029411792755127)
(X_247  0.10686275362968445)
(X_248  0.07941177487373352)
(X_249  0.0833333432674408)
(X_250  0.09117648005485535)
(X_251  0.0990196168422699)
(X_252  0.07156863063573837)
(X_253  0.1715686321258545)
(X_254  0.17549020051956177)
(X_255  0.07941177487373352)
(X_256  0.07941177487373352)
(X_257  0.17941176891326904)
(X_258  0.17941176891326904)
(X_259  0.17549020051956177)
(X_260  0.05588235333561897)
(X_261  0.06372549384832382)
(X_262  0.17549020051956177)
(X_263  0.17941176891326904)
(X_264  0.07941177487373352)
(X_265  0.07549020648002625)
(X_266  0.07941177487373352)
(X_267  0.07941177487373352)
(X_268  0.11078432202339172)
(X_269  0.20686274766921997)
(X_270  0.19509804248809814)
(X_271  0.0833333432674408)
(X_272  0.07941177487373352)
(X_273  0.17941176891326904)
(X_274  0.19117647409439087)
(X_275  0.0990196168422699)
(X_276  0.18333333730697632)
(X_277  0.1872549057006836)
(X_278  0.09509804844856262)
(X_279  0.0990196168422699)
(X_280  0.14803922176361084)
(X_281  0.15196079015731812)
(X_282  0.15980392694473267)
(X_283  0.0676470622420311)
(X_284  0.07156863063573837)
(X_285  0.17549020051956177)
(X_286  0.17549020051956177)
(X_287  0.17549020051956177)
(X_288  0.09509804844856262)
(X_289  0.09509804844856262)
(X_290  0.0990196168422699)
(X_291  0.2029411792755127)
(X_292  0.2029411792755127)
(X_293  0.09509804844856262)
(X_294  0.0833333432674408)
(X_295  0.0676470622420311)
(X_296  0.19509804248809814)
(X_297  0.08725491166114807)
(X_298  0.17549020051956177)
(X_299  0.0676470622420311)
(X_300  0.06372549384832382)
(X_301  0.16372549533843994)
(X_302  0.16764706373214722)
(X_303  0.07156863063573837)
(X_304  0.1872549057006836)
(X_305  0.19117647409439087)
(X_306  0.19509804248809814)
(X_307  0.19509804248809814)
(X_308  0.1558823585510254)
(X_309  0.05980392172932625)
(X_310  0.0676470622420311)
(X_311  0.17941176891326904)
(X_312  0.1872549057006836)
(X_313  0.19509804248809814)
(X_314  0.19901961088180542)
(X_315  0.19901961088180542)
(X_316  0.17941176891326904)
(X_317  0.17549020051956177)
(X_318  0.1715686321258545)
(X_319  0.17941176891326904)
(X_320  0.1872549057006836)
(X_321  0.0833333432674408)
(X_322  0.0676470622420311)
(X_323  0.14803922176361084)
(X_324  0.15196079015731812)
(X_325  0.05588235333561897)
(X_326  0.0676470622420311)
(X_327  0.07941177487373352)
(X_328  0.08725491166114807)
(X_329  0.1872549057006836)
(X_330  0.17549020051956177)
(X_331  0.16764706373214722)
(X_332  0.08725491166114807)
(X_333  0.08725491166114807)
(X_334  0.08725491166114807)
(X_335  0.08725491166114807)
(X_336  0.16372549533843994)
(X_337  0.16372549533843994)
(X_338  0.16372549533843994)
(X_339  0.15980392694473267)
(X_340  0.1558823585510254)
(X_341  0.14803922176361084)
(X_342  0.14411765336990356)
(X_343  0.04019607976078987)
(X_344  0.16764706373214722)
(X_345  0.05980392172932625)
(X_346  0.05588235333561897)
(X_347  0.0676470622420311)
(X_348  0.0833333432674408)
(X_349  0.09509804844856262)
(X_350  0.09509804844856262)
(X_351  0.1872549057006836)
(X_352  0.1558823585510254)
(X_353  0.1558823585510254)
(X_354  0.06372549384832382)
(X_355  0.07941177487373352)
(X_356  0.19117647409439087)
(X_357  0.19509804248809814)
(X_358  0.18333333730697632)
(X_359  0.07156863063573837)
(X_360  0.18333333730697632)
(X_361  0.17941176891326904)
(X_362  0.07549020648002625)
(X_363  0.17549020051956177)
(X_364  0.18921568989753723)
(X_365  0.18529412150382996)
(X_366  0.2696078419685364)
(X_367  0.15000000596046448)
(X_368  0.23039215803146362)
(X_369  0.20686274766921997)
(X_370  0.08725491166114807)
(X_371  0.07549020648002625)
(X_372  0.12647059559822083)
(X_373  0.10686275362968445)
(X_374  0.0833333432674408)
(X_375  0.07156863063573837)
(X_376  0.0676470622420311)
(X_377  0.07549020648002625)
(X_378  0.0833333432674408)
(X_379  0.1872549057006836)
(X_380  0.19901961088180542)
(X_381  0.1872549057006836)
(X_382  0.1715686321258545)
(X_383  0.16764706373214722)
(X_384  0.0676470622420311)
(X_385  0.06372549384832382)
(X_386  0.0519607849419117)
(X_387  0.136274516582489)
(X_388  0.17941176891326904)
(X_389  0.17549020051956177)
(X_390  0.07156863063573837)
(X_391  0.0676470622420311)
(X_392  0.4539215862751007)
(X_393  0.45000001788139343)
(X_394  0.34215685725212097)
(X_395  0.3343137204647064)
(X_396  0.41862747073173523)
(X_397  0.40294119715690613)
(X_398  0.3911764919757843)
(X_399  0.38333335518836975)
(X_400  0.2245098203420639)
(X_401  0.20098040997982025)
(X_402  0.1617647111415863)
(X_403  0.22254902124404907)
(X_404  0.19901961088180542)
(X_405  0.2029411792755127)
(X_406  0.12254902720451355)
(X_407  0.14215686917304993)
(X_408  0.32058826088905334)
(X_409  0.21274511516094208)
(X_410  0.20098040997982025)
(X_411  0.2970588207244873)
(X_412  0.2852941155433655)
(X_413  0.15000000596046448)
(X_414  0.0990196168422699)
(X_415  0.15980392694473267)
(X_416  0.18333333730697632)
(X_417  0.17941176891326904)
(X_418  0.07156863063573837)
(X_419  0.16764706373214722)
(X_420  0.4225490391254425)
(X_421  0.33039215207099915)
(X_422  0.3382352888584137)
(X_423  0.34607842564582825)
(X_424  0.3578431308269501)
(X_425  0.46176472306251526)
(X_426  0.46568629145622253)
(X_427  0.46568629145622253)
(X_428  0.4852941334247589)
(X_429  0.46568629145622253)
(X_430  0.3343137204647064)
(X_431  0.29509803652763367)
(X_432  0.27941176295280457)
(X_433  0.3029411733150482)
(X_434  0.34607842564582825)
(X_435  0.385294109582901)
(X_436  0.4735294282436371)
(X_437  0.4852941334247589)
(X_438  0.5049019455909729)
(X_439  0.520588219165802)
(X_440  0.5009803771972656)
(X_441  0.43039217591285706)
(X_442  0.23627452552318573)
(X_443  0.1617647111415863)
(X_444  0.08725491166114807)
(X_445  0.0833333432674408)
(X_446  0.07549020648002625)
(X_447  0.1715686321258545)
(X_448  0.3754902184009552)
(X_449  0.27156862616539)
(X_450  0.2754901945590973)
(X_451  0.2911764681339264)
(X_452  0.41470590233802795)
(X_453  0.4264706075191498)
(X_454  0.3186274468898773)
(X_455  0.4068627655506134)
(X_456  0.44607844948768616)
(X_457  0.4068627655506134)
(X_458  0.38333335518836975)
(X_459  0.3911764919757843)
(X_460  0.2911764681339264)
(X_461  0.26372548937797546)
(X_462  0.23627452552318573)
(X_463  0.23235295712947845)
(X_464  0.24411766231060028)
(X_465  0.21274511516094208)
(X_466  0.33627453446388245)
(X_467  0.4225490391254425)
(X_468  0.4892157018184662)
(X_469  0.49705883860588074)
(X_470  0.4892157018184662)
(X_471  0.49705883860588074)
(X_472  0.457843154668808)
(X_473  0.3794117867946625)
(X_474  0.3127451241016388)
(X_475  0.30098041892051697)
(X_476  0.3186274468898773)
(X_477  0.3225490152835846)
(X_478  0.4264706075191498)
(X_479  0.4264706075191498)
(X_480  0.3186274468898773)
(X_481  0.31078431010246277)
(X_482  0.3068627417087555)
(X_483  0.40294119715690613)
(X_484  0.40294119715690613)
(X_485  0.38333335518836975)
(X_486  0.2754901945590973)
(X_487  0.2872548997402191)
(X_488  0.2754901945590973)
(X_489  0.22058825194835663)
(X_490  0.16568627953529358)
(X_491  0.13823530077934265)
(X_492  0.15392157435417175)
(X_493  0.2186274528503418)
(X_494  0.22647058963775635)
(X_495  0.2970588207244873)
(X_496  0.3598039448261261)
(X_497  0.3911764919757843)
(X_498  0.41862747073173523)
(X_499  0.3499999940395355)
(X_500  0.5088235139846802)
(X_501  0.385294109582901)
(X_502  0.3735294044017792)
(X_503  0.3892156779766083)
(X_504  0.5401960611343384)
(X_505  0.4637255072593689)
(X_506  0.4833333492279053)
(X_507  0.48725491762161255)
(X_508  0.479411780834198)
(X_509  0.479411780834198)
(X_510  0.5911765098571777)
(X_511  0.6107843518257141)
(X_512  0.44411763548851013)
(X_513  0.5284313559532166)
(X_514  0.520588219165802)
(X_515  0.5166666507720947)
(X_516  0.39313724637031555)
(X_517  0.3382352888584137)
(X_518  0.27941176295280457)
(X_519  0.24803923070430756)
(X_520  0.2088235467672348)
(X_521  0.1617647111415863)
(X_522  0.1303921639919281)
(X_523  0.14215686917304993)
(X_524  0.15784314274787903)
(X_525  0.2696078419685364)
(X_526  0.30098041892051697)
(X_527  0.344117671251297)
(X_528  0.3637255132198334)
(X_529  0.2872548997402191)
(X_530  0.3068627417087555)
(X_531  0.31470587849617004)
(X_532  0.3480392396450043)
(X_533  0.36764708161354065)
(X_534  0.3911764919757843)
(X_535  0.4068627655506134)
(X_536  0.41862747073173523)
(X_537  0.3343137204647064)
(X_538  0.3578431308269501)
(X_539  0.4735294282436371)
(X_540  0.3186274468898773)
(X_541  0.31470587849617004)
(X_542  0.4264706075191498)
(X_543  0.3539215624332428)
(X_544  0.39313724637031555)
(X_545  0.42843136191368103)
(X_546  0.4480392038822174)
(X_547  0.4598039388656616)
(X_548  0.4696078598499298)
(X_549  0.32647058367729187)
(X_550  0.2754901945590973)
(X_551  0.240196093916893)
(X_552  0.3088235557079315)
(X_553  0.2852941155433655)
(X_554  0.2970588207244873)
(X_555  0.22843138873577118)
(X_556  0.344117671251297)
(X_557  0.2754901945590973)
(X_558  0.38333335518836975)
(X_559  0.3558823764324188)
(X_560  0.30098041892051697)
(X_561  0.2970588207244873)
(X_562  0.2970588207244873)
(X_563  0.2088235467672348)
(X_564  0.22843138873577118)
(X_565  0.24411766231060028)
(X_566  0.24411766231060028)
(X_567  0.240196093916893)
(X_568  0.27941176295280457)
(X_569  0.3637255132198334)
(X_570  0.33627453446388245)
(X_571  0.31666669249534607)
(X_572  0.21274511516094208)
(X_573  0.22843138873577118)
(X_574  0.240196093916893)
(X_575  0.24411766231060028)
(X_576  0.3735294044017792)
(X_577  0.3578431308269501)
(X_578  0.34215685725212097)
(X_579  0.3225490152835846)
(X_580  0.29509803652763367)
(X_581  0.3794117867946625)
(X_582  0.387254923582077)
(X_583  0.40294119715690613)
(X_584  0.387254923582077)
(X_585  0.3225490152835846)
(X_586  0.32647058367729187)
(X_587  0.3911764919757843)
(X_588  0.27352941036224365)
(X_589  0.1617647111415863)
(X_590  0.15000000596046448)
(X_591  0.15784314274787903)
(X_592  0.18137255311012268)
(X_593  0.1931372582912445)
(X_594  0.18921568989753723)
(X_595  0.2813725471496582)
(X_596  0.23039215803146362)
(X_597  0.24215686321258545)
(X_598  0.24607843160629272)
(X_599  0.24607843160629272)
(X_600  0.15784314274787903)
(X_601  0.18529412150382996)
(X_602  0.19705882668495178)
(X_603  0.1931372582912445)
(X_604  0.3284313976764679)
(X_605  0.33235296607017517)
(X_606  0.344117671251297)
(X_607  0.3480392396450043)
(X_608  0.25196078419685364)
(X_609  0.2558823525905609)
(X_610  0.3598039448261261)
(X_611  0.3715686500072479)
(X_612  0.3225490152835846)
(X_613  0.3578431308269501)
(X_614  0.4852941334247589)
(X_615  0.4892157018184662)
(X_616  0.21078431606292725)
(X_617  0.20686274766921997)
(X_618  0.10686275362968445)
(X_619  0.114705890417099)
(X_620  0.1303921639919281)
(X_621  0.14215686917304993)
(X_622  0.15000000596046448)
(X_623  0.15392157435417175)
(X_624  0.22647058963775635)
(X_625  0.24215686321258545)
(X_626  0.24215686321258545)
(X_627  0.2186274528503418)
(X_628  0.10686275362968445)
(X_629  0.10686275362968445)
(X_630  0.09509804844856262)
(X_631  0.07549020648002625)
(X_632  0.22254902124404907)
(X_633  0.12647059559822083)
(X_634  0.12647059559822083)
(X_635  0.1303921639919281)
(X_636  0.13823530077934265)
(X_637  0.2539215683937073)
(X_638  0.25784313678741455)
(X_639  0.15784314274787903)
(X_640  0.1617647111415863)
(X_641  0.17352941632270813)
(X_642  0.3088235557079315)
(X_643  0.344117671251297)
(X_644  0.07941177487373352)
(X_645  0.09117648005485535)
(X_646  0.19509804248809814)
(X_647  0.1872549057006836)
(X_648  0.17941176891326904)
(X_649  0.07941177487373352)
(X_650  0.09509804844856262)
(X_651  0.21078431606292725)
(X_652  0.0833333432674408)
(X_653  0.10294118523597717)
(X_654  0.2029411792755127)
(X_655  0.18333333730697632)
(X_656  0.07941177487373352)
(X_657  0.2029411792755127)
(X_658  0.21470588445663452)
(X_659  0.10294118523597717)
(X_660  0.21470588445663452)
(X_661  0.20686274766921997)
(X_662  0.19117647409439087)
(X_663  0.0833333432674408)
(X_664  0.09117648005485535)
(X_665  0.21470588445663452)
(X_666  0.22647058963775635)
(X_667  0.12254902720451355)
(X_668  0.1303921639919281)
(X_669  0.114705890417099)
(X_670  0.23039215803146362)
(X_671  0.16960784792900085)
(X_672  0.16764706373214722)
(X_673  0.0676470622420311)
(X_674  0.0676470622420311)
(X_675  0.06372549384832382)
(X_676  0.0676470622420311)
(X_677  0.07156863063573837)
(X_678  0.17549020051956177)
(X_679  0.17549020051956177)
(X_680  0.05980392172932625)
(X_681  0.16764706373214722)
(X_682  0.07549020648002625)
(X_683  0.07549020648002625)
(X_684  0.0676470622420311)
(X_685  0.06372549384832382)
(X_686  0.0676470622420311)
(X_687  0.07156863063573837)
(X_688  0.17941176891326904)
(X_689  0.18333333730697632)
(X_690  0.08725491166114807)
(X_691  0.09117648005485535)
(X_692  0.09509804844856262)
(X_693  0.09509804844856262)
(X_694  0.09509804844856262)
(X_695  0.09509804844856262)
(X_696  0.19117647409439087)
(X_697  0.19509804248809814)
(X_698  0.19901961088180542)
(X_699  0.2029411792755127)
(X_700  0.1558823585510254)
(X_701  0.05588235333561897)
(X_702  0.0519607849419117)
(X_703  0.0519607849419117)
(X_704  0.05588235333561897)
(X_705  0.05588235333561897)
(X_706  0.05980392172932625)
(X_707  0.06372549384832382)
(X_708  0.04803921654820442)
(X_709  0.1558823585510254)
(X_710  0.16372549533843994)
(X_711  0.06372549384832382)
(X_712  0.1558823585510254)
(X_713  0.0519607849419117)
(X_714  0.05588235333561897)
(X_715  0.05980392172932625)
(X_716  0.16372549533843994)
(X_717  0.16372549533843994)
(X_718  0.1715686321258545)
(X_719  0.07549020648002625)
(X_720  0.07941177487373352)
(X_721  0.07941177487373352)
(X_722  0.07941177487373352)
(X_723  0.17941176891326904)
(X_724  0.17549020051956177)
(X_725  0.17549020051956177)
(X_726  0.18333333730697632)
(X_727  0.1872549057006836)
(X_728  0.1401960849761963)
(X_729  0.1401960849761963)
(X_730  0.136274516582489)
(X_731  0.136274516582489)
(X_732  0.1401960849761963)
(X_733  0.1401960849761963)
(X_734  0.14411765336990356)
(X_735  0.14803922176361084)
(X_736  0.136274516582489)
(X_737  0.14411765336990356)
(X_738  0.04803921654820442)
(X_739  0.04803921654820442)
(X_740  0.04411764815449715)
(X_741  0.04019607976078987)
(X_742  0.04019607976078987)
(X_743  0.04411764815449715)
(X_744  0.04019607976078987)
(X_745  0.04411764815449715)
(X_746  0.14803922176361084)
(X_747  0.0519607849419117)
(X_748  0.05588235333561897)
(X_749  0.1558823585510254)
(X_750  0.05588235333561897)
(X_751  0.05588235333561897)
(X_752  0.15196079015731812)
(X_753  0.1558823585510254)
(X_754  0.15980392694473267)
(X_755  0.16372549533843994)
(X_756  0.13235294818878174)
(X_757  0.12843137979507446)
(X_758  0.12843137979507446)
(X_759  0.12843137979507446)
(X_760  0.028431374579668045)
(X_761  0.03235294297337532)
(X_762  0.036274511367082596)
(X_763  0.04019607976078987)
(X_764  0.028431374579668045)
(X_765  0.036274511367082596)
(X_766  0.04019607976078987)
(X_767  0.04019607976078987)
(X_768  0.036274511367082596)
(X_769  0.03235294297337532)
(X_770  0.03235294297337532)
(X_771  0.036274511367082596)
(X_772  0.02450980618596077)
(X_773  0.028431374579668045)
(X_774  0.13235294818878174)
(X_775  0.1401960849761963)
(X_776  0.1401960849761963)
(X_777  0.14411765336990356)
(X_778  0.14411765336990356)
(X_779  0.1401960849761963)
(X_780  0.036274511367082596)
(X_781  0.1401960849761963)
(X_782  0.14411765336990356)
(X_783  0.15196079015731812)
(Y_0 -25.409881591796875)
(Y_1 41.89910125732422)
(Y_2 -21.086978912353516)
(Y_3 7.993653774261475))