((X_0  1.0382353067398071)
(X_1  0.9343137145042419)
(X_2  0.9264705777168274)
(X_3  0.9186274409294128)
(X_4  0.9186274409294128)
(X_5  1.018627405166626)
(X_6  0.9264705777168274)
(X_7  0.9303921461105347)
(X_8  1.0303921699523926)
(X_9  1.0264705419540405)
(X_10  1.0264705419540405)
(X_11  0.9264705777168274)
(X_12  0.9343137145042419)
(X_13  1.0421568155288696)
(X_14  1.0499999523162842)
(X_15  1.0499999523162842)
(X_16  0.9303921461105347)
(X_17  0.949999988079071)
(X_18  0.949999988079071)
(X_19  0.949999988079071)
(X_20  1.0499999523162842)
(X_21  1.0499999523162842)
(X_22  1.0499999523162842)
(X_23  0.9460784196853638)
(X_24  1.0460784435272217)
(X_25  1.0499999523162842)
(X_26  1.0499999523162842)
(X_27  1.0499999523162842)
(X_28  0.4107843339443207)
(X_29  0.41470590233802795)
(X_30  0.32647058367729187)
(X_31  0.34215685725212097)
(X_32  0.3578431308269501)
(X_33  0.37745097279548645)
(X_34  0.3892156779766083)
(X_35  0.49705883860588074)
(X_36  0.3892156779766083)
(X_37  0.39313724637031555)
(X_38  0.39313724637031555)
(X_39  0.39313724637031555)
(X_40  0.3970588147640228)
(X_41  0.5049019455909729)
(X_42  0.5166666507720947)
(X_43  0.5245097875595093)
(X_44  0.551960825920105)
(X_45  0.5558823943138123)
(X_46  0.4362744987010956)
(X_47  0.4049019515514374)
(X_48  0.3970588147640228)
(X_49  0.42450979351997375)
(X_50  0.45588237047195435)
(X_51  0.47156864404678345)
(X_52  0.5833333730697632)
(X_53  0.5833333730697632)
(X_54  0.4754902124404907)
(X_55  0.47156864404678345)
(X_56  0.1558823585510254)
(X_57  0.05588235333561897)
(X_58  0.0519607849419117)
(X_59  0.04803921654820442)
(X_60  0.04411764815449715)
(X_61  0.04019607976078987)
(X_62  0.04019607976078987)
(X_63  0.036274511367082596)
(X_64  0.04411764815449715)
(X_65  0.0519607849419117)
(X_66  0.05588235333561897)
(X_67  0.15196079015731812)
(X_68  0.1401960849761963)
(X_69  0.14411765336990356)
(X_70  0.05588235333561897)
(X_71  0.07156863063573837)
(X_72  0.06372549384832382)
(X_73  0.07549020648002625)
(X_74  0.07941177487373352)
(X_75  0.05980392172932625)
(X_76  0.0519607849419117)
(X_77  0.16372549533843994)
(X_78  0.16764706373214722)
(X_79  0.15980392694473267)
(X_80  0.17941176891326904)
(X_81  0.1715686321258545)
(X_82  0.15980392694473267)
(X_83  0.14803922176361084)
(X_84  0.17549020051956177)
(X_85  0.1715686321258545)
(X_86  0.16372549533843994)
(X_87  0.05980392172932625)
(X_88  0.06372549384832382)
(X_89  0.0676470622420311)
(X_90  0.07549020648002625)
(X_91  0.07941177487373352)
(X_92  0.0676470622420311)
(X_93  0.07549020648002625)
(X_94  0.07941177487373352)
(X_95  0.07156863063573837)
(X_96  0.1558823585510254)
(X_97  0.15196079015731812)
(X_98  0.16764706373214722)
(X_99  0.18333333730697632)
(X_100  0.1401960849761963)
(X_101  0.16372549533843994)
(X_102  0.07941177487373352)
(X_103  0.0833333432674408)
(X_104  0.0833333432674408)
(X_105  0.08725491166114807)
(X_106  0.07549020648002625)
(X_107  0.05588235333561897)
(X_108  0.07941177487373352)
(X_109  0.07156863063573837)
(X_110  0.06372549384832382)
(X_111  0.05980392172932625)
(X_112  0.15392157435417175)
(X_113  0.2343137264251709)
(X_114  0.2029411792755127)
(X_115  0.07549020648002625)
(X_116  0.0519607849419117)
(X_117  0.04411764815449715)
(X_118  0.04803921654820442)
(X_119  0.04803921654820442)
(X_120  0.136274516582489)
(X_121  0.04411764815449715)
(X_122  0.0519607849419117)
(X_123  0.0519607849419117)
(X_124  0.14803922176361084)
(X_125  0.15196079015731812)
(X_126  0.0676470622420311)
(X_127  0.0833333432674408)
(X_128  0.19509804248809814)
(X_129  0.19509804248809814)
(X_130  0.17941176891326904)
(X_131  0.1558823585510254)
(X_132  0.1558823585510254)
(X_133  0.17941176891326904)
(X_134  0.09117648005485535)
(X_135  0.1872549057006836)
(X_136  0.15196079015731812)
(X_137  0.14803922176361084)
(X_138  0.14411765336990356)
(X_139  0.15196079015731812)
(X_140  0.43039217591285706)
(X_141  0.40294119715690613)
(X_142  0.3558823764324188)
(X_143  0.30098041892051697)
(X_144  0.25784313678741455)
(X_145  0.12647059559822083)
(X_146  0.11078432202339172)
(X_147  0.2029411792755127)
(X_148  0.19117647409439087)
(X_149  0.19509804248809814)
(X_150  0.09509804844856262)
(X_151  0.10294118523597717)
(X_152  0.2186274528503418)
(X_153  0.2343137264251709)
(X_154  0.24607843160629272)
(X_155  0.2539215683937073)
(X_156  0.18921568989753723)
(X_157  0.28921568393707275)
(X_158  0.2696078419685364)
(X_159  0.2343137264251709)
(X_160  0.21078431606292725)
(X_161  0.1872549057006836)
(X_162  0.1558823585510254)
(X_163  0.12058823555707932)
(X_164  0.17941176891326904)
(X_165  0.1715686321258545)
(X_166  0.16372549533843994)
(X_167  0.1715686321258545)
(X_168  0.43039217591285706)
(X_169  0.4264706075191498)
(X_170  0.3225490152835846)
(X_171  0.3186274468898773)
(X_172  0.3186274468898773)
(X_173  0.3225490152835846)
(X_174  0.32647058367729187)
(X_175  0.33039215207099915)
(X_176  0.3911764919757843)
(X_177  0.3754902184009552)
(X_178  0.3637255132198334)
(X_179  0.3715686500072479)
(X_180  0.387254923582077)
(X_181  0.40294119715690613)
(X_182  0.29901960492134094)
(X_183  0.29509803652763367)
(X_184  0.2911764681339264)
(X_185  0.4107843339443207)
(X_186  0.41862747073173523)
(X_187  0.4068627655506134)
(X_188  0.3794117867946625)
(X_189  0.23235295712947845)
(X_190  0.1617647111415863)
(X_191  0.19901961088180542)
(X_192  0.16764706373214722)
(X_193  0.14411765336990356)
(X_194  0.12058823555707932)
(X_195  0.11274509876966476)
(X_196  0.2245098203420639)
(X_197  0.33627453446388245)
(X_198  0.35196080803871155)
(X_199  0.26764705777168274)
(X_200  0.28333333134651184)
(X_201  0.2911764681339264)
(X_202  0.2911764681339264)
(X_203  0.3911764919757843)
(X_204  0.3029411733150482)
(X_205  0.3754902184009552)
(X_206  0.344117671251297)
(X_207  0.3401961028575897)
(X_208  0.2558823525905609)
(X_209  0.2558823525905609)
(X_210  0.240196093916893)
(X_211  0.21666668355464935)
(X_212  0.3088235557079315)
(X_213  0.32058826088905334)
(X_214  0.33235296607017517)
(X_215  0.33627453446388245)
(X_216  0.3480392396450043)
(X_217  0.2558823525905609)
(X_218  0.33627453446388245)
(X_219  0.30490198731422424)
(X_220  0.23039215803146362)
(X_221  0.19509804248809814)
(X_222  0.15196079015731812)
(X_223  0.13235294818878174)
(X_224  0.3892156779766083)
(X_225  0.3382352888584137)
(X_226  0.26764705777168274)
(X_227  0.32058826088905334)
(X_228  0.21274511516094208)
(X_229  0.2245098203420639)
(X_230  0.240196093916893)
(X_231  0.24803923070430756)
(X_232  0.3480392396450043)
(X_233  0.33235296607017517)
(X_234  0.33627453446388245)
(X_235  0.24803923070430756)
(X_236  0.240196093916893)
(X_237  0.2088235467672348)
(X_238  0.1931372582912445)
(X_239  0.20098040997982025)
(X_240  0.25196078419685364)
(X_241  0.30098041892051697)
(X_242  0.28921568393707275)
(X_243  0.32058826088905334)
(X_244  0.32058826088905334)
(X_245  0.2813725471496582)
(X_246  0.29313725233078003)
(X_247  0.3401961028575897)
(X_248  0.2754901945590973)
(X_249  0.21666668355464935)
(X_250  0.1303921639919281)
(X_251  0.15980392694473267)
(X_252  0.44411763548851013)
(X_253  0.4362744987010956)
(X_254  0.4205882251262665)
(X_255  0.49313727021217346)
(X_256  0.4539215862751007)
(X_257  0.4107843339443207)
(X_258  0.3715686500072479)
(X_259  0.35196080803871155)
(X_260  0.17352941632270813)
(X_261  0.18921568989753723)
(X_262  0.23235295712947845)
(X_263  0.2911764681339264)
(X_264  0.4107843339443207)
(X_265  0.3911764919757843)
(X_266  0.3754902184009552)
(X_267  0.3754902184009552)
(X_268  0.3715686500072479)
(X_269  0.3911764919757843)
(X_270  0.41862747073173523)
(X_271  0.43431374430656433)
(X_272  0.31078431010246277)
(X_273  0.25196078419685364)
(X_274  0.18529412150382996)
(X_275  0.25)
(X_276  0.17352941632270813)
(X_277  0.16960784792900085)
(X_278  0.17352941632270813)
(X_279  0.18137255311012268)
(X_280  0.34215685725212097)
(X_281  0.47745099663734436)
(X_282  0.4166666567325592)
(X_283  0.4362744987010956)
(X_284  0.4166666567325592)
(X_285  0.3735294044017792)
(X_286  0.43039217591285706)
(X_287  0.4068627655506134)
(X_288  0.4421568810939789)
(X_289  0.33039215207099915)
(X_290  0.33039215207099915)
(X_291  0.3382352888584137)
(X_292  0.3382352888584137)
(X_293  0.33039215207099915)
(X_294  0.33039215207099915)
(X_295  0.34215685725212097)
(X_296  0.48137256503105164)
(X_297  0.41274508833885193)
(X_298  0.42450979351997375)
(X_299  0.4049019515514374)
(X_300  0.49313727021217346)
(X_301  0.4892157018184662)
(X_302  0.457843154668808)
(X_303  0.31470587849617004)
(X_304  0.21666668355464935)
(X_305  0.30098041892051697)
(X_306  0.18137255311012268)
(X_307  0.16568627953529358)
(X_308  0.3284313976764679)
(X_309  0.35196080803871155)
(X_310  0.2911764681339264)
(X_311  0.3343137204647064)
(X_312  0.3656862676143646)
(X_313  0.3813725411891937)
(X_314  0.3813725411891937)
(X_315  0.3813725411891937)
(X_316  0.457843154668808)
(X_317  0.3499999940395355)
(X_318  0.34607842564582825)
(X_319  0.4539215862751007)
(X_320  0.3656862676143646)
(X_321  0.385294109582901)
(X_322  0.4049019515514374)
(X_323  0.42450979351997375)
(X_324  0.3029411733150482)
(X_325  0.29901960492134094)
(X_326  0.27941176295280457)
(X_327  0.26372548937797546)
(X_328  0.3754902184009552)
(X_329  0.4107843339443207)
(X_330  0.34215685725212097)
(X_331  0.4539215862751007)
(X_332  0.3578431308269501)
(X_333  0.3225490152835846)
(X_334  0.26764705777168274)
(X_335  0.21666668355464935)
(X_336  0.2598039209842682)
(X_337  0.344117671251297)
(X_338  0.344117671251297)
(X_339  0.3715686500072479)
(X_340  0.4264706075191498)
(X_341  0.46568629145622253)
(X_342  0.3735294044017792)
(X_343  0.3696078360080719)
(X_344  0.46568629145622253)
(X_345  0.4735294282436371)
(X_346  0.3735294044017792)
(X_347  0.3499999940395355)
(X_348  0.3068627417087555)
(X_349  0.25196078419685364)
(X_350  0.18921568989753723)
(X_351  0.25)
(X_352  0.24607843160629272)
(X_353  0.21470588445663452)
(X_354  0.2186274528503418)
(X_355  0.15392157435417175)
(X_356  0.25784313678741455)
(X_357  0.2343137264251709)
(X_358  0.23823529481887817)
(X_359  0.27352941036224365)
(X_360  0.3754902184009552)
(X_361  0.2872548997402191)
(X_362  0.3029411733150482)
(X_363  0.31470587849617004)
(X_364  0.25196078419685364)
(X_365  0.2245098203420639)
(X_366  0.20490197837352753)
(X_367  0.33235296607017517)
(X_368  0.3794117867946625)
(X_369  0.40294119715690613)
(X_370  0.3911764919757843)
(X_371  0.26372548937797546)
(X_372  0.19705882668495178)
(X_373  0.21274511516094208)
(X_374  0.21666668355464935)
(X_375  0.30490198731422424)
(X_376  0.28921568393707275)
(X_377  0.17352941632270813)
(X_378  0.1460784375667572)
(X_379  0.11862745881080627)
(X_380  0.23823529481887817)
(X_381  0.19117647409439087)
(X_382  0.19117647409439087)
(X_383  0.23823529481887817)
(X_384  0.13823530077934265)
(X_385  0.08725491166114807)
(X_386  0.1872549057006836)
(X_387  0.2343137264251709)
(X_388  0.24607843160629272)
(X_389  0.2774509787559509)
(X_390  0.2245098203420639)
(X_391  0.2598039209842682)
(X_392  0.23823529481887817)
(X_393  0.22647058963775635)
(X_394  0.1303921639919281)
(X_395  0.25784313678741455)
(X_396  0.2970588207244873)
(X_397  0.3127451241016388)
(X_398  0.29313725233078003)
(X_399  0.2656862735748291)
(X_400  0.3127451241016388)
(X_401  0.30490198731422424)
(X_402  0.16568627953529358)
(X_403  0.21078431606292725)
(X_404  0.07941177487373352)
(X_405  0.07549020648002625)
(X_406  0.0676470622420311)
(X_407  0.0519607849419117)
(X_408  0.10294118523597717)
(X_409  0.17549020051956177)
(X_410  0.15980392694473267)
(X_411  0.1715686321258545)
(X_412  0.1715686321258545)
(X_413  0.16764706373214722)
(X_414  0.18333333730697632)
(X_415  0.21470588445663452)
(X_416  0.12647059559822083)
(X_417  0.1460784375667572)
(X_418  0.16960784792900085)
(X_419  0.18529412150382996)
(X_420  0.07549020648002625)
(X_421  0.07941177487373352)
(X_422  0.09117648005485535)
(X_423  0.114705890417099)
(X_424  0.13823530077934265)
(X_425  0.1460784375667572)
(X_426  0.13823530077934265)
(X_427  0.23039215803146362)
(X_428  0.11078432202339172)
(X_429  0.1303921639919281)
(X_430  0.1303921639919281)
(X_431  0.10686275362968445)
(X_432  0.19901961088180542)
(X_433  0.19901961088180542)
(X_434  0.18333333730697632)
(X_435  0.05588235333561897)
(X_436  0.13235294818878174)
(X_437  0.1558823585510254)
(X_438  0.15980392694473267)
(X_439  0.14411765336990356)
(X_440  0.1401960849761963)
(X_441  0.15196079015731812)
(X_442  0.04411764815449715)
(X_443  0.020588237792253494)
(X_444  0.028431374579668045)
(X_445  0.06372549384832382)
(X_446  0.11078432202339172)
(X_447  0.24215686321258545)
(X_448  0.17549020051956177)
(X_449  0.1715686321258545)
(X_450  0.16764706373214722)
(X_451  0.16372549533843994)
(X_452  0.16372549533843994)
(X_453  0.0676470622420311)
(X_454  0.1715686321258545)
(X_455  0.17549020051956177)
(X_456  0.17549020051956177)
(X_457  0.17549020051956177)
(X_458  0.17549020051956177)
(X_459  0.07549020648002625)
(X_460  0.1715686321258545)
(X_461  0.16372549533843994)
(X_462  0.15980392694473267)
(X_463  0.1558823585510254)
(X_464  0.05588235333561897)
(X_465  0.05588235333561897)
(X_466  0.15980392694473267)
(X_467  0.15980392694473267)
(X_468  0.15980392694473267)
(X_469  0.16372549533843994)
(X_470  0.16372549533843994)
(X_471  0.16372549533843994)
(X_472  0.15196079015731812)
(X_473  0.16764706373214722)
(X_474  0.19117647409439087)
(X_475  0.21470588445663452)
(X_476  0.05980392172932625)
(X_477  0.05980392172932625)
(X_478  0.05588235333561897)
(X_479  0.1558823585510254)
(X_480  0.05588235333561897)
(X_481  0.05588235333561897)
(X_482  0.05980392172932625)
(X_483  0.05980392172932625)
(X_484  0.16372549533843994)
(X_485  0.16372549533843994)
(X_486  0.06372549384832382)
(X_487  0.06372549384832382)
(X_488  0.05980392172932625)
(X_489  0.05588235333561897)
(X_490  0.04803921654820442)
(X_491  0.04411764815449715)
(X_492  0.0519607849419117)
(X_493  0.0519607849419117)
(X_494  0.05588235333561897)
(X_495  0.1558823585510254)
(X_496  0.1558823585510254)
(X_497  0.15980392694473267)
(X_498  0.15980392694473267)
(X_499  0.15980392694473267)
(X_500  0.16764706373214722)
(X_501  0.0833333432674408)
(X_502  0.10686275362968445)
(X_503  0.1303921639919281)
(X_504  0.04019607976078987)
(X_505  0.04411764815449715)
(X_506  0.14411765336990356)
(X_507  0.14803922176361084)
(X_508  0.14803922176361084)
(X_509  0.04411764815449715)
(X_510  0.04411764815449715)
(X_511  0.04019607976078987)
(X_512  0.04803921654820442)
(X_513  0.04803921654820442)
(X_514  0.04803921654820442)
(X_515  0.04803921654820442)
(X_516  0.04411764815449715)
(X_517  0.04019607976078987)
(X_518  0.036274511367082596)
(X_519  0.03235294297337532)
(X_520  0.04411764815449715)
(X_521  0.04803921654820442)
(X_522  0.04803921654820442)
(X_523  0.04803921654820442)
(X_524  0.0519607849419117)
(X_525  0.0519607849419117)
(X_526  0.0519607849419117)
(X_527  0.1558823585510254)
(X_528  0.05588235333561897)
(X_529  0.0676470622420311)
(X_530  0.0833333432674408)
(X_531  0.10294118523597717)
(X_532  0.12843137979507446)
(X_533  0.13235294818878174)
(X_534  0.136274516582489)
(X_535  0.1401960849761963)
(X_536  0.1401960849761963)
(X_537  0.136274516582489)
(X_538  0.03235294297337532)
(X_539  0.028431374579668045)
(X_540  0.036274511367082596)
(X_541  0.136274516582489)
(X_542  0.1401960849761963)
(X_543  0.036274511367082596)
(X_544  0.036274511367082596)
(X_545  0.03235294297337532)
(X_546  0.028431374579668045)
(X_547  0.02450980618596077)
(X_548  0.136274516582489)
(X_549  0.136274516582489)
(X_550  0.04019607976078987)
(X_551  0.1401960849761963)
(X_552  0.1401960849761963)
(X_553  0.14411765336990356)
(X_554  0.14411765336990356)
(X_555  0.04411764815449715)
(X_556  0.03235294297337532)
(X_557  0.04019607976078987)
(X_558  0.04803921654820442)
(X_559  0.0519607849419117)
(X_560  0.12450980395078659)
(X_561  0.028431374579668045)
(X_562  0.13235294818878174)
(X_563  0.136274516582489)
(X_564  0.136274516582489)
(X_565  0.13235294818878174)
(X_566  0.12843137979507446)
(X_567  0.02450980618596077)
(X_568  0.12843137979507446)
(X_569  0.03235294297337532)
(X_570  0.03235294297337532)
(X_571  0.03235294297337532)
(X_572  0.03235294297337532)
(X_573  0.028431374579668045)
(X_574  0.02450980618596077)
(X_575  0.02450980618596077)
(X_576  0.028431374579668045)
(X_577  0.028431374579668045)
(X_578  0.12843137979507446)
(X_579  0.13235294818878174)
(X_580  0.13235294818878174)
(X_581  0.13235294818878174)
(X_582  0.136274516582489)
(X_583  0.136274516582489)
(X_584  0.03235294297337532)
(X_585  0.03235294297337532)
(X_586  0.036274511367082596)
(X_587  0.036274511367082596)
(X_588  0.02450980618596077)
(X_589  0.02450980618596077)
(X_590  0.028431374579668045)
(X_591  0.028431374579668045)
(X_592  0.028431374579668045)
(X_593  0.12843137979507446)
(X_594  0.12450980395078659)
(X_595  0.12450980395078659)
(X_596  0.12450980395078659)
(X_597  0.02450980618596077)
(X_598  0.028431374579668045)
(X_599  0.028431374579668045)
(X_600  0.028431374579668045)
(X_601  0.02450980618596077)
(X_602  0.02450980618596077)
(X_603  0.020588237792253494)
(X_604  0.11666666716337204)
(X_605  0.020588237792253494)
(X_606  0.12058823555707932)
(X_607  0.12058823555707932)
(X_608  0.12450980395078659)
(X_609  0.12450980395078659)
(X_610  0.12450980395078659)
(X_611  0.12843137979507446)
(X_612  0.12058823555707932)
(X_613  0.020588237792253494)
(X_614  0.12450980395078659)
(X_615  0.12450980395078659)
(X_616  0.12058823555707932)
(X_617  0.12058823555707932)
(X_618  0.01666666939854622)
(X_619  0.01666666939854622)
(X_620  0.11666666716337204)
(X_621  0.11666666716337204)
(X_622  0.12058823555707932)
(X_623  0.12058823555707932)
(X_624  0.11274509876966476)
(X_625  0.11666666716337204)
(X_626  0.12058823555707932)
(X_627  0.020588237792253494)
(X_628  0.020588237792253494)
(X_629  0.020588237792253494)
(X_630  0.01666666939854622)
(X_631  0.01666666939854622)
(X_632  0.11274509876966476)
(X_633  0.11274509876966476)
(X_634  0.11274509876966476)
(X_635  0.11666666716337204)
(X_636  0.11666666716337204)
(X_637  0.11666666716337204)
(X_638  0.12058823555707932)
(X_639  0.12058823555707932)
(X_640  0.10882353037595749)
(X_641  0.10882353037595749)
(X_642  0.10882353037595749)
(X_643  0.10882353037595749)
(X_644  0.12058823555707932)
(X_645  0.01666666939854622)
(X_646  0.10882353037595749)
(X_647  0.10490196198225021)
(X_648  0.10490196198225021)
(X_649  0.10882353037595749)
(X_650  0.11666666716337204)
(X_651  0.12058823555707932)
(X_652  0.10882353037595749)
(X_653  0.008823529817163944)
(X_654  0.012745101936161518)
(X_655  0.01666666939854622)
(X_656  0.01666666939854622)
(X_657  0.012745101936161518)
(X_658  0.012745101936161518)
(X_659  0.008823529817163944)
(X_660  0.008823529817163944)
(X_661  0.008823529817163944)
(X_662  0.10882353037595749)
(X_663  0.11274509876966476)
(X_664  0.012745101936161518)
(X_665  0.012745101936161518)
(X_666  0.01666666939854622)
(X_667  0.01666666939854622)
(X_668  0.02450980618596077)
(X_669  0.020588237792253494)
(X_670  0.012745101936161518)
(X_671  0.004901961423456669)
(X_672  0.10490196198225021)
(X_673  0.01666666939854622)
(X_674  0.01666666939854622)
(X_675  0.10490196198225021)
(X_676  0.10882353037595749)
(X_677  0.12058823555707932)
(X_678  0.12450980395078659)
(X_679  0.012745101936161518)
(X_680  0.10882353037595749)
(X_681  0.10490196198225021)
(X_682  0.10490196198225021)
(X_683  0.10490196198225021)
(X_684  0.10490196198225021)
(X_685  0.008823529817163944)
(X_686  0.012745101936161518)
(X_687  0.01666666939854622)
(X_688  0.10490196198225021)
(X_689  0.10098039358854294)
(X_690  0.10098039358854294)
(X_691  0.10490196198225021)
(X_692  0.11274509876966476)
(X_693  0.11274509876966476)
(X_694  0.10490196198225021)
(X_695  -0.0029411755967885256)
(X_696  0.004901961423456669)
(X_697  0.10490196198225021)
(X_698  0.008823529817163944)
(X_699  0.008823529817163944)
(X_700  0.10098039358854294)
(X_701  0.012745101936161518)
(X_702  0.11274509876966476)
(X_703  0.10490196198225021)
(X_704  0.004901961423456669)
(X_705  0.01666666939854622)
(X_706  0.020588237792253494)
(X_707  0.008823529817163944)
(X_708  0.008823529817163944)
(X_709  0.004901961423456669)
(X_710  0.10490196198225021)
(X_711  0.10490196198225021)
(X_712  0.10490196198225021)
(X_713  0.10882353037595749)
(X_714  0.012745101936161518)
(X_715  0.01666666939854622)
(X_716  0.004901961423456669)
(X_717  0.0009803927969187498)
(X_718  0.0009803927969187498)
(X_719  0.004901961423456669)
(X_720  0.012745101936161518)
(X_721  0.012745101936161518)
(X_722  0.004901961423456669)
(X_723  -0.0029411755967885256)
(X_724  0.10098039358854294)
(X_725  0.10490196198225021)
(X_726  0.10490196198225021)
(X_727  0.10882353037595749)
(X_728  0.09705882519483566)
(X_729  0.10882353037595749)
(X_730  0.10882353037595749)
(X_731  0.09705882519483566)
(X_732  0.10098039358854294)
(X_733  0.11274509876966476)
(X_734  0.11666666716337204)
(X_735  0.10490196198225021)
(X_736  0.004901961423456669)
(X_737  0.004901961423456669)
(X_738  0.004901961423456669)
(X_739  0.004901961423456669)
(X_740  0.004901961423456669)
(X_741  0.008823529817163944)
(X_742  0.012745101936161518)
(X_743  0.012745101936161518)
(X_744  0.004901961423456669)
(X_745  0.0009803927969187498)
(X_746  0.0009803927969187498)
(X_747  0.004901961423456669)
(X_748  0.11274509876966476)
(X_749  0.11274509876966476)
(X_750  0.004901961423456669)
(X_751  -0.0029411755967885256)
(X_752  0.10098039358854294)
(X_753  0.10098039358854294)
(X_754  0.10490196198225021)
(X_755  0.10882353037595749)
(X_756  0.09313725680112839)
(X_757  0.004901961423456669)
(X_758  0.004901961423456669)
(X_759  -0.006862743757665157)
(X_760  -0.0029411755967885256)
(X_761  0.10882353037595749)
(X_762  0.10882353037595749)
(X_763  0.10098039358854294)
(X_764  0.10490196198225021)
(X_765  0.10490196198225021)
(X_766  0.10098039358854294)
(X_767  0.10098039358854294)
(X_768  0.10490196198225021)
(X_769  0.004901961423456669)
(X_770  0.008823529817163944)
(X_771  0.012745101936161518)
(X_772  0.004901961423456669)
(X_773  0.0009803927969187498)
(X_774  0.0009803927969187498)
(X_775  0.004901961423456669)
(X_776  0.012745101936161518)
(X_777  0.012745101936161518)
(X_778  0.004901961423456669)
(X_779  -0.0029411755967885256)
(X_780  -0.0029411755967885256)
(X_781  0.0009803927969187498)
(X_782  0.004901961423456669)
(X_783  0.008823529817163944)
(Y_0 -19.021018981933594)
(Y_1 31.31844139099121)
(Y_2 -14.037745475769043)
(Y_3 1.2111539840698242))