((X_0  0.16764706373214722)
(X_1  0.0676470622420311)
(X_2  0.07941177487373352)
(X_3  0.2029411792755127)
(X_4  0.11862745881080627)
(X_5  0.12254902720451355)
(X_6  0.20686274766921997)
(X_7  0.19117647409439087)
(X_8  0.21470588445663452)
(X_9  0.22254902124404907)
(X_10  0.13431373238563538)
(X_11  0.24215686321258545)
(X_12  0.24607843160629272)
(X_13  0.24607843160629272)
(X_14  0.14215686917304993)
(X_15  0.13823530077934265)
(X_16  0.15000000596046448)
(X_17  0.1774509847164154)
(X_18  0.20098040997982025)
(X_19  0.21274511516094208)
(X_20  0.20490197837352753)
(X_21  0.20098040997982025)
(X_22  0.21274511516094208)
(X_23  0.3245098292827606)
(X_24  0.22843138873577118)
(X_25  0.22843138873577118)
(X_26  0.22843138873577118)
(X_27  0.3284313976764679)
(X_28  0.15196079015731812)
(X_29  0.04803921654820442)
(X_30  0.0519607849419117)
(X_31  0.16372549533843994)
(X_32  0.1715686321258545)
(X_33  0.16764706373214722)
(X_34  0.15196079015731812)
(X_35  0.036274511367082596)
(X_36  0.05980392172932625)
(X_37  0.06372549384832382)
(X_38  0.17549020051956177)
(X_39  0.18333333730697632)
(X_40  0.18333333730697632)
(X_41  0.18333333730697632)
(X_42  0.17549020051956177)
(X_43  0.1715686321258545)
(X_44  0.14411765336990356)
(X_45  0.05980392172932625)
(X_46  0.07549020648002625)
(X_47  0.07549020648002625)
(X_48  0.15980392694473267)
(X_49  0.14803922176361084)
(X_50  0.1558823585510254)
(X_51  0.16372549533843994)
(X_52  0.16372549533843994)
(X_53  0.16372549533843994)
(X_54  0.16372549533843994)
(X_55  0.16372549533843994)
(X_56  0.1558823585510254)
(X_57  0.0519607849419117)
(X_58  0.04803921654820442)
(X_59  0.15196079015731812)
(X_60  0.05588235333561897)
(X_61  0.0519607849419117)
(X_62  0.04019607976078987)
(X_63  0.03235294297337532)
(X_64  0.04019607976078987)
(X_65  0.14411765336990356)
(X_66  0.15196079015731812)
(X_67  0.1558823585510254)
(X_68  0.1558823585510254)
(X_69  0.15196079015731812)
(X_70  0.14803922176361084)
(X_71  0.14411765336990356)
(X_72  0.0519607849419117)
(X_73  0.05980392172932625)
(X_74  0.0676470622420311)
(X_75  0.05980392172932625)
(X_76  0.14411765336990356)
(X_77  0.136274516582489)
(X_78  0.14411765336990356)
(X_79  0.15196079015731812)
(X_80  0.1558823585510254)
(X_81  0.1558823585510254)
(X_82  0.1558823585510254)
(X_83  0.1558823585510254)
(X_84  0.05980392172932625)
(X_85  0.05588235333561897)
(X_86  0.05588235333561897)
(X_87  0.05588235333561897)
(X_88  0.1558823585510254)
(X_89  0.15980392694473267)
(X_90  0.16372549533843994)
(X_91  0.15980392694473267)
(X_92  0.05588235333561897)
(X_93  0.05588235333561897)
(X_94  0.05980392172932625)
(X_95  0.06372549384832382)
(X_96  0.05980392172932625)
(X_97  0.05588235333561897)
(X_98  0.0519607849419117)
(X_99  0.0519607849419117)
(X_100  0.04411764815449715)
(X_101  0.0519607849419117)
(X_102  0.05588235333561897)
(X_103  0.1558823585510254)
(X_104  0.15196079015731812)
(X_105  0.15196079015731812)
(X_106  0.06372549384832382)
(X_107  0.17549020051956177)
(X_108  0.0676470622420311)
(X_109  0.0676470622420311)
(X_110  0.0676470622420311)
(X_111  0.16764706373214722)
(X_112  0.1558823585510254)
(X_113  0.1558823585510254)
(X_114  0.15196079015731812)
(X_115  0.14803922176361084)
(X_116  0.14803922176361084)
(X_117  0.14803922176361084)
(X_118  0.15196079015731812)
(X_119  0.15980392694473267)
(X_120  0.0519607849419117)
(X_121  0.0519607849419117)
(X_122  0.0519607849419117)
(X_123  0.15196079015731812)
(X_124  0.0519607849419117)
(X_125  0.0519607849419117)
(X_126  0.04803921654820442)
(X_127  0.04803921654820442)
(X_128  0.03235294297337532)
(X_129  0.136274516582489)
(X_130  0.1401960849761963)
(X_131  0.1401960849761963)
(X_132  0.14411765336990356)
(X_133  0.04803921654820442)
(X_134  0.05980392172932625)
(X_135  0.0676470622420311)
(X_136  0.04019607976078987)
(X_137  0.1401960849761963)
(X_138  0.1401960849761963)
(X_139  0.1401960849761963)
(X_140  0.16764706373214722)
(X_141  0.16764706373214722)
(X_142  0.0676470622420311)
(X_143  0.1558823585510254)
(X_144  0.14803922176361084)
(X_145  0.1401960849761963)
(X_146  0.14411765336990356)
(X_147  0.04803921654820442)
(X_148  0.14803922176361084)
(X_149  0.14803922176361084)
(X_150  0.14803922176361084)
(X_151  0.14803922176361084)
(X_152  0.15196079015731812)
(X_153  0.15196079015731812)
(X_154  0.0519607849419117)
(X_155  0.15196079015731812)
(X_156  0.05980392172932625)
(X_157  0.05980392172932625)
(X_158  0.05980392172932625)
(X_159  0.05980392172932625)
(X_160  0.16372549533843994)
(X_161  0.16372549533843994)
(X_162  0.16372549533843994)
(X_163  0.16372549533843994)
(X_164  0.1558823585510254)
(X_165  0.1558823585510254)
(X_166  0.1558823585510254)
(X_167  0.1558823585510254)
(X_168  0.06372549384832382)
(X_169  0.07156863063573837)
(X_170  0.07549020648002625)
(X_171  0.0676470622420311)
(X_172  0.05588235333561897)
(X_173  0.04803921654820442)
(X_174  0.0519607849419117)
(X_175  0.05980392172932625)
(X_176  0.05588235333561897)
(X_177  0.05588235333561897)
(X_178  0.1558823585510254)
(X_179  0.15980392694473267)
(X_180  0.15980392694473267)
(X_181  0.16372549533843994)
(X_182  0.16764706373214722)
(X_183  0.1715686321258545)
(X_184  0.04411764815449715)
(X_185  0.04411764815449715)
(X_186  0.04411764815449715)
(X_187  0.04803921654820442)
(X_188  0.04803921654820442)
(X_189  0.04411764815449715)
(X_190  0.036274511367082596)
(X_191  0.12843137979507446)
(X_192  0.15196079015731812)
(X_193  0.15196079015731812)
(X_194  0.15196079015731812)
(X_195  0.15196079015731812)
(X_196  0.13235294818878174)
(X_197  0.14411765336990356)
(X_198  0.15980392694473267)
(X_199  0.15980392694473267)
(X_200  0.0519607849419117)
(X_201  0.04803921654820442)
(X_202  0.05588235333561897)
(X_203  0.06372549384832382)
(X_204  0.05588235333561897)
(X_205  0.05588235333561897)
(X_206  0.05588235333561897)
(X_207  0.05588235333561897)
(X_208  0.05980392172932625)
(X_209  0.0676470622420311)
(X_210  0.07156863063573837)
(X_211  0.17549020051956177)
(X_212  0.15196079015731812)
(X_213  0.15196079015731812)
(X_214  0.15980392694473267)
(X_215  0.06372549384832382)
(X_216  0.0676470622420311)
(X_217  0.06372549384832382)
(X_218  0.15196079015731812)
(X_219  0.14411765336990356)
(X_220  0.07156863063573837)
(X_221  0.07156863063573837)
(X_222  0.07156863063573837)
(X_223  0.07156863063573837)
(X_224  0.04803921654820442)
(X_225  0.0519607849419117)
(X_226  0.0519607849419117)
(X_227  0.0519607849419117)
(X_228  0.04411764815449715)
(X_229  0.036274511367082596)
(X_230  0.03235294297337532)
(X_231  0.03235294297337532)
(X_232  0.13235294818878174)
(X_233  0.1401960849761963)
(X_234  0.14803922176361084)
(X_235  0.14803922176361084)
(X_236  0.1401960849761963)
(X_237  0.136274516582489)
(X_238  0.1401960849761963)
(X_239  0.14411765336990356)
(X_240  0.17549020051956177)
(X_241  0.0676470622420311)
(X_242  0.15980392694473267)
(X_243  0.14803922176361084)
(X_244  0.136274516582489)
(X_245  0.028431374579668045)
(X_246  0.020588237792253494)
(X_247  0.01666666939854622)
(X_248  0.15196079015731812)
(X_249  0.036274511367082596)
(X_250  0.04411764815449715)
(X_251  0.0676470622420311)
(X_252  0.14411765336990356)
(X_253  0.14411765336990356)
(X_254  0.04803921654820442)
(X_255  0.16372549533843994)
(X_256  0.18333333730697632)
(X_257  0.18333333730697632)
(X_258  0.16372549533843994)
(X_259  0.04803921654820442)
(X_260  0.0833333432674408)
(X_261  0.17941176891326904)
(X_262  0.16372549533843994)
(X_263  0.14411765336990356)
(X_264  0.12843137979507446)
(X_265  0.12450980395078659)
(X_266  0.13235294818878174)
(X_267  0.14411765336990356)
(X_268  0.02450980618596077)
(X_269  0.04411764815449715)
(X_270  0.07549020648002625)
(X_271  0.10686275362968445)
(X_272  0.1303921639919281)
(X_273  0.15392157435417175)
(X_274  0.17352941632270813)
(X_275  0.18137255311012268)
(X_276  0.21274511516094208)
(X_277  0.21274511516094208)
(X_278  0.33235296607017517)
(X_279  0.3754902184009552)
(X_280  0.27941176295280457)
(X_281  0.26764705777168274)
(X_282  0.26372548937797546)
(X_283  0.2754901945590973)
(X_284  0.2872548997402191)
(X_285  0.3754902184009552)
(X_286  0.3401961028575897)
(X_287  0.20490197837352753)
(X_288  0.13431373238563538)
(X_289  0.11862745881080627)
(X_290  0.1872549057006836)
(X_291  0.1558823585510254)
(X_292  0.136274516582489)
(X_293  0.14411765336990356)
(X_294  0.0676470622420311)
(X_295  0.08725491166114807)
(X_296  0.17352941632270813)
(X_297  0.30098041892051697)
(X_298  0.3401961028575897)
(X_299  0.27156862616539)
(X_300  0.2872548997402191)
(X_301  0.40294119715690613)
(X_302  0.4225490391254425)
(X_303  0.3343137204647064)
(X_304  0.43431374430656433)
(X_305  0.4382353127002716)
(X_306  0.3578431308269501)
(X_307  0.39313724637031555)
(X_308  0.26372548937797546)
(X_309  0.26764705777168274)
(X_310  0.2754901945590973)
(X_311  0.29901960492134094)
(X_312  0.3186274468898773)
(X_313  0.32647058367729187)
(X_314  0.31470587849617004)
(X_315  0.40294119715690613)
(X_316  0.29901960492134094)
(X_317  0.28333333134651184)
(X_318  0.24803923070430756)
(X_319  0.21274511516094208)
(X_320  0.29313725233078003)
(X_321  0.2970588207244873)
(X_322  0.31666669249534607)
(X_323  0.23627452552318573)
(X_324  0.26764705777168274)
(X_325  0.387254923582077)
(X_326  0.40294119715690613)
(X_327  0.3029411733150482)
(X_328  0.2872548997402191)
(X_329  0.27941176295280457)
(X_330  0.2872548997402191)
(X_331  0.29509803652763367)
(X_332  0.38333335518836975)
(X_333  0.3911764919757843)
(X_334  0.40294119715690613)
(X_335  0.41862747073173523)
(X_336  0.23235295712947845)
(X_337  0.3401961028575897)
(X_338  0.344117671251297)
(X_339  0.3401961028575897)
(X_340  0.3245098292827606)
(X_341  0.31666669249534607)
(X_342  0.2245098203420639)
(X_343  0.23235295712947845)
(X_344  0.3127451241016388)
(X_345  0.30098041892051697)
(X_346  0.2813725471496582)
(X_347  0.25784313678741455)
(X_348  0.24215686321258545)
(X_349  0.24215686321258545)
(X_350  0.2539215683937073)
(X_351  0.2656862735748291)
(X_352  0.20098040997982025)
(X_353  0.3088235557079315)
(X_354  0.3127451241016388)
(X_355  0.3127451241016388)
(X_356  0.2088235467672348)
(X_357  0.21274511516094208)
(X_358  0.22843138873577118)
(X_359  0.24411766231060028)
(X_360  0.30098041892051697)
(X_361  0.3127451241016388)
(X_362  0.3284313976764679)
(X_363  0.33627453446388245)
(X_364  0.24803923070430756)
(X_365  0.2598039209842682)
(X_366  0.2598039209842682)
(X_367  0.23627452552318573)
(X_368  0.30098041892051697)
(X_369  0.2852941155433655)
(X_370  0.2970588207244873)
(X_371  0.31666669249534607)
(X_372  0.14215686917304993)
(X_373  0.15392157435417175)
(X_374  0.1617647111415863)
(X_375  0.17352941632270813)
(X_376  0.2813725471496582)
(X_377  0.19705882668495178)
(X_378  0.22058825194835663)
(X_379  0.33235296607017517)
(X_380  0.23235295712947845)
(X_381  0.23235295712947845)
(X_382  0.23235295712947845)
(X_383  0.3401961028575897)
(X_384  0.3598039448261261)
(X_385  0.28333333134651184)
(X_386  0.3068627417087555)
(X_387  0.3186274468898773)
(X_388  0.4892157018184662)
(X_389  0.5049019455909729)
(X_390  0.40882351994514465)
(X_391  0.4049019515514374)
(X_392  0.1931372582912445)
(X_393  0.21274511516094208)
(X_394  0.23627452552318573)
(X_395  0.3558823764324188)
(X_396  0.36764708161354065)
(X_397  0.38333335518836975)
(X_398  0.31078431010246277)
(X_399  0.33039215207099915)
(X_400  0.37745097279548645)
(X_401  0.49313727021217346)
(X_402  0.41274508833885193)
(X_403  0.4323529303073883)
(X_404  0.4480392038822174)
(X_405  0.46764707565307617)
(X_406  0.5872549414634705)
(X_407  0.6029412150382996)
(X_408  0.5186274647712708)
(X_409  0.5029411911964417)
(X_410  0.48725491762161255)
(X_411  0.4911764860153198)
(X_412  0.5107843279838562)
(X_413  0.6225490570068359)
(X_414  0.6225490570068359)
(X_415  0.6147059202194214)
(X_416  0.522549033164978)
(X_417  0.5343137383460999)
(X_418  0.6264706254005432)
(X_419  0.6029412150382996)
(X_420  0.4362744987010956)
(X_421  0.5362744927406311)
(X_422  0.5441176295280457)
(X_423  0.551960825920105)
(X_424  0.5598039627075195)
(X_425  0.5598039627075195)
(X_426  0.551960825920105)
(X_427  0.5441176295280457)
(X_428  0.4892157018184662)
(X_429  0.4892157018184662)
(X_430  0.4892157018184662)
(X_431  0.3813725411891937)
(X_432  0.4696078598499298)
(X_433  0.46176472306251526)
(X_434  0.46176472306251526)
(X_435  0.3656862676143646)
(X_436  0.36176469922065735)
(X_437  0.3382352888584137)
(X_438  0.31470587849617004)
(X_439  0.31470587849617004)
(X_440  0.32647058367729187)
(X_441  0.3225490152835846)
(X_442  0.29509803652763367)
(X_443  0.27156862616539)
(X_444  0.27941176295280457)
(X_445  0.3911764919757843)
(X_446  0.38333335518836975)
(X_447  0.3598039448261261)
(X_448  0.32647058367729187)
(X_449  0.4107843339443207)
(X_450  0.3950980603694916)
(X_451  0.39901962876319885)
(X_452  0.4068627655506134)
(X_453  0.29509803652763367)
(X_454  0.3558823764324188)
(X_455  0.31666669249534607)
(X_456  0.2970588207244873)
(X_457  0.20490197837352753)
(X_458  0.21666668355464935)
(X_459  0.2245098203420639)
(X_460  0.33235296607017517)
(X_461  0.33627453446388245)
(X_462  0.33235296607017517)
(X_463  0.33235296607017517)
(X_464  0.33235296607017517)
(X_465  0.33627453446388245)
(X_466  0.240196093916893)
(X_467  0.24803923070430756)
(X_468  0.2558823525905609)
(X_469  0.2598039209842682)
(X_470  0.26764705777168274)
(X_471  0.3715686500072479)
(X_472  0.33235296607017517)
(X_473  0.3245098292827606)
(X_474  0.2088235467672348)
(X_475  0.29313725233078003)
(X_476  0.2245098203420639)
(X_477  0.3088235557079315)
(X_478  0.18921568989753723)
(X_479  0.18529412150382996)
(X_480  0.18921568989753723)
(X_481  0.18529412150382996)
(X_482  0.16568627953529358)
(X_483  0.15000000596046448)
(X_484  0.15784314274787903)
(X_485  0.15784314274787903)
(X_486  0.15784314274787903)
(X_487  0.15392157435417175)
(X_488  0.25)
(X_489  0.24607843160629272)
(X_490  0.24215686321258545)
(X_491  0.23823529481887817)
(X_492  0.2029411792755127)
(X_493  0.20686274766921997)
(X_494  0.10686275362968445)
(X_495  0.10686275362968445)
(X_496  0.11078432202339172)
(X_497  0.21470588445663452)
(X_498  0.114705890417099)
(X_499  0.21470588445663452)
(X_500  0.24215686321258545)
(X_501  0.1460784375667572)
(X_502  0.15000000596046448)
(X_503  0.15000000596046448)
(X_504  0.1303921639919281)
(X_505  0.22254902124404907)
(X_506  0.10686275362968445)
(X_507  0.19509804248809814)
(X_508  0.19117647409439087)
(X_509  0.09509804844856262)
(X_510  0.19901961088180542)
(X_511  0.20686274766921997)
(X_512  0.2186274528503418)
(X_513  0.21470588445663452)
(X_514  0.10686275362968445)
(X_515  0.19509804248809814)
(X_516  0.1872549057006836)
(X_517  0.07941177487373352)
(X_518  0.17549020051956177)
(X_519  0.17549020051956177)
(X_520  0.1872549057006836)
(X_521  0.1872549057006836)
(X_522  0.1872549057006836)
(X_523  0.0833333432674408)
(X_524  0.07941177487373352)
(X_525  0.07549020648002625)
(X_526  0.07549020648002625)
(X_527  0.07156863063573837)
(X_528  0.05588235333561897)
(X_529  0.0676470622420311)
(X_530  0.07941177487373352)
(X_531  0.09509804844856262)
(X_532  0.07549020648002625)
(X_533  0.17549020051956177)
(X_534  0.07156863063573837)
(X_535  0.06372549384832382)
(X_536  0.0519607849419117)
(X_537  0.05588235333561897)
(X_538  0.17549020051956177)
(X_539  0.19117647409439087)
(X_540  0.07549020648002625)
(X_541  0.1715686321258545)
(X_542  0.16372549533843994)
(X_543  0.1558823585510254)
(X_544  0.0519607849419117)
(X_545  0.0519607849419117)
(X_546  0.05588235333561897)
(X_547  0.15980392694473267)
(X_548  0.16372549533843994)
(X_549  0.15980392694473267)
(X_550  0.15980392694473267)
(X_551  0.1558823585510254)
(X_552  0.0519607849419117)
(X_553  0.04803921654820442)
(X_554  0.04411764815449715)
(X_555  0.04411764815449715)
(X_556  0.03235294297337532)
(X_557  0.036274511367082596)
(X_558  0.04411764815449715)
(X_559  0.14803922176361084)
(X_560  0.020588237792253494)
(X_561  0.036274511367082596)
(X_562  0.04803921654820442)
(X_563  0.04411764815449715)
(X_564  0.03235294297337532)
(X_565  0.03235294297337532)
(X_566  0.04411764815449715)
(X_567  0.05980392172932625)
(X_568  0.13235294818878174)
(X_569  0.028431374579668045)
(X_570  0.02450980618596077)
(X_571  0.020588237792253494)
(X_572  0.12058823555707932)
(X_573  0.02450980618596077)
(X_574  0.03235294297337532)
(X_575  0.036274511367082596)
(X_576  0.12450980395078659)
(X_577  0.12450980395078659)
(X_578  0.12450980395078659)
(X_579  0.12450980395078659)
(X_580  0.02450980618596077)
(X_581  0.020588237792253494)
(X_582  0.020588237792253494)
(X_583  0.12058823555707932)
(X_584  0.04019607976078987)
(X_585  0.036274511367082596)
(X_586  0.028431374579668045)
(X_587  0.11666666716337204)
(X_588  0.004901961423456669)
(X_589  0.12058823555707932)
(X_590  0.036274511367082596)
(X_591  0.136274516582489)
(X_592  0.028431374579668045)
(X_593  0.02450980618596077)
(X_594  0.02450980618596077)
(X_595  0.03235294297337532)
(X_596  0.02450980618596077)
(X_597  0.02450980618596077)
(X_598  0.12058823555707932)
(X_599  0.11666666716337204)
(X_600  0.11274509876966476)
(X_601  0.11274509876966476)
(X_602  0.11274509876966476)
(X_603  0.11666666716337204)
(X_604  0.13235294818878174)
(X_605  0.13235294818878174)
(X_606  0.13235294818878174)
(X_607  0.13235294818878174)
(X_608  0.136274516582489)
(X_609  0.136274516582489)
(X_610  0.036274511367082596)
(X_611  0.036274511367082596)
(X_612  0.036274511367082596)
(X_613  0.028431374579668045)
(X_614  0.01666666939854622)
(X_615  0.10882353037595749)
(X_616  0.11666666716337204)
(X_617  0.12450980395078659)
(X_618  0.13235294818878174)
(X_619  0.13235294818878174)
(X_620  0.028431374579668045)
(X_621  0.02450980618596077)
(X_622  0.12450980395078659)
(X_623  0.12450980395078659)
(X_624  0.12450980395078659)
(X_625  0.12450980395078659)
(X_626  0.12450980395078659)
(X_627  0.12450980395078659)
(X_628  0.12058823555707932)
(X_629  0.11666666716337204)
(X_630  0.11274509876966476)
(X_631  0.11274509876966476)
(X_632  0.008823529817163944)
(X_633  0.008823529817163944)
(X_634  0.10882353037595749)
(X_635  0.10882353037595749)
(X_636  0.10882353037595749)
(X_637  0.10882353037595749)
(X_638  0.10882353037595749)
(X_639  0.10882353037595749)
(X_640  0.12058823555707932)
(X_641  0.11666666716337204)
(X_642  0.01666666939854622)
(X_643  0.11274509876966476)
(X_644  0.12450980395078659)
(X_645  0.12058823555707932)
(X_646  0.01666666939854622)
(X_647  0.01666666939854622)
(X_648  0.01666666939854622)
(X_649  0.01666666939854622)
(X_650  0.01666666939854622)
(X_651  0.01666666939854622)
(X_652  0.0009803927969187498)
(X_653  0.004901961423456669)
(X_654  0.008823529817163944)
(X_655  0.01666666939854622)
(X_656  0.11666666716337204)
(X_657  0.11274509876966476)
(X_658  0.10882353037595749)
(X_659  0.10490196198225021)
(X_660  0.12058823555707932)
(X_661  0.11666666716337204)
(X_662  0.01666666939854622)
(X_663  0.012745101936161518)
(X_664  0.012745101936161518)
(X_665  0.008823529817163944)
(X_666  0.008823529817163944)
(X_667  0.004901961423456669)
(X_668  0.008823529817163944)
(X_669  0.012745101936161518)
(X_670  0.020588237792253494)
(X_671  0.12450980395078659)
(X_672  0.0009803927969187498)
(X_673  0.10098039358854294)
(X_674  0.0009803927969187498)
(X_675  0.10490196198225021)
(X_676  0.10490196198225021)
(X_677  0.10882353037595749)
(X_678  0.10882353037595749)
(X_679  0.11274509876966476)
(X_680  0.10490196198225021)
(X_681  0.10882353037595749)
(X_682  0.11274509876966476)
(X_683  0.11274509876966476)
(X_684  0.11274509876966476)
(X_685  0.11274509876966476)
(X_686  0.10882353037595749)
(X_687  0.10490196198225021)
(X_688  0.10882353037595749)
(X_689  0.10882353037595749)
(X_690  0.10882353037595749)
(X_691  0.10490196198225021)
(X_692  0.10490196198225021)
(X_693  0.10098039358854294)
(X_694  0.10098039358854294)
(X_695  0.10098039358854294)
(X_696  0.004901961423456669)
(X_697  0.004901961423456669)
(X_698  0.004901961423456669)
(X_699  0.10882353037595749)
(X_700  -0.0029411755967885256)
(X_701  0.09705882519483566)
(X_702  0.0009803927969187498)
(X_703  0.10098039358854294)
(X_704  0.10490196198225021)
(X_705  0.10490196198225021)
(X_706  0.004901961423456669)
(X_707  0.008823529817163944)
(X_708  0.004901961423456669)
(X_709  0.004901961423456669)
(X_710  0.008823529817163944)
(X_711  0.008823529817163944)
(X_712  0.008823529817163944)
(X_713  0.008823529817163944)
(X_714  0.10490196198225021)
(X_715  0.10490196198225021)
(X_716  0.008823529817163944)
(X_717  0.008823529817163944)
(X_718  0.004901961423456669)
(X_719  0.004901961423456669)
(X_720  0.004901961423456669)
(X_721  0.0009803927969187498)
(X_722  0.0009803927969187498)
(X_723  0.0009803927969187498)
(X_724  0.0009803927969187498)
(X_725  0.0009803927969187498)
(X_726  0.004901961423456669)
(X_727  0.10490196198225021)
(X_728  -0.006862743757665157)
(X_729  0.09313725680112839)
(X_730  -0.0029411755967885256)
(X_731  0.09705882519483566)
(X_732  0.09705882519483566)
(X_733  0.10098039358854294)
(X_734  0.10098039358854294)
(X_735  0.10098039358854294)
(X_736  -0.0029411755967885256)
(X_737  0.0009803927969187498)
(X_738  0.10098039358854294)
(X_739  0.004901961423456669)
(X_740  0.004901961423456669)
(X_741  0.0009803927969187498)
(X_742  0.0009803927969187498)
(X_743  -0.0029411755967885256)
(X_744  0.008823529817163944)
(X_745  0.004901961423456669)
(X_746  0.004901961423456669)
(X_747  0.004901961423456669)
(X_748  0.0009803927969187498)
(X_749  0.10098039358854294)
(X_750  0.10098039358854294)
(X_751  0.10098039358854294)
(X_752  0.09705882519483566)
(X_753  0.09705882519483566)
(X_754  0.10098039358854294)
(X_755  0.10098039358854294)
(X_756  -0.006862743757665157)
(X_757  -0.006862743757665157)
(X_758  -0.006862743757665157)
(X_759  -0.006862743757665157)
(X_760  0.09313725680112839)
(X_761  0.09313725680112839)
(X_762  0.09313725680112839)
(X_763  0.09313725680112839)
(X_764  0.09313725680112839)
(X_765  0.09705882519483566)
(X_766  0.09705882519483566)
(X_767  0.10098039358854294)
(X_768  0.10098039358854294)
(X_769  0.09705882519483566)
(X_770  0.09705882519483566)
(X_771  -0.006862743757665157)
(X_772  0.10490196198225021)
(X_773  0.004901961423456669)
(X_774  0.004901961423456669)
(X_775  0.0009803927969187498)
(X_776  0.0009803927969187498)
(X_777  0.0009803927969187498)
(X_778  -0.0029411755967885256)
(X_779  -0.0029411755967885256)
(X_780  0.09705882519483566)
(X_781  -0.0029411755967885256)
(X_782  -0.0029411755967885256)
(X_783  -0.0029411755967885256)
(Y_0 19.097488403320312)
(Y_1 24.296266555786133)
(Y_2 -3.3591604232788086)
(Y_3 -41.840152740478516))