((X_0  1.0499999523162842)
(X_1  0.949999988079071)
(X_2  0.9460784196853638)
(X_3  1.0421568155288696)
(X_4  1.0460784435272217)
(X_5  1.0499999523162842)
(X_6  1.0499999523162842)
(X_7  0.949999988079071)
(X_8  1.0382353067398071)
(X_9  1.0421568155288696)
(X_10  1.0499999523162842)
(X_11  0.949999988079071)
(X_12  0.9460784196853638)
(X_13  0.9460784196853638)
(X_14  1.0499999523162842)
(X_15  1.0499999523162842)
(X_16  0.949999988079071)
(X_17  0.9460784196853638)
(X_18  0.9421568512916565)
(X_19  0.9421568512916565)
(X_20  1.0499999523162842)
(X_21  1.0499999523162842)
(X_22  1.0460784435272217)
(X_23  0.9421568512916565)
(X_24  1.0382353067398071)
(X_25  1.0421568155288696)
(X_26  1.0499999523162842)
(X_27  1.0499999523162842)
(X_28  1.0499999523162842)
(X_29  0.949999988079071)
(X_30  0.949999988079071)
(X_31  0.949999988079071)
(X_32  0.949999988079071)
(X_33  0.949999988079071)
(X_34  1.0499999523162842)
(X_35  1.0499999523162842)
(X_36  0.949999988079071)
(X_37  0.949999988079071)
(X_38  0.949999988079071)
(X_39  0.949999988079071)
(X_40  0.9382352828979492)
(X_41  0.9303921461105347)
(X_42  0.9303921461105347)
(X_43  0.9343137145042419)
(X_44  1.0460784435272217)
(X_45  1.0460784435272217)
(X_46  1.0421568155288696)
(X_47  0.9460784196853638)
(X_48  1.0499999523162842)
(X_49  0.949999988079071)
(X_50  0.949999988079071)
(X_51  0.949999988079071)
(X_52  1.0499999523162842)
(X_53  1.0499999523162842)
(X_54  0.949999988079071)
(X_55  1.0499999523162842)
(X_56  1.0460784435272217)
(X_57  0.949999988079071)
(X_58  0.949999988079071)
(X_59  0.949999988079071)
(X_60  0.949999988079071)
(X_61  0.9382352828979492)
(X_62  0.9264705777168274)
(X_63  0.9186274409294128)
(X_64  0.9303921461105347)
(X_65  0.9421568512916565)
(X_66  0.949999988079071)
(X_67  0.949999988079071)
(X_68  0.949999988079071)
(X_69  0.949999988079071)
(X_70  0.949999988079071)
(X_71  0.949999988079071)
(X_72  0.949999988079071)
(X_73  0.949999988079071)
(X_74  0.949999988079071)
(X_75  0.949999988079071)
(X_76  0.949999988079071)
(X_77  1.0460784435272217)
(X_78  1.0421568155288696)
(X_79  1.0382353067398071)
(X_80  1.0460784435272217)
(X_81  0.9421568512916565)
(X_82  0.9382352828979492)
(X_83  0.9343137145042419)
(X_84  1.022549033164978)
(X_85  1.0303921699523926)
(X_86  1.0421568155288696)
(X_87  1.0499999523162842)
(X_88  0.949999988079071)
(X_89  0.949999988079071)
(X_90  0.949999988079071)
(X_91  0.949999988079071)
(X_92  1.0421568155288696)
(X_93  0.9460784196853638)
(X_94  0.949999988079071)
(X_95  0.9460784196853638)
(X_96  1.0382353067398071)
(X_97  1.034313678741455)
(X_98  1.0382353067398071)
(X_99  1.0460784435272217)
(X_100  1.022549033164978)
(X_101  1.0303921699523926)
(X_102  1.0382353067398071)
(X_103  1.0421568155288696)
(X_104  1.0460784435272217)
(X_105  0.949999988079071)
(X_106  0.949999988079071)
(X_107  0.949999988079071)
(X_108  0.9421568512916565)
(X_109  0.9460784196853638)
(X_110  0.9460784196853638)
(X_111  0.949999988079071)
(X_112  0.25196078419685364)
(X_113  0.3794117867946625)
(X_114  0.43039217591285706)
(X_115  0.5009803771972656)
(X_116  0.4833333492279053)
(X_117  0.5617647171020508)
(X_118  0.6245098114013672)
(X_119  0.6558823585510254)
(X_120  0.8617647290229797)
(X_121  0.7813725471496582)
(X_122  0.8088235259056091)
(X_123  0.8362745046615601)
(X_124  0.9637255072593689)
(X_125  0.8911764621734619)
(X_126  0.9225490093231201)
(X_127  0.9382352828979492)
(X_128  1.0499999523162842)
(X_129  1.0499999523162842)
(X_130  1.0499999523162842)
(X_131  1.0499999523162842)
(X_132  1.0499999523162842)
(X_133  1.0460784435272217)
(X_134  1.0499999523162842)
(X_135  1.0499999523162842)
(X_136  1.034313678741455)
(X_137  1.0382353067398071)
(X_138  1.0499999523162842)
(X_139  1.0499999523162842)
(X_140  0.09509804844856262)
(X_141  0.1872549057006836)
(X_142  0.17549020051956177)
(X_143  0.16764706373214722)
(X_144  0.16372549533843994)
(X_145  0.06372549384832382)
(X_146  0.07156863063573837)
(X_147  0.17549020051956177)
(X_148  0.17549020051956177)
(X_149  0.2029411792755127)
(X_150  0.24215686321258545)
(X_151  0.1931372582912445)
(X_152  0.3401961028575897)
(X_153  0.387254923582077)
(X_154  0.43039217591285706)
(X_155  0.457843154668808)
(X_156  0.5166666507720947)
(X_157  0.5558823943138123)
(X_158  0.6147059202194214)
(X_159  0.6735294461250305)
(X_160  0.7323529720306396)
(X_161  0.6911764740943909)
(X_162  0.75)
(X_163  0.8892157077789307)
(X_164  0.9441176652908325)
(X_165  0.8598039150238037)
(X_166  0.8833333253860474)
(X_167  1.006862759590149)
(X_168  0.136274516582489)
(X_169  0.1401960849761963)
(X_170  0.1401960849761963)
(X_171  0.14411765336990356)
(X_172  0.15196079015731812)
(X_173  0.1558823585510254)
(X_174  0.06372549384832382)
(X_175  0.0676470622420311)
(X_176  0.036274511367082596)
(X_177  0.14411765336990356)
(X_178  0.15196079015731812)
(X_179  0.0519607849419117)
(X_180  0.04803921654820442)
(X_181  0.04411764815449715)
(X_182  0.0519607849419117)
(X_183  0.05980392172932625)
(X_184  0.15196079015731812)
(X_185  0.16764706373214722)
(X_186  0.1872549057006836)
(X_187  0.1872549057006836)
(X_188  0.18333333730697632)
(X_189  0.18333333730697632)
(X_190  0.19901961088180542)
(X_191  0.2186274528503418)
(X_192  0.2617647051811218)
(X_193  0.1774509847164154)
(X_194  0.20098040997982025)
(X_195  0.3245098292827606)
(X_196  0.04411764815449715)
(X_197  0.04803921654820442)
(X_198  0.05588235333561897)
(X_199  0.06372549384832382)
(X_200  0.06372549384832382)
(X_201  0.05980392172932625)
(X_202  0.05588235333561897)
(X_203  0.0519607849419117)
(X_204  0.05588235333561897)
(X_205  0.05980392172932625)
(X_206  0.06372549384832382)
(X_207  0.06372549384832382)
(X_208  0.05588235333561897)
(X_209  0.0519607849419117)
(X_210  0.05588235333561897)
(X_211  0.05980392172932625)
(X_212  0.14411765336990356)
(X_213  0.15980392694473267)
(X_214  0.07156863063573837)
(X_215  0.16764706373214722)
(X_216  0.0519607849419117)
(X_217  0.04411764815449715)
(X_218  0.15980392694473267)
(X_219  0.17549020051956177)
(X_220  0.15980392694473267)
(X_221  0.15980392694473267)
(X_222  0.16372549533843994)
(X_223  0.16372549533843994)
(X_224  0.04019607976078987)
(X_225  0.036274511367082596)
(X_226  0.13235294818878174)
(X_227  0.13235294818878174)
(X_228  0.136274516582489)
(X_229  0.04019607976078987)
(X_230  0.04803921654820442)
(X_231  0.05588235333561897)
(X_232  0.03235294297337532)
(X_233  0.036274511367082596)
(X_234  0.04411764815449715)
(X_235  0.0519607849419117)
(X_236  0.05588235333561897)
(X_237  0.05588235333561897)
(X_238  0.0519607849419117)
(X_239  0.15196079015731812)
(X_240  0.08725491166114807)
(X_241  0.14803922176361084)
(X_242  0.12843137979507446)
(X_243  0.136274516582489)
(X_244  0.1401960849761963)
(X_245  0.12843137979507446)
(X_246  0.13235294818878174)
(X_247  0.15196079015731812)
(X_248  0.05980392172932625)
(X_249  0.05588235333561897)
(X_250  0.05588235333561897)
(X_251  0.1558823585510254)
(X_252  0.0519607849419117)
(X_253  0.04803921654820442)
(X_254  0.04411764815449715)
(X_255  0.04411764815449715)
(X_256  0.14411765336990356)
(X_257  0.14411765336990356)
(X_258  0.14803922176361084)
(X_259  0.15196079015731812)
(X_260  0.15196079015731812)
(X_261  0.0519607849419117)
(X_262  0.0519607849419117)
(X_263  0.0519607849419117)
(X_264  0.04411764815449715)
(X_265  0.04019607976078987)
(X_266  0.136274516582489)
(X_267  0.13235294818878174)
(X_268  0.136274516582489)
(X_269  0.1401960849761963)
(X_270  0.1558823585510254)
(X_271  0.0833333432674408)
(X_272  0.08725491166114807)
(X_273  0.07549020648002625)
(X_274  0.05980392172932625)
(X_275  0.1558823585510254)
(X_276  0.12058823555707932)
(X_277  0.14803922176361084)
(X_278  0.0519607849419117)
(X_279  0.036274511367082596)
(X_280  0.13235294818878174)
(X_281  0.13235294818878174)
(X_282  0.136274516582489)
(X_283  0.036274511367082596)
(X_284  0.036274511367082596)
(X_285  0.1401960849761963)
(X_286  0.1401960849761963)
(X_287  0.1401960849761963)
(X_288  0.02450980618596077)
(X_289  0.02450980618596077)
(X_290  0.02450980618596077)
(X_291  0.028431374579668045)
(X_292  0.036274511367082596)
(X_293  0.04411764815449715)
(X_294  0.04803921654820442)
(X_295  0.0519607849419117)
(X_296  0.1401960849761963)
(X_297  0.0519607849419117)
(X_298  0.0519607849419117)
(X_299  0.04019607976078987)
(X_300  0.03235294297337532)
(X_301  0.036274511367082596)
(X_302  0.136274516582489)
(X_303  0.13235294818878174)
(X_304  0.0990196168422699)
(X_305  0.07549020648002625)
(X_306  0.04411764815449715)
(X_307  0.13235294818878174)
(X_308  0.11666666716337204)
(X_309  0.12058823555707932)
(X_310  0.12843137979507446)
(X_311  0.136274516582489)
(X_312  0.04019607976078987)
(X_313  0.04411764815449715)
(X_314  0.04803921654820442)
(X_315  0.0519607849419117)
(X_316  0.12058823555707932)
(X_317  0.12058823555707932)
(X_318  0.12058823555707932)
(X_319  0.12450980395078659)
(X_320  0.03235294297337532)
(X_321  0.04411764815449715)
(X_322  0.05588235333561897)
(X_323  0.06372549384832382)
(X_324  0.13235294818878174)
(X_325  0.0519607849419117)
(X_326  0.0519607849419117)
(X_327  0.13235294818878174)
(X_328  0.13235294818878174)
(X_329  0.15980392694473267)
(X_330  0.17941176891326904)
(X_331  0.17941176891326904)
(X_332  0.04803921654820442)
(X_333  0.0009803927969187498)
(X_334  0.008823529817163944)
(X_335  0.0676470622420311)
(X_336  0.136274516582489)
(X_337  0.136274516582489)
(X_338  0.136274516582489)
(X_339  0.1401960849761963)
(X_340  0.14411765336990356)
(X_341  0.0519607849419117)
(X_342  0.05588235333561897)
(X_343  0.05588235333561897)
(X_344  0.1558823585510254)
(X_345  0.14803922176361084)
(X_346  0.04019607976078987)
(X_347  0.03235294297337532)
(X_348  0.028431374579668045)
(X_349  0.028431374579668045)
(X_350  0.028431374579668045)
(X_351  0.13235294818878174)
(X_352  0.136274516582489)
(X_353  0.15196079015731812)
(X_354  0.15196079015731812)
(X_355  0.036274511367082596)
(X_356  0.12843137979507446)
(X_357  0.13235294818878174)
(X_358  0.12843137979507446)
(X_359  0.12058823555707932)
(X_360  0.03235294297337532)
(X_361  0.07549020648002625)
(X_362  0.15392157435417175)
(X_363  0.21274511516094208)
(X_364  0.036274511367082596)
(X_365  0.03235294297337532)
(X_366  0.12843137979507446)
(X_367  0.12450980395078659)
(X_368  0.02450980618596077)
(X_369  0.028431374579668045)
(X_370  0.03235294297337532)
(X_371  0.036274511367082596)
(X_372  0.036274511367082596)
(X_373  0.13235294818878174)
(X_374  0.13235294818878174)
(X_375  0.13235294818878174)
(X_376  0.136274516582489)
(X_377  0.036274511367082596)
(X_378  0.04019607976078987)
(X_379  0.04411764815449715)
(X_380  0.17549020051956177)
(X_381  0.14411765336990356)
(X_382  0.12843137979507446)
(X_383  0.14411765336990356)
(X_384  0.07549020648002625)
(X_385  0.11078432202339172)
(X_386  0.15000000596046448)
(X_387  0.18529412150382996)
(X_388  0.2245098203420639)
(X_389  0.4107843339443207)
(X_390  0.4225490391254425)
(X_391  0.33627453446388245)
(X_392  0.12843137979507446)
(X_393  0.12058823555707932)
(X_394  0.11274509876966476)
(X_395  0.11274509876966476)
(X_396  0.11666666716337204)
(X_397  0.13235294818878174)
(X_398  0.14803922176361084)
(X_399  0.15980392694473267)
(X_400  0.05980392172932625)
(X_401  0.0676470622420311)
(X_402  0.17941176891326904)
(X_403  0.19509804248809814)
(X_404  0.21078431606292725)
(X_405  0.12254902720451355)
(X_406  0.13431373238563538)
(X_407  0.13823530077934265)
(X_408  0.23039215803146362)
(X_409  0.19509804248809814)
(X_410  0.2186274528503418)
(X_411  0.3284313976764679)
(X_412  0.43039217591285706)
(X_413  0.4892157018184662)
(X_414  0.5480391979217529)
(X_415  0.6107843518257141)
(X_416  0.5382353067398071)
(X_417  0.5382353067398071)
(X_418  0.4754902124404907)
(X_419  0.3813725411891937)
(X_420  0.03235294297337532)
(X_421  0.028431374579668045)
(X_422  0.02450980618596077)
(X_423  0.028431374579668045)
(X_424  0.04803921654820442)
(X_425  0.07549020648002625)
(X_426  0.10294118523597717)
(X_427  0.22254902124404907)
(X_428  0.2696078419685364)
(X_429  0.2774509787559509)
(X_430  0.18921568989753723)
(X_431  0.20490197837352753)
(X_432  0.21666668355464935)
(X_433  0.22058825194835663)
(X_434  0.2245098203420639)
(X_435  0.2245098203420639)
(X_436  0.344117671251297)
(X_437  0.3245098292827606)
(X_438  0.40294119715690613)
(X_439  0.5558823943138123)
(X_440  0.6225490570068359)
(X_441  0.5637255311012268)
(X_442  0.4009803831577301)
(X_443  0.39313724637031555)
(X_444  0.4009803831577301)
(X_445  0.3186274468898773)
(X_446  0.31078431010246277)
(X_447  0.49705883860588074)
(X_448  0.10882353037595749)
(X_449  0.03235294297337532)
(X_450  0.05980392172932625)
(X_451  0.09117648005485535)
(X_452  0.22647058963775635)
(X_453  0.25784313678741455)
(X_454  0.2617647051811218)
(X_455  0.2539215683937073)
(X_456  0.2617647051811218)
(X_457  0.2774509787559509)
(X_458  0.2774509787559509)
(X_459  0.25)
(X_460  0.13823530077934265)
(X_461  0.16568627953529358)
(X_462  0.20490197837352753)
(X_463  0.22843138873577118)
(X_464  0.3578431308269501)
(X_465  0.3735294044017792)
(X_466  0.4049019515514374)
(X_467  0.5088235139846802)
(X_468  0.46176472306251526)
(X_469  0.3794117867946625)
(X_470  0.3284313976764679)
(X_471  0.3127451241016388)
(X_472  0.33235296607017517)
(X_473  0.24607843160629272)
(X_474  0.30490198731422424)
(X_475  0.4696078598499298)
(X_476  0.06372549384832382)
(X_477  0.0990196168422699)
(X_478  0.23823529481887817)
(X_479  0.25784313678741455)
(X_480  0.15000000596046448)
(X_481  0.13823530077934265)
(X_482  0.23039215803146362)
(X_483  0.22647058963775635)
(X_484  0.20686274766921997)
(X_485  0.22254902124404907)
(X_486  0.1303921639919281)
(X_487  0.14215686917304993)
(X_488  0.18529412150382996)
(X_489  0.2558823525905609)
(X_490  0.31470587849617004)
(X_491  0.34215685725212097)
(X_492  0.3578431308269501)
(X_493  0.3696078360080719)
(X_494  0.4696078598499298)
(X_495  0.4264706075191498)
(X_496  0.3598039448261261)
(X_497  0.28921568393707275)
(X_498  0.23823529481887817)
(X_499  0.11078432202339172)
(X_500  0.27352941036224365)
(X_501  0.08725491166114807)
(X_502  0.13431373238563538)
(X_503  0.2754901945590973)
(X_504  0.24607843160629272)
(X_505  0.15784314274787903)
(X_506  0.16568627953529358)
(X_507  0.15392157435417175)
(X_508  0.13823530077934265)
(X_509  0.2539215683937073)
(X_510  0.30490198731422424)
(X_511  0.3558823764324188)
(X_512  0.2598039209842682)
(X_513  0.28333333134651184)
(X_514  0.31078431010246277)
(X_515  0.33039215207099915)
(X_516  0.34607842564582825)
(X_517  0.3499999940395355)
(X_518  0.3225490152835846)
(X_519  0.2872548997402191)
(X_520  0.2245098203420639)
(X_521  0.25196078419685364)
(X_522  0.2558823525905609)
(X_523  0.21666668355464935)
(X_524  0.18921568989753723)
(X_525  0.28921568393707275)
(X_526  0.18529412150382996)
(X_527  0.2656862735748291)
(X_528  0.1303921639919281)
(X_529  0.04803921654820442)
(X_530  0.07549020648002625)
(X_531  0.18921568989753723)
(X_532  0.2656862735748291)
(X_533  0.31666669249534607)
(X_534  0.3911764919757843)
(X_535  0.45000001788139343)
(X_536  0.3578431308269501)
(X_537  0.32647058367729187)
(X_538  0.39901962876319885)
(X_539  0.3950980603694916)
(X_540  0.31078431010246277)
(X_541  0.3499999940395355)
(X_542  0.4892157018184662)
(X_543  0.4049019515514374)
(X_544  0.4009803831577301)
(X_545  0.37745097279548645)
(X_546  0.3225490152835846)
(X_547  0.2754901945590973)
(X_548  0.29313725233078003)
(X_549  0.22843138873577118)
(X_550  0.21274511516094208)
(X_551  0.25)
(X_552  0.2186274528503418)
(X_553  0.23823529481887817)
(X_554  0.13431373238563538)
(X_555  0.0990196168422699)
(X_556  0.2029411792755127)
(X_557  0.028431374579668045)
(X_558  0.14803922176361084)
(X_559  0.12647059559822083)
(X_560  0.4696078598499298)
(X_561  0.3068627417087555)
(X_562  0.2558823525905609)
(X_563  0.24411766231060028)
(X_564  0.2558823525905609)
(X_565  0.2754901945590973)
(X_566  0.3029411733150482)
(X_567  0.33039215207099915)
(X_568  0.2598039209842682)
(X_569  0.3794117867946625)
(X_570  0.3754902184009552)
(X_571  0.24411766231060028)
(X_572  0.21666668355464935)
(X_573  0.21666668355464935)
(X_574  0.22843138873577118)
(X_575  0.22843138873577118)
(X_576  0.15000000596046448)
(X_577  0.18137255311012268)
(X_578  0.25784313678741455)
(X_579  0.19117647409439087)
(X_580  0.15980392694473267)
(X_581  0.16764706373214722)
(X_582  0.15196079015731812)
(X_583  0.10882353037595749)
(X_584  0.16764706373214722)
(X_585  0.008823529817163944)
(X_586  0.020588237792253494)
(X_587  0.07156863063573837)
(X_588  0.41862747073173523)
(X_589  0.240196093916893)
(X_590  0.18137255311012268)
(X_591  0.1931372582912445)
(X_592  0.31666669249534607)
(X_593  0.30098041892051697)
(X_594  0.27352941036224365)
(X_595  0.2617647051811218)
(X_596  0.30098041892051697)
(X_597  0.32058826088905334)
(X_598  0.2088235467672348)
(X_599  0.1617647111415863)
(X_600  0.11078432202339172)
(X_601  0.0990196168422699)
(X_602  0.10294118523597717)
(X_603  0.10686275362968445)
(X_604  0.1558823585510254)
(X_605  0.17941176891326904)
(X_606  0.17941176891326904)
(X_607  0.15196079015731812)
(X_608  0.14803922176361084)
(X_609  0.16372549533843994)
(X_610  0.15980392694473267)
(X_611  0.13235294818878174)
(X_612  0.04803921654820442)
(X_613  0.008823529817163944)
(X_614  0.12058823555707932)
(X_615  0.0519607849419117)
(X_616  0.45000001788139343)
(X_617  0.2245098203420639)
(X_618  0.11078432202339172)
(X_619  0.09117648005485535)
(X_620  0.22647058963775635)
(X_621  0.2539215683937073)
(X_622  0.2813725471496582)
(X_623  0.3088235557079315)
(X_624  0.19901961088180542)
(X_625  0.1303921639919281)
(X_626  0.15392157435417175)
(X_627  0.1460784375667572)
(X_628  0.1303921639919281)
(X_629  0.12254902720451355)
(X_630  0.10686275362968445)
(X_631  0.09117648005485535)
(X_632  0.17549020051956177)
(X_633  0.07156863063573837)
(X_634  0.16372549533843994)
(X_635  0.15196079015731812)
(X_636  0.14411765336990356)
(X_637  0.136274516582489)
(X_638  0.12450980395078659)
(X_639  0.01666666939854622)
(X_640  0.04411764815449715)
(X_641  0.020588237792253494)
(X_642  0.136274516582489)
(X_643  0.04803921654820442)
(X_644  0.32058826088905334)
(X_645  0.1303921639919281)
(X_646  0.16764706373214722)
(X_647  0.1872549057006836)
(X_648  0.2186274528503418)
(X_649  0.21078431606292725)
(X_650  0.19509804248809814)
(X_651  0.19509804248809814)
(X_652  0.22647058963775635)
(X_653  0.2186274528503418)
(X_654  0.0990196168422699)
(X_655  0.07156863063573837)
(X_656  0.06372549384832382)
(X_657  0.07156863063573837)
(X_658  0.06372549384832382)
(X_659  0.04411764815449715)
(X_660  0.04803921654820442)
(X_661  0.12843137979507446)
(X_662  0.12058823555707932)
(X_663  0.136274516582489)
(X_664  0.04019607976078987)
(X_665  0.12843137979507446)
(X_666  0.13235294818878174)
(X_667  0.14411765336990356)
(X_668  0.13235294818878174)
(X_669  0.11274509876966476)
(X_670  0.12843137979507446)
(X_671  0.036274511367082596)
(X_672  0.19901961088180542)
(X_673  0.07156863063573837)
(X_674  0.04019607976078987)
(X_675  0.03235294297337532)
(X_676  0.04803921654820442)
(X_677  0.05980392172932625)
(X_678  0.16372549533843994)
(X_679  0.05588235333561897)
(X_680  0.05588235333561897)
(X_681  0.15196079015731812)
(X_682  0.04803921654820442)
(X_683  0.04411764815449715)
(X_684  0.04019607976078987)
(X_685  0.036274511367082596)
(X_686  0.03235294297337532)
(X_687  0.03235294297337532)
(X_688  0.12058823555707932)
(X_689  0.12450980395078659)
(X_690  0.028431374579668045)
(X_691  0.028431374579668045)
(X_692  0.02450980618596077)
(X_693  0.12058823555707932)
(X_694  0.12450980395078659)
(X_695  0.13235294818878174)
(X_696  0.12450980395078659)
(X_697  0.12450980395078659)
(X_698  0.12450980395078659)
(X_699  0.02450980618596077)
(X_700  0.16372549533843994)
(X_701  0.04019607976078987)
(X_702  0.11666666716337204)
(X_703  0.10882353037595749)
(X_704  0.020588237792253494)
(X_705  0.03235294297337532)
(X_706  0.13235294818878174)
(X_707  0.02450980618596077)
(X_708  0.12843137979507446)
(X_709  0.12843137979507446)
(X_710  0.02450980618596077)
(X_711  0.02450980618596077)
(X_712  0.020588237792253494)
(X_713  0.01666666939854622)
(X_714  0.01666666939854622)
(X_715  0.012745101936161518)
(X_716  0.012745101936161518)
(X_717  0.01666666939854622)
(X_718  0.020588237792253494)
(X_719  0.020588237792253494)
(X_720  0.012745101936161518)
(X_721  0.012745101936161518)
(X_722  0.11666666716337204)
(X_723  0.12058823555707932)
(X_724  0.11666666716337204)
(X_725  0.11666666716337204)
(X_726  0.11666666716337204)
(X_727  0.11666666716337204)
(X_728  0.12843137979507446)
(X_729  0.012745101936161518)
(X_730  0.09705882519483566)
(X_731  0.09313725680112839)
(X_732  0.10098039358854294)
(X_733  0.10882353037595749)
(X_734  0.10490196198225021)
(X_735  0.09705882519483566)
(X_736  0.008823529817163944)
(X_737  0.008823529817163944)
(X_738  0.008823529817163944)
(X_739  0.008823529817163944)
(X_740  0.004901961423456669)
(X_741  0.004901961423456669)
(X_742  0.004901961423456669)
(X_743  0.004901961423456669)
(X_744  0.004901961423456669)
(X_745  0.10882353037595749)
(X_746  0.11274509876966476)
(X_747  0.012745101936161518)
(X_748  0.004901961423456669)
(X_749  0.0009803927969187498)
(X_750  0.004901961423456669)
(X_751  0.11274509876966476)
(X_752  0.10882353037595749)
(X_753  0.10882353037595749)
(X_754  0.10882353037595749)
(X_755  0.10882353037595749)
(X_756  0.11666666716337204)
(X_757  0.10490196198225021)
(X_758  0.09705882519483566)
(X_759  0.09705882519483566)
(X_760  0.004901961423456669)
(X_761  0.004901961423456669)
(X_762  0.10098039358854294)
(X_763  0.09313725680112839)
(X_764  0.0009803927969187498)
(X_765  0.004901961423456669)
(X_766  0.004901961423456669)
(X_767  0.008823529817163944)
(X_768  0.008823529817163944)
(X_769  0.012745101936161518)
(X_770  0.012745101936161518)
(X_771  0.012745101936161518)
(X_772  0.004901961423456669)
(X_773  0.008823529817163944)
(X_774  0.012745101936161518)
(X_775  0.008823529817163944)
(X_776  0.10098039358854294)
(X_777  0.10098039358854294)
(X_778  0.0009803927969187498)
(X_779  0.008823529817163944)
(X_780  0.004901961423456669)
(X_781  0.004901961423456669)
(X_782  0.004901961423456669)
(X_783  0.004901961423456669)
(Y_0 -5.80229377746582)
(Y_1 5.691675662994385)
(Y_2 -4.338475227355957)
(Y_3 6.0148844718933105))