((X_0  0.8852941393852234)
(X_1  0.7892156839370728)
(X_2  0.7892156839370728)
(X_3  0.8774510025978088)
(X_4  0.7617647051811218)
(X_5  0.7539215683937073)
(X_6  0.8500000238418579)
(X_7  0.8539215922355652)
(X_8  0.8421568870544434)
(X_9  0.8500000238418579)
(X_10  0.865686297416687)
(X_11  0.8774510025978088)
(X_12  0.7892156839370728)
(X_13  0.7892156839370728)
(X_14  0.8892157077789307)
(X_15  0.7852941155433655)
(X_16  0.8127450942993164)
(X_17  0.820588231086731)
(X_18  0.8284313678741455)
(X_19  0.8401960730552673)
(X_20  0.8558823466300964)
(X_21  0.9676470756530762)
(X_22  0.979411780834198)
(X_23  0.8833333253860474)
(X_24  0.9754902124404907)
(X_25  0.9833333492279053)
(X_26  0.9990196228027344)
(X_27  1.0107842683792114)
(X_28  0.19901961088180542)
(X_29  0.10294118523597717)
(X_30  0.10294118523597717)
(X_31  0.19509804248809814)
(X_32  0.07941177487373352)
(X_33  0.07156863063573837)
(X_34  0.07156863063573837)
(X_35  0.17549020051956177)
(X_36  0.0676470622420311)
(X_37  0.1715686321258545)
(X_38  0.18333333730697632)
(X_39  0.19509804248809814)
(X_40  0.2029411792755127)
(X_41  0.2029411792755127)
(X_42  0.2029411792755127)
(X_43  0.19901961088180542)
(X_44  0.22254902124404907)
(X_45  0.22254902124404907)
(X_46  0.22647058963775635)
(X_47  0.13431373238563538)
(X_48  0.24215686321258545)
(X_49  0.24607843160629272)
(X_50  0.15392157435417175)
(X_51  0.15392157435417175)
(X_52  0.31666669249534607)
(X_53  0.3245098292827606)
(X_54  0.23627452552318573)
(X_55  0.3480392396450043)
(X_56  0.09705882519483566)
(X_57  0.0009803927969187498)
(X_58  0.004901961423456669)
(X_59  -0.0029411755967885256)
(X_60  -0.010784312151372433)
(X_61  -0.014705880545079708)
(X_62  -0.014705880545079708)
(X_63  -0.010784312151372433)
(X_64  0.08137255162000656)
(X_65  -0.014705880545079708)
(X_66  -0.006862743757665157)
(X_67  0.10098039358854294)
(X_68  0.10490196198225021)
(X_69  0.10490196198225021)
(X_70  0.10098039358854294)
(X_71  0.09705882519483566)
(X_72  0.012745101936161518)
(X_73  0.012745101936161518)
(X_74  0.012745101936161518)
(X_75  0.008823529817163944)
(X_76  0.008823529817163944)
(X_77  0.10882353037595749)
(X_78  0.10490196198225021)
(X_79  0.10490196198225021)
(X_80  0.07745098322629929)
(X_81  0.08529412001371384)
(X_82  -0.010784312151372433)
(X_83  0.09705882519483566)
(X_84  0.09705882519483566)
(X_85  0.004901961423456669)
(X_86  0.008823529817163944)
(X_87  0.004901961423456669)
(X_88  -0.0029411755967885256)
(X_89  -0.0029411755967885256)
(X_90  0.0009803927969187498)
(X_91  0.004901961423456669)
(X_92  0.09705882519483566)
(X_93  0.0009803927969187498)
(X_94  0.004901961423456669)
(X_95  0.008823529817163944)
(X_96  0.10882353037595749)
(X_97  0.10490196198225021)
(X_98  0.0009803927969187498)
(X_99  0.09705882519483566)
(X_100  0.10882353037595749)
(X_101  0.10490196198225021)
(X_102  0.10098039358854294)
(X_103  -0.0029411755967885256)
(X_104  -0.006862743757665157)
(X_105  -0.010784312151372433)
(X_106  -0.014705880545079708)
(X_107  -0.014705880545079708)
(X_108  0.0009803927969187498)
(X_109  0.004901961423456669)
(X_110  0.008823529817163944)
(X_111  0.012745101936161518)
(X_112  0.09705882519483566)
(X_113  0.10490196198225021)
(X_114  0.10882353037595749)
(X_115  0.008823529817163944)
(X_116  0.004901961423456669)
(X_117  0.004901961423456669)
(X_118  0.008823529817163944)
(X_119  0.01666666939854622)
(X_120  0.008823529817163944)
(X_121  0.008823529817163944)
(X_122  0.008823529817163944)
(X_123  0.008823529817163944)
(X_124  0.10882353037595749)
(X_125  0.10490196198225021)
(X_126  0.0009803927969187498)
(X_127  0.0009803927969187498)
(X_128  0.10490196198225021)
(X_129  0.10490196198225021)
(X_130  0.10098039358854294)
(X_131  0.10098039358854294)
(X_132  0.09705882519483566)
(X_133  0.09705882519483566)
(X_134  -0.006862743757665157)
(X_135  -0.006862743757665157)
(X_136  0.08921568840742111)
(X_137  0.08921568840742111)
(X_138  0.08921568840742111)
(X_139  0.08921568840742111)
(X_140  0.09313725680112839)
(X_141  0.10098039358854294)
(X_142  0.10490196198225021)
(X_143  0.10490196198225021)
(X_144  0.10098039358854294)
(X_145  0.10098039358854294)
(X_146  0.004901961423456669)
(X_147  0.11274509876966476)
(X_148  0.10490196198225021)
(X_149  0.10490196198225021)
(X_150  0.0009803927969187498)
(X_151  0.0009803927969187498)
(X_152  0.09705882519483566)
(X_153  0.09705882519483566)
(X_154  0.09705882519483566)
(X_155  0.09705882519483566)
(X_156  -0.0029411755967885256)
(X_157  0.10098039358854294)
(X_158  0.10098039358854294)
(X_159  0.10098039358854294)
(X_160  0.10098039358854294)
(X_161  0.0009803927969187498)
(X_162  0.0009803927969187498)
(X_163  0.10098039358854294)
(X_164  0.12058823555707932)
(X_165  0.11666666716337204)
(X_166  0.11666666716337204)
(X_167  0.11274509876966476)
(X_168  0.0009803927969187498)
(X_169  0.10490196198225021)
(X_170  0.008823529817163944)
(X_171  0.008823529817163944)
(X_172  0.004901961423456669)
(X_173  0.0009803927969187498)
(X_174  0.008823529817163944)
(X_175  0.012745101936161518)
(X_176  0.008823529817163944)
(X_177  0.004901961423456669)
(X_178  0.10490196198225021)
(X_179  0.10098039358854294)
(X_180  0.10098039358854294)
(X_181  0.10098039358854294)
(X_182  0.0009803927969187498)
(X_183  0.0009803927969187498)
(X_184  0.004901961423456669)
(X_185  0.10490196198225021)
(X_186  0.10490196198225021)
(X_187  0.10490196198225021)
(X_188  0.10490196198225021)
(X_189  0.004901961423456669)
(X_190  0.008823529817163944)
(X_191  0.10882353037595749)
(X_192  0.10490196198225021)
(X_193  0.10098039358854294)
(X_194  0.10098039358854294)
(X_195  0.09705882519483566)
(X_196  0.012745101936161518)
(X_197  0.11666666716337204)
(X_198  0.12450980395078659)
(X_199  0.020588237792253494)
(X_200  0.01666666939854622)
(X_201  0.012745101936161518)
(X_202  0.01666666939854622)
(X_203  0.02450980618596077)
(X_204  0.01666666939854622)
(X_205  0.01666666939854622)
(X_206  0.11274509876966476)
(X_207  0.10882353037595749)
(X_208  0.008823529817163944)
(X_209  0.012745101936161518)
(X_210  0.012745101936161518)
(X_211  0.01666666939854622)
(X_212  0.11666666716337204)
(X_213  0.11666666716337204)
(X_214  0.11666666716337204)
(X_215  0.11666666716337204)
(X_216  0.11274509876966476)
(X_217  0.012745101936161518)
(X_218  0.012745101936161518)
(X_219  0.012745101936161518)
(X_220  0.12450980395078659)
(X_221  0.020588237792253494)
(X_222  0.020588237792253494)
(X_223  0.11666666716337204)
(X_224  0.02450980618596077)
(X_225  0.02450980618596077)
(X_226  0.020588237792253494)
(X_227  0.12058823555707932)
(X_228  0.020588237792253494)
(X_229  0.02450980618596077)
(X_230  0.028431374579668045)
(X_231  0.03235294297337532)
(X_232  0.10490196198225021)
(X_233  0.11274509876966476)
(X_234  0.11666666716337204)
(X_235  0.11666666716337204)
(X_236  0.11274509876966476)
(X_237  0.008823529817163944)
(X_238  0.11274509876966476)
(X_239  0.12058823555707932)
(X_240  0.008823529817163944)
(X_241  0.11274509876966476)
(X_242  0.11274509876966476)
(X_243  0.11274509876966476)
(X_244  0.11666666716337204)
(X_245  0.11666666716337204)
(X_246  0.12058823555707932)
(X_247  0.12058823555707932)
(X_248  0.004901961423456669)
(X_249  0.008823529817163944)
(X_250  0.01666666939854622)
(X_251  0.12450980395078659)
(X_252  0.01666666939854622)
(X_253  0.01666666939854622)
(X_254  0.01666666939854622)
(X_255  0.11274509876966476)
(X_256  0.11666666716337204)
(X_257  0.12058823555707932)
(X_258  0.12450980395078659)
(X_259  0.12450980395078659)
(X_260  0.01666666939854622)
(X_261  0.02450980618596077)
(X_262  0.028431374579668045)
(X_263  0.12450980395078659)
(X_264  0.12058823555707932)
(X_265  0.12450980395078659)
(X_266  0.13235294818878174)
(X_267  0.1401960849761963)
(X_268  0.008823529817163944)
(X_269  0.10882353037595749)
(X_270  0.10882353037595749)
(X_271  0.11274509876966476)
(X_272  0.012745101936161518)
(X_273  0.11274509876966476)
(X_274  0.11274509876966476)
(X_275  0.11274509876966476)
(X_276  0.11274509876966476)
(X_277  0.01666666939854622)
(X_278  0.02450980618596077)
(X_279  0.028431374579668045)
(X_280  0.012745101936161518)
(X_281  0.012745101936161518)
(X_282  0.008823529817163944)
(X_283  0.008823529817163944)
(X_284  0.012745101936161518)
(X_285  0.012745101936161518)
(X_286  0.11666666716337204)
(X_287  0.12058823555707932)
(X_288  0.11666666716337204)
(X_289  0.020588237792253494)
(X_290  0.020588237792253494)
(X_291  0.01666666939854622)
(X_292  0.012745101936161518)
(X_293  0.01666666939854622)
(X_294  0.028431374579668045)
(X_295  0.036274511367082596)
(X_296  0.12843137979507446)
(X_297  0.028431374579668045)
(X_298  0.028431374579668045)
(X_299  0.02450980618596077)
(X_300  0.02450980618596077)
(X_301  0.12450980395078659)
(X_302  0.02450980618596077)
(X_303  0.02450980618596077)
(X_304  0.01666666939854622)
(X_305  0.020588237792253494)
(X_306  0.02450980618596077)
(X_307  0.02450980618596077)
(X_308  0.01666666939854622)
(X_309  0.11274509876966476)
(X_310  0.012745101936161518)
(X_311  0.012745101936161518)
(X_312  0.012745101936161518)
(X_313  0.01666666939854622)
(X_314  0.020588237792253494)
(X_315  0.02450980618596077)
(X_316  0.02450980618596077)
(X_317  0.02450980618596077)
(X_318  0.020588237792253494)
(X_319  0.012745101936161518)
(X_320  0.10490196198225021)
(X_321  0.10882353037595749)
(X_322  0.020588237792253494)
(X_323  0.028431374579668045)
(X_324  0.028431374579668045)
(X_325  0.028431374579668045)
(X_326  0.02450980618596077)
(X_327  0.02450980618596077)
(X_328  0.02450980618596077)
(X_329  0.12058823555707932)
(X_330  0.12058823555707932)
(X_331  0.12058823555707932)
(X_332  0.03235294297337532)
(X_333  0.03235294297337532)
(X_334  0.03235294297337532)
(X_335  0.03235294297337532)
(X_336  0.02450980618596077)
(X_337  0.12058823555707932)
(X_338  0.12058823555707932)
(X_339  0.12058823555707932)
(X_340  0.12058823555707932)
(X_341  0.12450980395078659)
(X_342  0.028431374579668045)
(X_343  0.03235294297337532)
(X_344  0.136274516582489)
(X_345  0.136274516582489)
(X_346  0.13235294818878174)
(X_347  0.12450980395078659)
(X_348  0.01666666939854622)
(X_349  0.11666666716337204)
(X_350  0.12450980395078659)
(X_351  0.13235294818878174)
(X_352  0.10882353037595749)
(X_353  0.10882353037595749)
(X_354  0.10882353037595749)
(X_355  0.008823529817163944)
(X_356  0.008823529817163944)
(X_357  0.008823529817163944)
(X_358  0.10882353037595749)
(X_359  0.10882353037595749)
(X_360  0.036274511367082596)
(X_361  0.036274511367082596)
(X_362  0.03235294297337532)
(X_363  0.028431374579668045)
(X_364  0.03235294297337532)
(X_365  0.028431374579668045)
(X_366  0.028431374579668045)
(X_367  0.12843137979507446)
(X_368  0.12843137979507446)
(X_369  0.03235294297337532)
(X_370  0.036274511367082596)
(X_371  0.1401960849761963)
(X_372  0.020588237792253494)
(X_373  0.028431374579668045)
(X_374  0.13235294818878174)
(X_375  0.13235294818878174)
(X_376  0.12450980395078659)
(X_377  0.02450980618596077)
(X_378  0.028431374579668045)
(X_379  0.13235294818878174)
(X_380  0.1401960849761963)
(X_381  0.1401960849761963)
(X_382  0.1401960849761963)
(X_383  0.04411764815449715)
(X_384  0.04411764815449715)
(X_385  0.04803921654820442)
(X_386  0.04803921654820442)
(X_387  0.04803921654820442)
(X_388  0.136274516582489)
(X_389  0.13235294818878174)
(X_390  0.02450980618596077)
(X_391  0.020588237792253494)
(X_392  0.03235294297337532)
(X_393  0.13235294818878174)
(X_394  0.13235294818878174)
(X_395  0.12843137979507446)
(X_396  0.13235294818878174)
(X_397  0.136274516582489)
(X_398  0.1401960849761963)
(X_399  0.1401960849761963)
(X_400  0.11666666716337204)
(X_401  0.13235294818878174)
(X_402  0.14803922176361084)
(X_403  0.15980392694473267)
(X_404  0.05980392172932625)
(X_405  0.06372549384832382)
(X_406  0.0676470622420311)
(X_407  0.07156863063573837)
(X_408  0.0990196168422699)
(X_409  0.0990196168422699)
(X_410  0.10294118523597717)
(X_411  0.20686274766921997)
(X_412  0.21078431606292725)
(X_413  0.2186274528503418)
(X_414  0.2186274528503418)
(X_415  0.22254902124404907)
(X_416  0.09117648005485535)
(X_417  0.1872549057006836)
(X_418  0.07941177487373352)
(X_419  0.0676470622420311)
(X_420  0.03235294297337532)
(X_421  0.13235294818878174)
(X_422  0.12843137979507446)
(X_423  0.12843137979507446)
(X_424  0.03235294297337532)
(X_425  0.03235294297337532)
(X_426  0.136274516582489)
(X_427  0.1401960849761963)
(X_428  0.14803922176361084)
(X_429  0.16764706373214722)
(X_430  0.09117648005485535)
(X_431  0.11078432202339172)
(X_432  0.22254902124404907)
(X_433  0.22647058963775635)
(X_434  0.23039215803146362)
(X_435  0.13431373238563538)
(X_436  0.12647059559822083)
(X_437  0.23039215803146362)
(X_438  0.2343137264251709)
(X_439  0.24215686321258545)
(X_440  0.24607843160629272)
(X_441  0.15392157435417175)
(X_442  0.15784314274787903)
(X_443  0.1617647111415863)
(X_444  0.18921568989753723)
(X_445  0.18137255311012268)
(X_446  0.17352941632270813)
(X_447  0.2617647051811218)
(X_448  0.136274516582489)
(X_449  0.036274511367082596)
(X_450  0.036274511367082596)
(X_451  0.1401960849761963)
(X_452  0.15196079015731812)
(X_453  0.06372549384832382)
(X_454  0.07941177487373352)
(X_455  0.09117648005485535)
(X_456  0.2343137264251709)
(X_457  0.2186274528503418)
(X_458  0.23823529481887817)
(X_459  0.2813725471496582)
(X_460  0.2813725471496582)
(X_461  0.23823529481887817)
(X_462  0.2343137264251709)
(X_463  0.2617647051811218)
(X_464  0.15784314274787903)
(X_465  0.15392157435417175)
(X_466  0.24607843160629272)
(X_467  0.14215686917304993)
(X_468  0.14215686917304993)
(X_469  0.25)
(X_470  0.2617647051811218)
(X_471  0.2696078419685364)
(X_472  0.2813725471496582)
(X_473  0.2813725471496582)
(X_474  0.2852941155433655)
(X_475  0.28921568393707275)
(X_476  0.0519607849419117)
(X_477  0.05588235333561897)
(X_478  0.07156863063573837)
(X_479  0.19901961088180542)
(X_480  0.13431373238563538)
(X_481  0.15784314274787903)
(X_482  0.16960784792900085)
(X_483  0.16960784792900085)
(X_484  0.16568627953529358)
(X_485  0.17352941632270813)
(X_486  0.1617647111415863)
(X_487  0.14215686917304993)
(X_488  0.14215686917304993)
(X_489  0.15392157435417175)
(X_490  0.15000000596046448)
(X_491  0.1303921639919281)
(X_492  0.12254902720451355)
(X_493  0.15784314274787903)
(X_494  0.21274511516094208)
(X_495  0.26372548937797546)
(X_496  0.40294119715690613)
(X_497  0.4225490391254425)
(X_498  0.43039217591285706)
(X_499  0.3343137204647064)
(X_500  0.26372548937797546)
(X_501  0.2598039209842682)
(X_502  0.25196078419685364)
(X_503  0.24411766231060028)
(X_504  0.30490198731422424)
(X_505  0.2970588207244873)
(X_506  0.2970588207244873)
(X_507  0.30490198731422424)
(X_508  0.31666669249534607)
(X_509  0.21666668355464935)
(X_510  0.20490197837352753)
(X_511  0.18921568989753723)
(X_512  0.11862745881080627)
(X_513  0.26764705777168274)
(X_514  0.3656862676143646)
(X_515  0.3186274468898773)
(X_516  0.24803923070430756)
(X_517  0.240196093916893)
(X_518  0.23235295712947845)
(X_519  0.20490197837352753)
(X_520  0.4264706075191498)
(X_521  0.33039215207099915)
(X_522  0.32647058367729187)
(X_523  0.31470587849617004)
(X_524  0.3068627417087555)
(X_525  0.40294119715690613)
(X_526  0.3068627417087555)
(X_527  0.31470587849617004)
(X_528  0.4166666567325592)
(X_529  0.41274508833885193)
(X_530  0.41274508833885193)
(X_531  0.40882351994514465)
(X_532  0.32058826088905334)
(X_533  0.3127451241016388)
(X_534  0.20490197837352753)
(X_535  0.28921568393707275)
(X_536  0.2774509787559509)
(X_537  0.16960784792900085)
(X_538  0.2696078419685364)
(X_539  0.27352941036224365)
(X_540  0.29509803652763367)
(X_541  0.3813725411891937)
(X_542  0.41274508833885193)
(X_543  0.34607842564582825)
(X_544  0.3029411733150482)
(X_545  0.34215685725212097)
(X_546  0.4049019515514374)
(X_547  0.42843136191368103)
(X_548  0.43431374430656433)
(X_549  0.32647058367729187)
(X_550  0.3068627417087555)
(X_551  0.27941176295280457)
(X_552  0.3598039448261261)
(X_553  0.3598039448261261)
(X_554  0.3794117867946625)
(X_555  0.29901960492134094)
(X_556  0.3225490152835846)
(X_557  0.32647058367729187)
(X_558  0.33039215207099915)
(X_559  0.3382352888584137)
(X_560  0.32058826088905334)
(X_561  0.23627452552318573)
(X_562  0.24803923070430756)
(X_563  0.24803923070430756)
(X_564  0.25196078419685364)
(X_565  0.2754901945590973)
(X_566  0.3225490152835846)
(X_567  0.36176469922065735)
(X_568  0.4205882251262665)
(X_569  0.3343137204647064)
(X_570  0.26764705777168274)
(X_571  0.29901960492134094)
(X_572  0.37745097279548645)
(X_573  0.41274508833885193)
(X_574  0.39313724637031555)
(X_575  0.36176469922065735)
(X_576  0.1931372582912445)
(X_577  0.22058825194835663)
(X_578  0.35196080803871155)
(X_579  0.3637255132198334)
(X_580  0.3598039448261261)
(X_581  0.35196080803871155)
(X_582  0.3558823764324188)
(X_583  0.3637255132198334)
(X_584  0.3029411733150482)
(X_585  0.29901960492134094)
(X_586  0.29901960492134094)
(X_587  0.2911764681339264)
(X_588  0.4049019515514374)
(X_589  0.42450979351997375)
(X_590  0.44019606709480286)
(X_591  0.44019606709480286)
(X_592  0.4323529303073883)
(X_593  0.5441176295280457)
(X_594  0.5794118046760559)
(X_595  0.6107843518257141)
(X_596  0.32647058367729187)
(X_597  0.2245098203420639)
(X_598  0.20098040997982025)
(X_599  0.31078431010246277)
(X_600  0.3813725411891937)
(X_601  0.3186274468898773)
(X_602  0.21666668355464935)
(X_603  0.16960784792900085)
(X_604  0.2088235467672348)
(X_605  0.22058825194835663)
(X_606  0.2245098203420639)
(X_607  0.3088235557079315)
(X_608  0.2813725471496582)
(X_609  0.2656862735748291)
(X_610  0.17352941632270813)
(X_611  0.18921568989753723)
(X_612  0.3088235557079315)
(X_613  0.20490197837352753)
(X_614  0.30098041892051697)
(X_615  0.19705882668495178)
(X_616  0.5794118046760559)
(X_617  0.5872549414634705)
(X_618  0.4911764860153198)
(X_619  0.48725491762161255)
(X_620  0.5637255311012268)
(X_621  0.5284313559532166)
(X_622  0.4892157018184662)
(X_623  0.3656862676143646)
(X_624  0.36764708161354065)
(X_625  0.19705882668495178)
(X_626  0.2852941155433655)
(X_627  0.240196093916893)
(X_628  0.23627452552318573)
(X_629  0.1617647111415863)
(X_630  0.24215686321258545)
(X_631  0.18921568989753723)
(X_632  0.18921568989753723)
(X_633  0.18921568989753723)
(X_634  0.17352941632270813)
(X_635  0.24607843160629272)
(X_636  0.22254902124404907)
(X_637  0.23039215803146362)
(X_638  0.27352941036224365)
(X_639  0.3127451241016388)
(X_640  0.2813725471496582)
(X_641  0.2813725471496582)
(X_642  0.2852941155433655)
(X_643  0.2852941155433655)
(X_644  0.5088235139846802)
(X_645  0.5088235139846802)
(X_646  0.42450979351997375)
(X_647  0.44411763548851013)
(X_648  0.44019606709480286)
(X_649  0.4892157018184662)
(X_650  0.39901962876319885)
(X_651  0.3284313976764679)
(X_652  0.2813725471496582)
(X_653  0.1460784375667572)
(X_654  0.16960784792900085)
(X_655  0.240196093916893)
(X_656  0.25196078419685364)
(X_657  0.18529412150382996)
(X_658  0.1303921639919281)
(X_659  0.1303921639919281)
(X_660  0.15000000596046448)
(X_661  0.17352941632270813)
(X_662  0.29313725233078003)
(X_663  0.2852941155433655)
(X_664  0.1617647111415863)
(X_665  0.15000000596046448)
(X_666  0.1617647111415863)
(X_667  0.18137255311012268)
(X_668  0.20490197837352753)
(X_669  0.20098040997982025)
(X_670  0.20098040997982025)
(X_671  0.19705882668495178)
(X_672  0.3186274468898773)
(X_673  0.36176469922065735)
(X_674  0.46568629145622253)
(X_675  0.46176472306251526)
(X_676  0.46176472306251526)
(X_677  0.41862747073173523)
(X_678  0.36764708161354065)
(X_679  0.26764705777168274)
(X_680  0.18529412150382996)
(X_681  0.15784314274787903)
(X_682  0.18529412150382996)
(X_683  0.2558823525905609)
(X_684  0.26764705777168274)
(X_685  0.2088235467672348)
(X_686  0.16960784792900085)
(X_687  0.1774509847164154)
(X_688  0.2774509787559509)
(X_689  0.2970588207244873)
(X_690  0.30098041892051697)
(X_691  0.2774509787559509)
(X_692  0.2617647051811218)
(X_693  0.2696078419685364)
(X_694  0.2852941155433655)
(X_695  0.2852941155433655)
(X_696  0.2696078419685364)
(X_697  0.2774509787559509)
(X_698  0.2970588207244873)
(X_699  0.3127451241016388)
(X_700  0.3715686500072479)
(X_701  0.40294119715690613)
(X_702  0.29509803652763367)
(X_703  0.38333335518836975)
(X_704  0.28333333134651184)
(X_705  0.24803923070430756)
(X_706  0.2088235467672348)
(X_707  0.22058825194835663)
(X_708  0.17352941632270813)
(X_709  0.24215686321258545)
(X_710  0.25784313678741455)
(X_711  0.31666669249534607)
(X_712  0.3245098292827606)
(X_713  0.2774509787559509)
(X_714  0.15000000596046448)
(X_715  0.16568627953529358)
(X_716  0.1931372582912445)
(X_717  0.2088235467672348)
(X_718  0.21274511516094208)
(X_719  0.18921568989753723)
(X_720  0.1774509847164154)
(X_721  0.18529412150382996)
(X_722  0.19705882668495178)
(X_723  0.20098040997982025)
(X_724  0.2852941155433655)
(X_725  0.18921568989753723)
(X_726  0.1931372582912445)
(X_727  0.19705882668495178)
(X_728  0.31666669249534607)
(X_729  0.3401961028575897)
(X_730  0.32058826088905334)
(X_731  0.30098041892051697)
(X_732  0.30490198731422424)
(X_733  0.1774509847164154)
(X_734  0.25)
(X_735  0.2696078419685364)
(X_736  0.15392157435417175)
(X_737  0.11862745881080627)
(X_738  0.12647059559822083)
(X_739  0.16960784792900085)
(X_740  0.1774509847164154)
(X_741  0.24215686321258545)
(X_742  0.1303921639919281)
(X_743  0.25)
(X_744  0.16568627953529358)
(X_745  0.2852941155433655)
(X_746  0.28921568393707275)
(X_747  0.16568627953529358)
(X_748  0.2539215683937073)
(X_749  0.2617647051811218)
(X_750  0.1774509847164154)
(X_751  0.1774509847164154)
(X_752  0.2852941155433655)
(X_753  0.2813725471496582)
(X_754  0.2774509787559509)
(X_755  0.2696078419685364)
(X_756  0.18529412150382996)
(X_757  0.2088235467672348)
(X_758  0.18921568989753723)
(X_759  0.2656862735748291)
(X_760  0.16960784792900085)
(X_761  0.24607843160629272)
(X_762  0.22254902124404907)
(X_763  0.24215686321258545)
(X_764  0.23039215803146362)
(X_765  0.20686274766921997)
(X_766  0.21470588445663452)
(X_767  0.25)
(X_768  0.25)
(X_769  0.22254902124404907)
(X_770  0.114705890417099)
(X_771  0.13431373238563538)
(X_772  0.13823530077934265)
(X_773  0.15784314274787903)
(X_774  0.1617647111415863)
(X_775  0.13823530077934265)
(X_776  0.12647059559822083)
(X_777  0.13823530077934265)
(X_778  0.15000000596046448)
(X_779  0.15392157435417175)
(X_780  0.16568627953529358)
(X_781  0.1617647111415863)
(X_782  0.15392157435417175)
(X_783  0.25)
(Y_0 -11.997933387756348)
(Y_1 22.130578994750977)
(Y_2 -9.873568534851074)
(Y_3 -1.8119564056396484))