((X_0  1.0499999523162842)
(X_1  0.949999988079071)
(X_2  0.949999988079071)
(X_3  0.9460784196853638)
(X_4  0.9421568512916565)
(X_5  0.9460784196853638)
(X_6  0.949999988079071)
(X_7  0.949999988079071)
(X_8  1.0499999523162842)
(X_9  1.0499999523162842)
(X_10  1.0499999523162842)
(X_11  1.0460784435272217)
(X_12  1.0460784435272217)
(X_13  1.0499999523162842)
(X_14  1.0499999523162842)
(X_15  0.949999988079071)
(X_16  0.949999988079071)
(X_17  0.949999988079071)
(X_18  0.9460784196853638)
(X_19  0.9460784196853638)
(X_20  1.0460784435272217)
(X_21  1.0499999523162842)
(X_22  1.0499999523162842)
(X_23  0.949999988079071)
(X_24  1.0499999523162842)
(X_25  0.949999988079071)
(X_26  0.949999988079071)
(X_27  1.0499999523162842)
(X_28  1.0499999523162842)
(X_29  1.0499999523162842)
(X_30  0.949999988079071)
(X_31  0.949999988079071)
(X_32  0.949999988079071)
(X_33  0.9421568512916565)
(X_34  0.9303921461105347)
(X_35  1.022549033164978)
(X_36  0.9460784196853638)
(X_37  1.0460784435272217)
(X_38  0.9460784196853638)
(X_39  0.9421568512916565)
(X_40  1.0421568155288696)
(X_41  1.0382353067398071)
(X_42  1.034313678741455)
(X_43  0.9303921461105347)
(X_44  1.0499999523162842)
(X_45  1.0499999523162842)
(X_46  1.0499999523162842)
(X_47  0.949999988079071)
(X_48  1.0499999523162842)
(X_49  0.949999988079071)
(X_50  0.949999988079071)
(X_51  0.949999988079071)
(X_52  1.0421568155288696)
(X_53  1.0382353067398071)
(X_54  1.034313678741455)
(X_55  1.0303921699523926)
(X_56  0.5323529243469238)
(X_57  0.44019606709480286)
(X_58  0.45196080207824707)
(X_59  0.47156864404678345)
(X_60  0.48725491762161255)
(X_61  0.4990196228027344)
(X_62  0.595098078250885)
(X_63  0.4911764860153198)
(X_64  0.5872549414634705)
(X_65  0.4950980544090271)
(X_66  0.5029411911964417)
(X_67  0.5068627595901489)
(X_68  0.5107843279838562)
(X_69  0.5029411911964417)
(X_70  0.4950980544090271)
(X_71  0.4911764860153198)
(X_72  0.4598039388656616)
(X_73  0.45588237047195435)
(X_74  0.45196080207824707)
(X_75  0.44411763548851013)
(X_76  0.44019606709480286)
(X_77  0.5362744927406311)
(X_78  0.5362744927406311)
(X_79  0.5362744927406311)
(X_80  0.5284313559532166)
(X_81  0.5245097875595093)
(X_82  0.520588219165802)
(X_83  0.5166666507720947)
(X_84  0.19117647409439087)
(X_85  0.17549020051956177)
(X_86  0.05980392172932625)
(X_87  0.1558823585510254)
(X_88  0.15980392694473267)
(X_89  0.16372549533843994)
(X_90  0.16372549533843994)
(X_91  0.15980392694473267)
(X_92  0.1715686321258545)
(X_93  0.07156863063573837)
(X_94  0.07549020648002625)
(X_95  0.07549020648002625)
(X_96  0.17549020051956177)
(X_97  0.16764706373214722)
(X_98  0.15980392694473267)
(X_99  0.1558823585510254)
(X_100  0.1715686321258545)
(X_101  0.1715686321258545)
(X_102  0.16764706373214722)
(X_103  0.16372549533843994)
(X_104  0.15980392694473267)
(X_105  0.05980392172932625)
(X_106  0.05980392172932625)
(X_107  0.05980392172932625)
(X_108  0.0676470622420311)
(X_109  0.06372549384832382)
(X_110  0.05980392172932625)
(X_111  0.05980392172932625)
(X_112  0.1715686321258545)
(X_113  0.16372549533843994)
(X_114  0.1558823585510254)
(X_115  0.15196079015731812)
(X_116  0.15196079015731812)
(X_117  0.05588235333561897)
(X_118  0.05588235333561897)
(X_119  0.05588235333561897)
(X_120  0.0676470622420311)
(X_121  0.06372549384832382)
(X_122  0.05588235333561897)
(X_123  0.0519607849419117)
(X_124  0.14803922176361084)
(X_125  0.04803921654820442)
(X_126  0.04803921654820442)
(X_127  0.0519607849419117)
(X_128  0.15980392694473267)
(X_129  0.1558823585510254)
(X_130  0.1558823585510254)
(X_131  0.1558823585510254)
(X_132  0.15980392694473267)
(X_133  0.16372549533843994)
(X_134  0.16764706373214722)
(X_135  0.1715686321258545)
(X_136  0.1715686321258545)
(X_137  0.1715686321258545)
(X_138  0.16764706373214722)
(X_139  0.16372549533843994)
(X_140  0.13235294818878174)
(X_141  0.14803922176361084)
(X_142  0.15980392694473267)
(X_143  0.16372549533843994)
(X_144  0.16372549533843994)
(X_145  0.05980392172932625)
(X_146  0.05980392172932625)
(X_147  0.16372549533843994)
(X_148  0.15196079015731812)
(X_149  0.14803922176361084)
(X_150  0.04803921654820442)
(X_151  0.04803921654820442)
(X_152  0.15980392694473267)
(X_153  0.1715686321258545)
(X_154  0.1872549057006836)
(X_155  0.19509804248809814)
(X_156  0.04411764815449715)
(X_157  0.14411765336990356)
(X_158  0.14411765336990356)
(X_159  0.14411765336990356)
(X_160  0.15196079015731812)
(X_161  0.05588235333561897)
(X_162  0.06372549384832382)
(X_163  0.16764706373214722)
(X_164  0.15196079015731812)
(X_165  0.15196079015731812)
(X_166  0.14803922176361084)
(X_167  0.14411765336990356)
(X_168  0.05980392172932625)
(X_169  0.16764706373214722)
(X_170  0.0676470622420311)
(X_171  0.14803922176361084)
(X_172  0.12450980395078659)
(X_173  0.02450980618596077)
(X_174  0.0519607849419117)
(X_175  0.07941177487373352)
(X_176  0.21078431606292725)
(X_177  0.10294118523597717)
(X_178  0.09117648005485535)
(X_179  0.17549020051956177)
(X_180  0.1558823585510254)
(X_181  0.04411764815449715)
(X_182  0.03235294297337532)
(X_183  0.028431374579668045)
(X_184  0.14803922176361084)
(X_185  0.14803922176361084)
(X_186  0.14411765336990356)
(X_187  0.14411765336990356)
(X_188  0.14803922176361084)
(X_189  0.0519607849419117)
(X_190  0.05588235333561897)
(X_191  0.15980392694473267)
(X_192  0.1558823585510254)
(X_193  0.15196079015731812)
(X_194  0.14803922176361084)
(X_195  0.04411764815449715)
(X_196  0.020588237792253494)
(X_197  0.136274516582489)
(X_198  0.14803922176361084)
(X_199  0.05588235333561897)
(X_200  0.18333333730697632)
(X_201  0.2656862735748291)
(X_202  0.27941176295280457)
(X_203  0.3656862676143646)
(X_204  0.42843136191368103)
(X_205  0.4049019515514374)
(X_206  0.3578431308269501)
(X_207  0.29509803652763367)
(X_208  0.21666668355464935)
(X_209  0.14215686917304993)
(X_210  0.0833333432674408)
(X_211  0.04803921654820442)
(X_212  0.14411765336990356)
(X_213  0.1401960849761963)
(X_214  0.136274516582489)
(X_215  0.136274516582489)
(X_216  0.13235294818878174)
(X_217  0.036274511367082596)
(X_218  0.136274516582489)
(X_219  0.1401960849761963)
(X_220  0.15980392694473267)
(X_221  0.05588235333561897)
(X_222  0.0519607849419117)
(X_223  0.14803922176361084)
(X_224  0.04019607976078987)
(X_225  0.07549020648002625)
(X_226  0.25784313678741455)
(X_227  0.38333335518836975)
(X_228  0.39313724637031555)
(X_229  0.44411763548851013)
(X_230  0.4480392038822174)
(X_231  0.4362744987010956)
(X_232  0.49705883860588074)
(X_233  0.4852941334247589)
(X_234  0.41274508833885193)
(X_235  0.4166666567325592)
(X_236  0.46568629145622253)
(X_237  0.32647058367729187)
(X_238  0.3911764919757843)
(X_239  0.33235296607017517)
(X_240  0.16960784792900085)
(X_241  0.18137255311012268)
(X_242  0.22647058963775635)
(X_243  0.19901961088180542)
(X_244  0.27352941036224365)
(X_245  0.3598039448261261)
(X_246  0.39901962876319885)
(X_247  0.4225490391254425)
(X_248  0.3382352888584137)
(X_249  0.3539215624332428)
(X_250  0.37745097279548645)
(X_251  0.49313727021217346)
(X_252  0.3813725411891937)
(X_253  0.3970588147640228)
(X_254  0.4166666567325592)
(X_255  0.5284313559532166)
(X_256  0.5245097875595093)
(X_257  0.5088235139846802)
(X_258  0.48137256503105164)
(X_259  0.4539215862751007)
(X_260  0.385294109582901)
(X_261  0.46764707565307617)
(X_262  0.5892156958580017)
(X_263  0.708823561668396)
(X_264  0.595098078250885)
(X_265  0.49705883860588074)
(X_266  0.45000001788139343)
(X_267  0.31078431010246277)
(X_268  0.36176469922065735)
(X_269  0.5049019455909729)
(X_270  0.5088235139846802)
(X_271  0.40882351994514465)
(X_272  0.4480392038822174)
(X_273  0.4598039388656616)
(X_274  0.551960825920105)
(X_275  0.5637255311012268)
(X_276  0.5637255311012268)
(X_277  0.4754902124404907)
(X_278  0.4911764860153198)
(X_279  0.4990196228027344)
(X_280  0.3735294044017792)
(X_281  0.520588219165802)
(X_282  0.4323529303073883)
(X_283  0.37745097279548645)
(X_284  0.3225490152835846)
(X_285  0.4225490391254425)
(X_286  0.4539215862751007)
(X_287  0.47745099663734436)
(X_288  0.6068627834320068)
(X_289  0.5147058963775635)
(X_290  0.5813725590705872)
(X_291  0.6401960849761963)
(X_292  0.6205882430076599)
(X_293  0.5696078538894653)
(X_294  0.479411780834198)
(X_295  0.37745097279548645)
(X_296  0.4107843339443207)
(X_297  0.3382352888584137)
(X_298  0.34215685725212097)
(X_299  0.3578431308269501)
(X_300  0.48137256503105164)
(X_301  0.46568629145622253)
(X_302  0.3578431308269501)
(X_303  0.4009803831577301)
(X_304  0.3892156779766083)
(X_305  0.39313724637031555)
(X_306  0.3970588147640228)
(X_307  0.39313724637031555)
(X_308  0.3499999940395355)
(X_309  0.5088235139846802)
(X_310  0.5245097875595093)
(X_311  0.3656862676143646)
(X_312  0.33039215207099915)
(X_313  0.3696078360080719)
(X_314  0.44411763548851013)
(X_315  0.48725491762161255)
(X_316  0.4598039388656616)
(X_317  0.45000001788139343)
(X_318  0.39901962876319885)
(X_319  0.4539215862751007)
(X_320  0.5401960611343384)
(X_321  0.5068627595901489)
(X_322  0.4754902124404907)
(X_323  0.3735294044017792)
(X_324  0.2872548997402191)
(X_325  0.2754901945590973)
(X_326  0.2558823525905609)
(X_327  0.3911764919757843)
(X_328  0.4421568810939789)
(X_329  0.4225490391254425)
(X_330  0.3068627417087555)
(X_331  0.34607842564582825)
(X_332  0.3735294044017792)
(X_333  0.37745097279548645)
(X_334  0.3735294044017792)
(X_335  0.36176469922065735)
(X_336  0.3794117867946625)
(X_337  0.387254923582077)
(X_338  0.38333335518836975)
(X_339  0.40294119715690613)
(X_340  0.46176472306251526)
(X_341  0.520588219165802)
(X_342  0.5166666507720947)
(X_343  0.3735294044017792)
(X_344  0.3284313976764679)
(X_345  0.2617647051811218)
(X_346  0.2343137264251709)
(X_347  0.14215686917304993)
(X_348  0.18529412150382996)
(X_349  0.2872548997402191)
(X_350  0.3892156779766083)
(X_351  0.5166666507720947)
(X_352  0.41470590233802795)
(X_353  0.38333335518836975)
(X_354  0.35196080803871155)
(X_355  0.39901962876319885)
(X_356  0.46176472306251526)
(X_357  0.4225490391254425)
(X_358  0.3480392396450043)
(X_359  0.33235296607017517)
(X_360  0.21666668355464935)
(X_361  0.21666668355464935)
(X_362  0.2088235467672348)
(X_363  0.20098040997982025)
(X_364  0.24803923070430756)
(X_365  0.18137255311012268)
(X_366  0.15000000596046448)
(X_367  0.3284313976764679)
(X_368  0.43431374430656433)
(X_369  0.4421568810939789)
(X_370  0.21274511516094208)
(X_371  0.07549020648002625)
(X_372  0.07156863063573837)
(X_373  0.0676470622420311)
(X_374  0.0990196168422699)
(X_375  0.21078431606292725)
(X_376  0.2029411792755127)
(X_377  0.2774509787559509)
(X_378  0.29901960492134094)
(X_379  0.36176469922065735)
(X_380  0.39901962876319885)
(X_381  0.35196080803871155)
(X_382  0.2774509787559509)
(X_383  0.16568627953529358)
(X_384  0.20098040997982025)
(X_385  0.1774509847164154)
(X_386  0.11862745881080627)
(X_387  0.10686275362968445)
(X_388  0.20686274766921997)
(X_389  0.20686274766921997)
(X_390  0.2029411792755127)
(X_391  0.19509804248809814)
(X_392  0.49705883860588074)
(X_393  0.4264706075191498)
(X_394  0.387254923582077)
(X_395  0.4225490391254425)
(X_396  0.4264706075191498)
(X_397  0.33627453446388245)
(X_398  0.19901961088180542)
(X_399  0.10490196198225021)
(X_400  0.136274516582489)
(X_401  0.12843137979507446)
(X_402  0.1558823585510254)
(X_403  0.17549020051956177)
(X_404  0.16372549533843994)
(X_405  0.10294118523597717)
(X_406  0.16568627953529358)
(X_407  0.1774509847164154)
(X_408  0.31078431010246277)
(X_409  0.31078431010246277)
(X_410  0.240196093916893)
(X_411  0.16960784792900085)
(X_412  0.2696078419685364)
(X_413  0.2852941155433655)
(X_414  0.3088235557079315)
(X_415  0.35196080803871155)
(X_416  0.1460784375667572)
(X_417  0.15000000596046448)
(X_418  0.1460784375667572)
(X_419  0.13823530077934265)
(X_420  0.27941176295280457)
(X_421  0.2754901945590973)
(X_422  0.39901962876319885)
(X_423  0.3068627417087555)
(X_424  0.22843138873577118)
(X_425  0.11862745881080627)
(X_426  0.2029411792755127)
(X_427  0.25784313678741455)
(X_428  0.09117648005485535)
(X_429  0.1872549057006836)
(X_430  0.11078432202339172)
(X_431  0.0990196168422699)
(X_432  0.04411764815449715)
(X_433  0.15196079015731812)
(X_434  0.20686274766921997)
(X_435  0.12647059559822083)
(X_436  0.2245098203420639)
(X_437  0.31470587849617004)
(X_438  0.43039217591285706)
(X_439  0.3715686500072479)
(X_440  0.35196080803871155)
(X_441  0.3754902184009552)
(X_442  0.33039215207099915)
(X_443  0.3970588147640228)
(X_444  0.3539215624332428)
(X_445  0.3578431308269501)
(X_446  0.3539215624332428)
(X_447  0.44607844948768616)
(X_448  0.22254902124404907)
(X_449  0.23039215803146362)
(X_450  0.13823530077934265)
(X_451  0.14215686917304993)
(X_452  0.13823530077934265)
(X_453  0.13431373238563538)
(X_454  0.13823530077934265)
(X_455  0.14215686917304993)
(X_456  0.2343137264251709)
(X_457  0.23039215803146362)
(X_458  0.22254902124404907)
(X_459  0.21078431606292725)
(X_460  0.2029411792755127)
(X_461  0.20686274766921997)
(X_462  0.2186274528503418)
(X_463  0.1303921639919281)
(X_464  0.15784314274787903)
(X_465  0.18137255311012268)
(X_466  0.2088235467672348)
(X_467  0.31666669249534607)
(X_468  0.3088235557079315)
(X_469  0.3088235557079315)
(X_470  0.32058826088905334)
(X_471  0.33235296607017517)
(X_472  0.3127451241016388)
(X_473  0.29313725233078003)
(X_474  0.28921568393707275)
(X_475  0.30098041892051697)
(X_476  0.0833333432674408)
(X_477  0.09117648005485535)
(X_478  0.19901961088180542)
(X_479  0.19901961088180542)
(X_480  0.09509804844856262)
(X_481  0.09117648005485535)
(X_482  0.09117648005485535)
(X_483  0.09509804844856262)
(X_484  0.18333333730697632)
(X_485  0.18333333730697632)
(X_486  0.07941177487373352)
(X_487  0.07156863063573837)
(X_488  0.06372549384832382)
(X_489  0.06372549384832382)
(X_490  0.07549020648002625)
(X_491  0.0833333432674408)
(X_492  0.10294118523597717)
(X_493  0.12254902720451355)
(X_494  0.1460784375667572)
(X_495  0.15000000596046448)
(X_496  0.24215686321258545)
(X_497  0.2343137264251709)
(X_498  0.24215686321258545)
(X_499  0.2539215683937073)
(X_500  0.15392157435417175)
(X_501  0.13823530077934265)
(X_502  0.13823530077934265)
(X_503  0.15784314274787903)
(X_504  0.0676470622420311)
(X_505  0.17549020051956177)
(X_506  0.17941176891326904)
(X_507  0.17941176891326904)
(X_508  0.07156863063573837)
(X_509  0.0676470622420311)
(X_510  0.0676470622420311)
(X_511  0.07156863063573837)
(X_512  0.05588235333561897)
(X_513  0.05980392172932625)
(X_514  0.06372549384832382)
(X_515  0.05980392172932625)
(X_516  0.0519607849419117)
(X_517  0.04803921654820442)
(X_518  0.05588235333561897)
(X_519  0.05980392172932625)
(X_520  0.07549020648002625)
(X_521  0.09117648005485535)
(X_522  0.10686275362968445)
(X_523  0.11078432202339172)
(X_524  0.0990196168422699)
(X_525  0.19509804248809814)
(X_526  0.19901961088180542)
(X_527  0.20686274766921997)
(X_528  0.11078432202339172)
(X_529  0.10294118523597717)
(X_530  0.11078432202339172)
(X_531  0.13823530077934265)
(X_532  0.15980392694473267)
(X_533  0.16764706373214722)
(X_534  0.1715686321258545)
(X_535  0.16764706373214722)
(X_536  0.05980392172932625)
(X_537  0.05588235333561897)
(X_538  0.0519607849419117)
(X_539  0.05588235333561897)
(X_540  0.04411764815449715)
(X_541  0.0519607849419117)
(X_542  0.16372549533843994)
(X_543  0.16372549533843994)
(X_544  0.1558823585510254)
(X_545  0.0519607849419117)
(X_546  0.04803921654820442)
(X_547  0.0519607849419117)
(X_548  0.16764706373214722)
(X_549  0.17941176891326904)
(X_550  0.09117648005485535)
(X_551  0.19509804248809814)
(X_552  0.19117647409439087)
(X_553  0.1872549057006836)
(X_554  0.09117648005485535)
(X_555  0.0990196168422699)
(X_556  0.19117647409439087)
(X_557  0.18333333730697632)
(X_558  0.19509804248809814)
(X_559  0.22254902124404907)
(X_560  0.03235294297337532)
(X_561  0.036274511367082596)
(X_562  0.04411764815449715)
(X_563  0.04019607976078987)
(X_564  0.03235294297337532)
(X_565  0.02450980618596077)
(X_566  0.02450980618596077)
(X_567  0.028431374579668045)
(X_568  0.12058823555707932)
(X_569  0.12843137979507446)
(X_570  0.1401960849761963)
(X_571  0.14411765336990356)
(X_572  0.04019607976078987)
(X_573  0.03235294297337532)
(X_574  0.028431374579668045)
(X_575  0.03235294297337532)
(X_576  0.04019607976078987)
(X_577  0.04803921654820442)
(X_578  0.05588235333561897)
(X_579  0.15980392694473267)
(X_580  0.16372549533843994)
(X_581  0.16764706373214722)
(X_582  0.1715686321258545)
(X_583  0.17549020051956177)
(X_584  0.06372549384832382)
(X_585  0.0519607849419117)
(X_586  0.05980392172932625)
(X_587  0.0833333432674408)
(X_588  0.11274509876966476)
(X_589  0.020588237792253494)
(X_590  0.028431374579668045)
(X_591  0.02450980618596077)
(X_592  0.01666666939854622)
(X_593  0.11274509876966476)
(X_594  0.11274509876966476)
(X_595  0.11666666716337204)
(X_596  0.10882353037595749)
(X_597  0.01666666939854622)
(X_598  0.028431374579668045)
(X_599  0.03235294297337532)
(X_600  0.02450980618596077)
(X_601  0.020588237792253494)
(X_602  0.020588237792253494)
(X_603  0.02450980618596077)
(X_604  0.11666666716337204)
(X_605  0.020588237792253494)
(X_606  0.12450980395078659)
(X_607  0.13235294818878174)
(X_608  0.1401960849761963)
(X_609  0.14411765336990356)
(X_610  0.15196079015731812)
(X_611  0.15196079015731812)
(X_612  0.04803921654820442)
(X_613  0.036274511367082596)
(X_614  0.036274511367082596)
(X_615  0.05588235333561897)
(X_616  0.11274509876966476)
(X_617  0.12058823555707932)
(X_618  0.12843137979507446)
(X_619  0.12843137979507446)
(X_620  0.12058823555707932)
(X_621  0.11666666716337204)
(X_622  0.020588237792253494)
(X_623  0.02450980618596077)
(X_624  0.10882353037595749)
(X_625  0.11666666716337204)
(X_626  0.12450980395078659)
(X_627  0.12450980395078659)
(X_628  0.020588237792253494)
(X_629  0.01666666939854622)
(X_630  0.12058823555707932)
(X_631  0.12450980395078659)
(X_632  0.020588237792253494)
(X_633  0.12058823555707932)
(X_634  0.11666666716337204)
(X_635  0.12058823555707932)
(X_636  0.12843137979507446)
(X_637  0.13235294818878174)
(X_638  0.136274516582489)
(X_639  0.136274516582489)
(X_640  0.14411765336990356)
(X_641  0.12843137979507446)
(X_642  0.12450980395078659)
(X_643  0.1401960849761963)
(X_644  0.09705882519483566)
(X_645  0.10490196198225021)
(X_646  0.11666666716337204)
(X_647  0.01666666939854622)
(X_648  0.11274509876966476)
(X_649  0.11274509876966476)
(X_650  0.11666666716337204)
(X_651  0.12058823555707932)
(X_652  -0.006862743757665157)
(X_653  0.0009803927969187498)
(X_654  0.004901961423456669)
(X_655  0.004901961423456669)
(X_656  0.0009803927969187498)
(X_657  0.0009803927969187498)
(X_658  0.008823529817163944)
(X_659  0.012745101936161518)
(X_660  0.12450980395078659)
(X_661  0.11666666716337204)
(X_662  0.11274509876966476)
(X_663  0.10882353037595749)
(X_664  0.01666666939854622)
(X_665  0.01666666939854622)
(X_666  0.01666666939854622)
(X_667  0.01666666939854622)
(X_668  0.028431374579668045)
(X_669  0.008823529817163944)
(X_670  0.004901961423456669)
(X_671  0.020588237792253494)
(X_672  0.0009803927969187498)
(X_673  0.0009803927969187498)
(X_674  0.0009803927969187498)
(X_675  0.0009803927969187498)
(X_676  0.10098039358854294)
(X_677  0.10098039358854294)
(X_678  0.10098039358854294)
(X_679  0.10098039358854294)
(X_680  0.10882353037595749)
(X_681  0.10882353037595749)
(X_682  0.10882353037595749)
(X_683  0.10882353037595749)
(X_684  0.10882353037595749)
(X_685  0.008823529817163944)
(X_686  0.008823529817163944)
(X_687  0.008823529817163944)
(X_688  0.10490196198225021)
(X_689  0.10490196198225021)
(X_690  0.10490196198225021)
(X_691  0.10490196198225021)
(X_692  0.10490196198225021)
(X_693  0.10490196198225021)
(X_694  0.10490196198225021)
(X_695  0.10490196198225021)
(X_696  0.10490196198225021)
(X_697  0.10490196198225021)
(X_698  0.10882353037595749)
(X_699  0.008823529817163944)
(X_700  0.10098039358854294)
(X_701  0.0009803927969187498)
(X_702  0.10098039358854294)
(X_703  0.10098039358854294)
(X_704  0.10098039358854294)
(X_705  0.0009803927969187498)
(X_706  0.0009803927969187498)
(X_707  0.0009803927969187498)
(X_708  0.008823529817163944)
(X_709  0.008823529817163944)
(X_710  0.008823529817163944)
(X_711  0.008823529817163944)
(X_712  0.008823529817163944)
(X_713  0.008823529817163944)
(X_714  0.008823529817163944)
(X_715  0.008823529817163944)
(X_716  0.10490196198225021)
(X_717  0.004901961423456669)
(X_718  0.004901961423456669)
(X_719  0.004901961423456669)
(X_720  0.004901961423456669)
(X_721  0.004901961423456669)
(X_722  0.004901961423456669)
(X_723  0.10490196198225021)
(X_724  0.10098039358854294)
(X_725  0.10490196198225021)
(X_726  0.10490196198225021)
(X_727  0.10882353037595749)
(X_728  0.10098039358854294)
(X_729  0.10098039358854294)
(X_730  0.10098039358854294)
(X_731  0.10098039358854294)
(X_732  0.10098039358854294)
(X_733  0.10098039358854294)
(X_734  0.10098039358854294)
(X_735  0.10098039358854294)
(X_736  0.008823529817163944)
(X_737  0.008823529817163944)
(X_738  0.008823529817163944)
(X_739  0.008823529817163944)
(X_740  0.008823529817163944)
(X_741  0.10882353037595749)
(X_742  0.008823529817163944)
(X_743  0.10882353037595749)
(X_744  0.004901961423456669)
(X_745  0.004901961423456669)
(X_746  0.004901961423456669)
(X_747  0.004901961423456669)
(X_748  0.10490196198225021)
(X_749  0.10490196198225021)
(X_750  0.10490196198225021)
(X_751  0.10490196198225021)
(X_752  0.10098039358854294)
(X_753  0.10098039358854294)
(X_754  0.10490196198225021)
(X_755  0.10882353037595749)
(X_756  0.10098039358854294)
(X_757  0.0009803927969187498)
(X_758  0.0009803927969187498)
(X_759  0.10098039358854294)
(X_760  0.0009803927969187498)
(X_761  0.0009803927969187498)
(X_762  0.10098039358854294)
(X_763  0.10098039358854294)
(X_764  0.004901961423456669)
(X_765  0.10490196198225021)
(X_766  0.10490196198225021)
(X_767  0.004901961423456669)
(X_768  0.004901961423456669)
(X_769  0.004901961423456669)
(X_770  0.004901961423456669)
(X_771  0.004901961423456669)
(X_772  0.004901961423456669)
(X_773  0.004901961423456669)
(X_774  0.004901961423456669)
(X_775  0.004901961423456669)
(X_776  0.004901961423456669)
(X_777  0.004901961423456669)
(X_778  0.004901961423456669)
(X_779  0.004901961423456669)
(X_780  -0.0029411755967885256)
(X_781  0.0009803927969187498)
(X_782  0.004901961423456669)
(X_783  0.008823529817163944)
(Y_0 -8.261198997497559)
(Y_1 5.190874099731445)
(Y_2 -4.105894088745117)
(Y_3 7.170938968658447))