((X_0  1.018627405166626)
(X_1  1.0029411315917969)
(X_2  0.8872548937797546)
(X_3  0.8715686202049255)
(X_4  0.8558823466300964)
(X_5  0.8401960730552673)
(X_6  0.8245097994804382)
(X_7  0.8088235259056091)
(X_8  0.7578431367874146)
(X_9  0.7382352948188782)
(X_10  0.8029412031173706)
(X_11  0.6715686321258545)
(X_12  0.7401961088180542)
(X_13  0.7049019932746887)
(X_14  0.665686309337616)
(X_15  0.6343137621879578)
(X_16  0.4637255072593689)
(X_17  0.42843136191368103)
(X_18  0.37745097279548645)
(X_19  0.33039215207099915)
(X_20  0.39901962876319885)
(X_21  0.36764708161354065)
(X_22  0.3401961028575897)
(X_23  0.22058825194835663)
(X_24  0.2656862735748291)
(X_25  0.13823530077934265)
(X_26  0.10686275362968445)
(X_27  0.19117647409439087)
(X_28  0.3598039448261261)
(X_29  0.3401961028575897)
(X_30  0.21666668355464935)
(X_31  0.18921568989753723)
(X_32  0.16568627953529358)
(X_33  0.13823530077934265)
(X_34  0.11078432202339172)
(X_35  0.09509804844856262)
(X_36  0.09117648005485535)
(X_37  0.07549020648002625)
(X_38  0.05980392172932625)
(X_39  0.04803921654820442)
(X_40  0.04803921654820442)
(X_41  0.14411765336990356)
(X_42  0.13235294818878174)
(X_43  0.020588237792253494)
(X_44  0.136274516582489)
(X_45  0.13235294818878174)
(X_46  0.036274511367082596)
(X_47  0.04019607976078987)
(X_48  0.04019607976078987)
(X_49  0.02450980618596077)
(X_50  -0.0029411755967885256)
(X_51  -0.022549020126461983)
(X_52  0.11666666716337204)
(X_53  0.01666666939854622)
(X_54  0.01666666939854622)
(X_55  0.11666666716337204)
(X_56  0.1401960849761963)
(X_57  0.036274511367082596)
(X_58  0.03235294297337532)
(X_59  0.04019607976078987)
(X_60  0.04803921654820442)
(X_61  0.05588235333561897)
(X_62  0.0519607849419117)
(X_63  0.04803921654820442)
(X_64  0.0519607849419117)
(X_65  0.04019607976078987)
(X_66  0.03235294297337532)
(X_67  0.03235294297337532)
(X_68  0.04411764815449715)
(X_69  0.05588235333561897)
(X_70  0.05980392172932625)
(X_71  0.06372549384832382)
(X_72  0.028431374579668045)
(X_73  0.020588237792253494)
(X_74  0.012745101936161518)
(X_75  0.11666666716337204)
(X_76  0.12843137979507446)
(X_77  0.14411765336990356)
(X_78  0.1558823585510254)
(X_79  0.15980392694473267)
(X_80  0.12843137979507446)
(X_81  0.04411764815449715)
(X_82  0.05980392172932625)
(X_83  0.15980392694473267)
(X_84  0.136274516582489)
(X_85  0.12843137979507446)
(X_86  0.12450980395078659)
(X_87  0.12843137979507446)
(X_88  0.13235294818878174)
(X_89  0.03235294297337532)
(X_90  0.028431374579668045)
(X_91  0.02450980618596077)
(X_92  0.14803922176361084)
(X_93  0.04019607976078987)
(X_94  0.028431374579668045)
(X_95  0.02450980618596077)
(X_96  0.12058823555707932)
(X_97  0.12058823555707932)
(X_98  0.12058823555707932)
(X_99  0.12058823555707932)
(X_100  0.1401960849761963)
(X_101  0.13235294818878174)
(X_102  0.12450980395078659)
(X_103  0.12058823555707932)
(X_104  0.020588237792253494)
(X_105  0.01666666939854622)
(X_106  0.01666666939854622)
(X_107  0.01666666939854622)
(X_108  0.008823529817163944)
(X_109  0.01666666939854622)
(X_110  0.020588237792253494)
(X_111  0.11666666716337204)
(X_112  0.04411764815449715)
(X_113  0.136274516582489)
(X_114  0.03235294297337532)
(X_115  0.13235294818878174)
(X_116  0.036274511367082596)
(X_117  0.036274511367082596)
(X_118  0.028431374579668045)
(X_119  0.020588237792253494)
(X_120  0.03235294297337532)
(X_121  0.03235294297337532)
(X_122  0.03235294297337532)
(X_123  0.028431374579668045)
(X_124  0.12058823555707932)
(X_125  0.012745101936161518)
(X_126  0.012745101936161518)
(X_127  0.11274509876966476)
(X_128  0.10098039358854294)
(X_129  0.1401960849761963)
(X_130  0.19509804248809814)
(X_131  0.23039215803146362)
(X_132  0.23039215803146362)
(X_133  0.19117647409439087)
(X_134  0.04019607976078987)
(X_135  0.004901961423456669)
(X_136  0.15196079015731812)
(X_137  0.036274511367082596)
(X_138  0.12058823555707932)
(X_139  0.11666666716337204)
(X_140  0.12843137979507446)
(X_141  0.12450980395078659)
(X_142  0.12058823555707932)
(X_143  0.12450980395078659)
(X_144  0.13235294818878174)
(X_145  0.036274511367082596)
(X_146  0.036274511367082596)
(X_147  0.12843137979507446)
(X_148  0.11274509876966476)
(X_149  0.11666666716337204)
(X_150  0.02450980618596077)
(X_151  0.028431374579668045)
(X_152  0.12843137979507446)
(X_153  0.136274516582489)
(X_154  0.14803922176361084)
(X_155  0.05980392172932625)
(X_156  0.12254902720451355)
(X_157  0.16568627953529358)
(X_158  0.3245098292827606)
(X_159  0.3715686500072479)
(X_160  0.387254923582077)
(X_161  0.28333333134651184)
(X_162  0.26372548937797546)
(X_163  0.35196080803871155)
(X_164  0.10294118523597717)
(X_165  0.07156863063573837)
(X_166  0.036274511367082596)
(X_167  0.12058823555707932)
(X_168  0.19705882668495178)
(X_169  0.2813725471496582)
(X_170  0.25784313678741455)
(X_171  0.23823529481887817)
(X_172  0.2186274528503418)
(X_173  0.19901961088180542)
(X_174  0.07549020648002625)
(X_175  0.06372549384832382)
(X_176  0.15980392694473267)
(X_177  0.05588235333561897)
(X_178  0.04803921654820442)
(X_179  0.136274516582489)
(X_180  0.12843137979507446)
(X_181  0.1401960849761963)
(X_182  0.16372549533843994)
(X_183  0.08725491166114807)
(X_184  0.2539215683937073)
(X_185  0.2617647051811218)
(X_186  0.27352941036224365)
(X_187  0.2852941155433655)
(X_188  0.30098041892051697)
(X_189  0.22843138873577118)
(X_190  0.26372548937797546)
(X_191  0.3911764919757843)
(X_192  0.36764708161354065)
(X_193  0.3558823764324188)
(X_194  0.23627452552318573)
(X_195  0.21666668355464935)
(X_196  0.3186274468898773)
(X_197  0.4107843339443207)
(X_198  0.40294119715690613)
(X_199  0.29901960492134094)
(X_200  0.40294119715690613)
(X_201  0.39901962876319885)
(X_202  0.3911764919757843)
(X_203  0.38333335518836975)
(X_204  0.2598039209842682)
(X_205  0.240196093916893)
(X_206  0.20490197837352753)
(X_207  0.2617647051811218)
(X_208  0.13431373238563538)
(X_209  0.13823530077934265)
(X_210  0.1617647111415863)
(X_211  0.28921568393707275)
(X_212  0.3127451241016388)
(X_213  0.32058826088905334)
(X_214  0.2245098203420639)
(X_215  0.21666668355464935)
(X_216  0.2088235467672348)
(X_217  0.3088235557079315)
(X_218  0.3245098292827606)
(X_219  0.33627453446388245)
(X_220  0.3715686500072479)
(X_221  0.3911764919757843)
(X_222  0.31078431010246277)
(X_223  0.41862747073173523)
(X_224  0.2911764681339264)
(X_225  0.3068627417087555)
(X_226  0.3186274468898773)
(X_227  0.4264706075191498)
(X_228  0.3186274468898773)
(X_229  0.3068627417087555)
(X_230  0.2911764681339264)
(X_231  0.27941176295280457)
(X_232  0.2558823525905609)
(X_233  0.2872548997402191)
(X_234  0.23627452552318573)
(X_235  0.21274511516094208)
(X_236  0.17352941632270813)
(X_237  0.15784314274787903)
(X_238  0.23627452552318573)
(X_239  0.25196078419685364)
(X_240  0.26764705777168274)
(X_241  0.38333335518836975)
(X_242  0.3911764919757843)
(X_243  0.387254923582077)
(X_244  0.39901962876319885)
(X_245  0.3911764919757843)
(X_246  0.31666669249534607)
(X_247  0.2343137264251709)
(X_248  0.18529412150382996)
(X_249  0.21666668355464935)
(X_250  0.2598039209842682)
(X_251  0.38333335518836975)
(X_252  0.2558823525905609)
(X_253  0.24803923070430756)
(X_254  0.344117671251297)
(X_255  0.35196080803871155)
(X_256  0.36764708161354065)
(X_257  0.3715686500072479)
(X_258  0.3598039448261261)
(X_259  0.3480392396450043)
(X_260  0.26764705777168274)
(X_261  0.3068627417087555)
(X_262  0.2872548997402191)
(X_263  0.3068627417087555)
(X_264  0.3029411733150482)
(X_265  0.2872548997402191)
(X_266  0.4382353127002716)
(X_267  0.4264706075191498)
(X_268  0.3911764919757843)
(X_269  0.40294119715690613)
(X_270  0.39901962876319885)
(X_271  0.38333335518836975)
(X_272  0.2911764681339264)
(X_273  0.29509803652763367)
(X_274  0.2558823525905609)
(X_275  0.1931372582912445)
(X_276  0.2617647051811218)
(X_277  0.18529412150382996)
(X_278  0.21666668355464935)
(X_279  0.240196093916893)
(X_280  0.40294119715690613)
(X_281  0.3794117867946625)
(X_282  0.2558823525905609)
(X_283  0.2598039209842682)
(X_284  0.28333333134651184)
(X_285  0.39901962876319885)
(X_286  0.3911764919757843)
(X_287  0.3754902184009552)
(X_288  0.3499999940395355)
(X_289  0.37745097279548645)
(X_290  0.36176469922065735)
(X_291  0.41274508833885193)
(X_292  0.44019606709480286)
(X_293  0.42450979351997375)
(X_294  0.45196080207824707)
(X_295  0.4166666567325592)
(X_296  0.45000001788139343)
(X_297  0.36176469922065735)
(X_298  0.44607844948768616)
(X_299  0.41470590233802795)
(X_300  0.41470590233802795)
(X_301  0.4421568810939789)
(X_302  0.4382353127002716)
(X_303  0.31078431010246277)
(X_304  0.2088235467672348)
(X_305  0.22058825194835663)
(X_306  0.240196093916893)
(X_307  0.25196078419685364)
(X_308  0.5049019455909729)
(X_309  0.4852941334247589)
(X_310  0.3656862676143646)
(X_311  0.36176469922065735)
(X_312  0.3696078360080719)
(X_313  0.3735294044017792)
(X_314  0.3696078360080719)
(X_315  0.36176469922065735)
(X_316  0.385294109582901)
(X_317  0.47745099663734436)
(X_318  0.43039217591285706)
(X_319  0.48137256503105164)
(X_320  0.5127450823783875)
(X_321  0.39313724637031555)
(X_322  0.40882351994514465)
(X_323  0.46568629145622253)
(X_324  0.32647058367729187)
(X_325  0.3382352888584137)
(X_326  0.32647058367729187)
(X_327  0.387254923582077)
(X_328  0.387254923582077)
(X_329  0.4225490391254425)
(X_330  0.4421568810939789)
(X_331  0.4382353127002716)
(X_332  0.43039217591285706)
(X_333  0.43431374430656433)
(X_334  0.3382352888584137)
(X_335  0.3382352888584137)
(X_336  0.20490197837352753)
(X_337  0.31666669249534607)
(X_338  0.3245098292827606)
(X_339  0.32058826088905334)
(X_340  0.30490198731422424)
(X_341  0.2970588207244873)
(X_342  0.30098041892051697)
(X_343  0.2088235467672348)
(X_344  0.27156862616539)
(X_345  0.25196078419685364)
(X_346  0.20098040997982025)
(X_347  0.24803923070430756)
(X_348  0.27156862616539)
(X_349  0.23235295712947845)
(X_350  0.2245098203420639)
(X_351  0.2774509787559509)
(X_352  0.2852941155433655)
(X_353  0.30490198731422424)
(X_354  0.30098041892051697)
(X_355  0.2696078419685364)
(X_356  0.2656862735748291)
(X_357  0.30098041892051697)
(X_358  0.3284313976764679)
(X_359  0.3245098292827606)
(X_360  0.29313725233078003)
(X_361  0.18921568989753723)
(X_362  0.18529412150382996)
(X_363  0.18137255311012268)
(X_364  0.114705890417099)
(X_365  0.14215686917304993)
(X_366  0.16960784792900085)
(X_367  0.27352941036224365)
(X_368  0.25784313678741455)
(X_369  0.25)
(X_370  0.1617647111415863)
(X_371  0.1774509847164154)
(X_372  0.15000000596046448)
(X_373  0.1460784375667572)
(X_374  0.11862745881080627)
(X_375  0.2813725471496582)
(X_376  0.1931372582912445)
(X_377  0.12647059559822083)
(X_378  0.10686275362968445)
(X_379  0.05980392172932625)
(X_380  0.07941177487373352)
(X_381  0.10686275362968445)
(X_382  0.10686275362968445)
(X_383  0.0833333432674408)
(X_384  0.0833333432674408)
(X_385  0.11862745881080627)
(X_386  0.2343137264251709)
(X_387  0.22254902124404907)
(X_388  0.2343137264251709)
(X_389  0.22647058963775635)
(X_390  0.2186274528503418)
(X_391  0.2186274528503418)
(X_392  0.15980392694473267)
(X_393  0.17941176891326904)
(X_394  0.10294118523597717)
(X_395  0.21078431606292725)
(X_396  0.20686274766921997)
(X_397  0.20686274766921997)
(X_398  0.21470588445663452)
(X_399  0.12647059559822083)
(X_400  0.2029411792755127)
(X_401  0.11078432202339172)
(X_402  0.19117647409439087)
(X_403  0.2539215683937073)
(X_404  0.25)
(X_405  0.17941176891326904)
(X_406  0.07941177487373352)
(X_407  0.05980392172932625)
(X_408  0.0519607849419117)
(X_409  0.07156863063573837)
(X_410  0.1715686321258545)
(X_411  0.15196079015731812)
(X_412  0.15980392694473267)
(X_413  0.09117648005485535)
(X_414  0.0990196168422699)
(X_415  0.17941176891326904)
(X_416  0.07156863063573837)
(X_417  0.06372549384832382)
(X_418  0.05588235333561897)
(X_419  0.15980392694473267)
(X_420  0.0676470622420311)
(X_421  0.0676470622420311)
(X_422  0.07156863063573837)
(X_423  0.07941177487373352)
(X_424  0.08725491166114807)
(X_425  0.09117648005485535)
(X_426  0.09509804844856262)
(X_427  0.09117648005485535)
(X_428  0.0833333432674408)
(X_429  0.0833333432674408)
(X_430  0.0519607849419117)
(X_431  0.09509804844856262)
(X_432  0.0833333432674408)
(X_433  0.12450980395078659)
(X_434  0.05588235333561897)
(X_435  0.0676470622420311)
(X_436  0.13235294818878174)
(X_437  0.14803922176361084)
(X_438  0.1401960849761963)
(X_439  0.12058823555707932)
(X_440  0.13235294818878174)
(X_441  0.16764706373214722)
(X_442  0.07156863063573837)
(X_443  0.04411764815449715)
(X_444  0.07941177487373352)
(X_445  0.07156863063573837)
(X_446  0.0676470622420311)
(X_447  0.17549020051956177)
(X_448  0.15196079015731812)
(X_449  0.15196079015731812)
(X_450  0.15196079015731812)
(X_451  0.15196079015731812)
(X_452  0.15196079015731812)
(X_453  0.15196079015731812)
(X_454  0.15196079015731812)
(X_455  0.15196079015731812)
(X_456  0.04803921654820442)
(X_457  0.14803922176361084)
(X_458  0.14411765336990356)
(X_459  0.14411765336990356)
(X_460  0.1401960849761963)
(X_461  0.13235294818878174)
(X_462  0.02450980618596077)
(X_463  0.02450980618596077)
(X_464  0.012745101936161518)
(X_465  0.01666666939854622)
(X_466  0.12058823555707932)
(X_467  0.12843137979507446)
(X_468  0.136274516582489)
(X_469  0.04411764815449715)
(X_470  0.15196079015731812)
(X_471  0.15196079015731812)
(X_472  0.14411765336990356)
(X_473  0.14411765336990356)
(X_474  0.14411765336990356)
(X_475  0.14411765336990356)
(X_476  0.036274511367082596)
(X_477  0.036274511367082596)
(X_478  0.136274516582489)
(X_479  0.136274516582489)
(X_480  0.036274511367082596)
(X_481  0.036274511367082596)
(X_482  0.036274511367082596)
(X_483  0.036274511367082596)
(X_484  0.13235294818878174)
(X_485  0.13235294818878174)
(X_486  0.13235294818878174)
(X_487  0.03235294297337532)
(X_488  0.028431374579668045)
(X_489  0.02450980618596077)
(X_490  0.020588237792253494)
(X_491  0.01666666939854622)
(X_492  0.012745101936161518)
(X_493  0.01666666939854622)
(X_494  0.12058823555707932)
(X_495  0.12450980395078659)
(X_496  0.13235294818878174)
(X_497  0.136274516582489)
(X_498  0.1401960849761963)
(X_499  0.04411764815449715)
(X_500  0.136274516582489)
(X_501  0.036274511367082596)
(X_502  0.036274511367082596)
(X_503  0.036274511367082596)
(X_504  0.11666666716337204)
(X_505  0.11666666716337204)
(X_506  0.11666666716337204)
(X_507  0.01666666939854622)
(X_508  0.01666666939854622)
(X_509  0.01666666939854622)
(X_510  0.01666666939854622)
(X_511  0.11666666716337204)
(X_512  0.012745101936161518)
(X_513  0.012745101936161518)
(X_514  0.11666666716337204)
(X_515  0.01666666939854622)
(X_516  0.01666666939854622)
(X_517  0.012745101936161518)
(X_518  0.012745101936161518)
(X_519  0.008823529817163944)
(X_520  0.008823529817163944)
(X_521  0.012745101936161518)
(X_522  0.012745101936161518)
(X_523  0.01666666939854622)
(X_524  0.020588237792253494)
(X_525  0.02450980618596077)
(X_526  0.12450980395078659)
(X_527  0.12843137979507446)
(X_528  0.020588237792253494)
(X_529  0.020588237792253494)
(X_530  0.020588237792253494)
(X_531  0.12058823555707932)
(X_532  0.10490196198225021)
(X_533  0.10490196198225021)
(X_534  0.10490196198225021)
(X_535  0.10490196198225021)
(X_536  0.004901961423456669)
(X_537  0.004901961423456669)
(X_538  0.004901961423456669)
(X_539  0.004901961423456669)
(X_540  -0.0029411755967885256)
(X_541  0.0009803927969187498)
(X_542  0.10490196198225021)
(X_543  0.10882353037595749)
(X_544  0.10882353037595749)
(X_545  0.008823529817163944)
(X_546  0.008823529817163944)
(X_547  0.008823529817163944)
(X_548  0.10490196198225021)
(X_549  0.004901961423456669)
(X_550  0.004901961423456669)
(X_551  0.008823529817163944)
(X_552  0.10882353037595749)
(X_553  0.10882353037595749)
(X_554  0.11274509876966476)
(X_555  0.012745101936161518)
(X_556  0.10882353037595749)
(X_557  0.008823529817163944)
(X_558  0.10882353037595749)
(X_559  0.10882353037595749)
(X_560  0.10098039358854294)
(X_561  0.0009803927969187498)
(X_562  0.10098039358854294)
(X_563  0.10098039358854294)
(X_564  0.10098039358854294)
(X_565  0.0009803927969187498)
(X_566  0.0009803927969187498)
(X_567  0.0009803927969187498)
(X_568  -0.006862743757665157)
(X_569  -0.0029411755967885256)
(X_570  0.10098039358854294)
(X_571  0.004901961423456669)
(X_572  0.008823529817163944)
(X_573  0.008823529817163944)
(X_574  0.008823529817163944)
(X_575  0.008823529817163944)
(X_576  0.0009803927969187498)
(X_577  0.0009803927969187498)
(X_578  0.0009803927969187498)
(X_579  0.0009803927969187498)
(X_580  0.0009803927969187498)
(X_581  0.10098039358854294)
(X_582  0.10098039358854294)
(X_583  0.10098039358854294)
(X_584  0.10490196198225021)
(X_585  0.004901961423456669)
(X_586  0.004901961423456669)
(X_587  0.004901961423456669)
(X_588  0.10098039358854294)
(X_589  0.0009803927969187498)
(X_590  0.0009803927969187498)
(X_591  0.0009803927969187498)
(X_592  0.0009803927969187498)
(X_593  0.0009803927969187498)
(X_594  0.0009803927969187498)
(X_595  0.10098039358854294)
(X_596  0.08921568840742111)
(X_597  0.09313725680112839)
(X_598  -0.0029411755967885256)
(X_599  0.0009803927969187498)
(X_600  0.004901961423456669)
(X_601  0.004901961423456669)
(X_602  0.004901961423456669)
(X_603  0.0009803927969187498)
(X_604  0.09313725680112839)
(X_605  0.09313725680112839)
(X_606  0.09313725680112839)
(X_607  0.09313725680112839)
(X_608  0.09705882519483566)
(X_609  0.09705882519483566)
(X_610  0.09705882519483566)
(X_611  -0.0029411755967885256)
(X_612  0.0009803927969187498)
(X_613  0.0009803927969187498)
(X_614  0.10098039358854294)
(X_615  0.10098039358854294)
(X_616  0.09705882519483566)
(X_617  0.09705882519483566)
(X_618  0.09705882519483566)
(X_619  0.09705882519483566)
(X_620  -0.0029411755967885256)
(X_621  0.09705882519483566)
(X_622  0.09705882519483566)
(X_623  0.09705882519483566)
(X_624  0.08921568840742111)
(X_625  0.08921568840742111)
(X_626  0.09313725680112839)
(X_627  0.09705882519483566)
(X_628  -0.0029411755967885256)
(X_629  -0.0029411755967885256)
(X_630  0.09313725680112839)
(X_631  0.09313725680112839)
(X_632  0.08921568840742111)
(X_633  -0.010784312151372433)
(X_634  -0.010784312151372433)
(X_635  -0.006862743757665157)
(X_636  0.09313725680112839)
(X_637  0.09705882519483566)
(X_638  0.09705882519483566)
(X_639  0.10098039358854294)
(X_640  -0.006862743757665157)
(X_641  -0.006862743757665157)
(X_642  0.09313725680112839)
(X_643  0.09313725680112839)
(X_644  0.09313725680112839)
(X_645  -0.006862743757665157)
(X_646  0.09313725680112839)
(X_647  0.09313725680112839)
(X_648  0.09313725680112839)
(X_649  -0.006862743757665157)
(X_650  -0.006862743757665157)
(X_651  -0.006862743757665157)
(X_652  -0.014705880545079708)
(X_653  -0.010784312151372433)
(X_654  -0.010784312151372433)
(X_655  -0.006862743757665157)
(X_656  -0.006862743757665157)
(X_657  -0.010784312151372433)
(X_658  -0.014705880545079708)
(X_659  -0.014705880545079708)
(X_660  0.08529412001371384)
(X_661  0.08529412001371384)
(X_662  0.08921568840742111)
(X_663  0.08921568840742111)
(X_664  -0.006862743757665157)
(X_665  -0.0029411755967885256)
(X_666  0.0009803927969187498)
(X_667  0.0009803927969187498)
(X_668  -0.010784312151372433)
(X_669  -0.010784312151372433)
(X_670  -0.010784312151372433)
(X_671  -0.010784312151372433)
(X_672  0.08529412001371384)
(X_673  -0.014705880545079708)
(X_674  -0.014705880545079708)
(X_675  -0.014705880545079708)
(X_676  -0.014705880545079708)
(X_677  0.08529412001371384)
(X_678  0.08529412001371384)
(X_679  0.08529412001371384)
(X_680  -0.010784312151372433)
(X_681  -0.010784312151372433)
(X_682  0.08921568840742111)
(X_683  0.08921568840742111)
(X_684  0.08921568840742111)
(X_685  0.08921568840742111)
(X_686  -0.010784312151372433)
(X_687  -0.010784312151372433)
(X_688  0.08529412001371384)
(X_689  0.08921568840742111)
(X_690  -0.010784312151372433)
(X_691  -0.010784312151372433)
(X_692  0.08921568840742111)
(X_693  0.08529412001371384)
(X_694  -0.018627449870109558)
(X_695  -0.022549020126461983)
(X_696  0.08529412001371384)
(X_697  0.08529412001371384)
(X_698  0.08529412001371384)
(X_699  0.08529412001371384)
(X_700  0.08529412001371384)
(X_701  -0.014705880545079708)
(X_702  -0.014705880545079708)
(X_703  -0.014705880545079708)
(X_704  -0.014705880545079708)
(X_705  -0.014705880545079708)
(X_706  -0.014705880545079708)
(X_707  -0.014705880545079708)
(X_708  -0.010784312151372433)
(X_709  -0.010784312151372433)
(X_710  0.08921568840742111)
(X_711  0.08921568840742111)
(X_712  0.08921568840742111)
(X_713  0.08921568840742111)
(X_714  -0.010784312151372433)
(X_715  -0.010784312151372433)
(X_716  0.08921568840742111)
(X_717  -0.010784312151372433)
(X_718  -0.010784312151372433)
(X_719  -0.010784312151372433)
(X_720  0.08529412001371384)
(X_721  0.08529412001371384)
(X_722  0.08137255162000656)
(X_723  0.07745098322629929)
(X_724  0.08529412001371384)
(X_725  0.08529412001371384)
(X_726  0.08529412001371384)
(X_727  0.08529412001371384)
(X_728  0.08529412001371384)
(X_729  -0.014705880545079708)
(X_730  -0.014705880545079708)
(X_731  0.08529412001371384)
(X_732  0.08529412001371384)
(X_733  0.08529412001371384)
(X_734  -0.014705880545079708)
(X_735  -0.014705880545079708)
(X_736  0.08921568840742111)
(X_737  0.08921568840742111)
(X_738  -0.010784312151372433)
(X_739  -0.010784312151372433)
(X_740  0.08921568840742111)
(X_741  0.08921568840742111)
(X_742  0.08921568840742111)
(X_743  0.08921568840742111)
(X_744  -0.010784312151372433)
(X_745  -0.010784312151372433)
(X_746  -0.010784312151372433)
(X_747  -0.014705880545079708)
(X_748  0.08529412001371384)
(X_749  0.08137255162000656)
(X_750  -0.018627449870109558)
(X_751  -0.018627449870109558)
(X_752  0.08529412001371384)
(X_753  0.08529412001371384)
(X_754  0.08529412001371384)
(X_755  0.08529412001371384)
(X_756  0.08529412001371384)
(X_757  -0.014705880545079708)
(X_758  -0.014705880545079708)
(X_759  -0.014705880545079708)
(X_760  -0.014705880545079708)
(X_761  -0.014705880545079708)
(X_762  -0.014705880545079708)
(X_763  0.08529412001371384)
(X_764  0.08921568840742111)
(X_765  -0.010784312151372433)
(X_766  -0.010784312151372433)
(X_767  -0.010784312151372433)
(X_768  -0.010784312151372433)
(X_769  -0.010784312151372433)
(X_770  -0.010784312151372433)
(X_771  -0.010784312151372433)
(X_772  -0.006862743757665157)
(X_773  -0.010784312151372433)
(X_774  -0.014705880545079708)
(X_775  -0.014705880545079708)
(X_776  -0.018627449870109558)
(X_777  -0.018627449870109558)
(X_778  -0.018627449870109558)
(X_779  -0.018627449870109558)
(X_780  -0.014705880545079708)
(X_781  -0.014705880545079708)
(X_782  -0.014705880545079708)
(X_783  -0.014705880545079708)
(Y_0 -31.804752349853516)
(Y_1 42.36140060424805)
(Y_2 -26.67096519470215)
(Y_3 16.96616554260254))