((X_0  1.0499999523162842)
(X_1  0.949999988079071)
(X_2  1.0499999523162842)
(X_3  1.0499999523162842)
(X_4  1.0499999523162842)
(X_5  0.949999988079071)
(X_6  0.949999988079071)
(X_7  0.949999988079071)
(X_8  0.949999988079071)
(X_9  0.949999988079071)
(X_10  1.0499999523162842)
(X_11  1.0499999523162842)
(X_12  0.949999988079071)
(X_13  1.0499999523162842)
(X_14  1.0499999523162842)
(X_15  0.949999988079071)
(X_16  0.949999988079071)
(X_17  0.949999988079071)
(X_18  0.949999988079071)
(X_19  0.949999988079071)
(X_20  1.0460784435272217)
(X_21  1.0421568155288696)
(X_22  1.0421568155288696)
(X_23  0.9421568512916565)
(X_24  1.0421568155288696)
(X_25  1.0421568155288696)
(X_26  0.9421568512916565)
(X_27  1.0421568155288696)
(X_28  1.034313678741455)
(X_29  1.034313678741455)
(X_30  0.9343137145042419)
(X_31  0.9382352828979492)
(X_32  0.9382352828979492)
(X_33  0.9421568512916565)
(X_34  1.0421568155288696)
(X_35  1.0421568155288696)
(X_36  1.0499999523162842)
(X_37  1.0499999523162842)
(X_38  0.9460784196853638)
(X_39  0.9460784196853638)
(X_40  0.9421568512916565)
(X_41  0.9382352828979492)
(X_42  1.034313678741455)
(X_43  0.9343137145042419)
(X_44  1.0303921699523926)
(X_45  1.034313678741455)
(X_46  0.9382352828979492)
(X_47  0.9421568512916565)
(X_48  0.949999988079071)
(X_49  0.949999988079071)
(X_50  0.949999988079071)
(X_51  0.949999988079071)
(X_52  1.0499999523162842)
(X_53  1.0499999523162842)
(X_54  0.949999988079071)
(X_55  1.0499999523162842)
(X_56  1.0499999523162842)
(X_57  0.949999988079071)
(X_58  0.949999988079071)
(X_59  0.949999988079071)
(X_60  0.949999988079071)
(X_61  0.949999988079071)
(X_62  0.949999988079071)
(X_63  0.949999988079071)
(X_64  0.949999988079071)
(X_65  0.949999988079071)
(X_66  0.949999988079071)
(X_67  0.949999988079071)
(X_68  0.949999988079071)
(X_69  0.949999988079071)
(X_70  0.949999988079071)
(X_71  1.0499999523162842)
(X_72  0.949999988079071)
(X_73  0.949999988079071)
(X_74  0.949999988079071)
(X_75  0.949999988079071)
(X_76  1.0460784435272217)
(X_77  1.034313678741455)
(X_78  0.9303921461105347)
(X_79  0.9264705777168274)
(X_80  1.034313678741455)
(X_81  1.034313678741455)
(X_82  0.9343137145042419)
(X_83  1.0382353067398071)
(X_84  1.0460784435272217)
(X_85  1.0460784435272217)
(X_86  1.0460784435272217)
(X_87  1.0460784435272217)
(X_88  0.9460784196853638)
(X_89  0.9460784196853638)
(X_90  0.9421568512916565)
(X_91  0.9421568512916565)
(X_92  0.9225490093231201)
(X_93  0.9225490093231201)
(X_94  0.9264705777168274)
(X_95  1.034313678741455)
(X_96  1.0382353067398071)
(X_97  1.0460784435272217)
(X_98  1.0499999523162842)
(X_99  1.0499999523162842)
(X_100  1.018627405166626)
(X_101  1.022549033164978)
(X_102  1.0303921699523926)
(X_103  0.9421568512916565)
(X_104  0.949999988079071)
(X_105  0.949999988079071)
(X_106  0.949999988079071)
(X_107  0.949999988079071)
(X_108  0.949999988079071)
(X_109  0.949999988079071)
(X_110  0.949999988079071)
(X_111  1.0499999523162842)
(X_112  0.949999988079071)
(X_113  0.949999988079071)
(X_114  1.0499999523162842)
(X_115  0.949999988079071)
(X_116  0.949999988079071)
(X_117  0.949999988079071)
(X_118  0.949999988079071)
(X_119  0.949999988079071)
(X_120  0.949999988079071)
(X_121  0.949999988079071)
(X_122  0.949999988079071)
(X_123  0.949999988079071)
(X_124  0.949999988079071)
(X_125  0.949999988079071)
(X_126  0.949999988079071)
(X_127  0.949999988079071)
(X_128  1.0499999523162842)
(X_129  1.0499999523162842)
(X_130  1.0499999523162842)
(X_131  1.0499999523162842)
(X_132  1.0499999523162842)
(X_133  1.0499999523162842)
(X_134  1.0421568155288696)
(X_135  1.0382353067398071)
(X_136  0.9382352828979492)
(X_137  0.9382352828979492)
(X_138  0.9343137145042419)
(X_139  1.0303921699523926)
(X_140  1.0499999523162842)
(X_141  1.0499999523162842)
(X_142  1.0421568155288696)
(X_143  0.9225490093231201)
(X_144  0.906862735748291)
(X_145  0.8872548937797546)
(X_146  0.8754901885986328)
(X_147  0.9676470756530762)
(X_148  0.9598039388656616)
(X_149  0.9519608020782471)
(X_150  0.936274528503418)
(X_151  0.8166666626930237)
(X_152  0.7970588207244873)
(X_153  0.7774509787559509)
(X_154  0.8617647290229797)
(X_155  0.8539215922355652)
(X_156  0.6950980424880981)
(X_157  0.6833333373069763)
(X_158  0.7637255191802979)
(X_159  0.7323529720306396)
(X_160  0.6931372880935669)
(X_161  0.5539215803146362)
(X_162  0.5186274647712708)
(X_163  0.4990196228027344)
(X_164  0.4166666567325592)
(X_165  0.4166666567325592)
(X_166  0.41274508833885193)
(X_167  0.5088235139846802)
(X_168  0.5401960611343384)
(X_169  0.5284313559532166)
(X_170  0.5088235139846802)
(X_171  0.48137256503105164)
(X_172  0.4539215862751007)
(X_173  0.32647058367729187)
(X_174  0.3068627417087555)
(X_175  0.29509803652763367)
(X_176  0.33235296607017517)
(X_177  0.3245098292827606)
(X_178  0.3127451241016388)
(X_179  0.19705882668495178)
(X_180  0.1774509847164154)
(X_181  0.1617647111415863)
(X_182  0.15000000596046448)
(X_183  0.14215686917304993)
(X_184  0.22647058963775635)
(X_185  0.22647058963775635)
(X_186  0.23039215803146362)
(X_187  0.22647058963775635)
(X_188  0.2186274528503418)
(X_189  0.20686274766921997)
(X_190  0.19509804248809814)
(X_191  0.1872549057006836)
(X_192  0.21470588445663452)
(X_193  0.114705890417099)
(X_194  0.114705890417099)
(X_195  0.114705890417099)
(X_196  0.1303921639919281)
(X_197  0.23039215803146362)
(X_198  0.12647059559822083)
(X_199  0.11862745881080627)
(X_200  0.114705890417099)
(X_201  0.21078431606292725)
(X_202  0.20686274766921997)
(X_203  0.10294118523597717)
(X_204  0.11862745881080627)
(X_205  0.2186274528503418)
(X_206  0.2186274528503418)
(X_207  0.2186274528503418)
(X_208  0.11862745881080627)
(X_209  0.11862745881080627)
(X_210  0.11862745881080627)
(X_211  0.11862745881080627)
(X_212  0.21470588445663452)
(X_213  0.2186274528503418)
(X_214  0.12647059559822083)
(X_215  0.1303921639919281)
(X_216  0.1303921639919281)
(X_217  0.22254902124404907)
(X_218  0.21470588445663452)
(X_219  0.21078431606292725)
(X_220  0.2029411792755127)
(X_221  0.2029411792755127)
(X_222  0.20686274766921997)
(X_223  0.21470588445663452)
(X_224  0.11862745881080627)
(X_225  0.114705890417099)
(X_226  0.21078431606292725)
(X_227  0.2029411792755127)
(X_228  0.19901961088180542)
(X_229  0.0990196168422699)
(X_230  0.0990196168422699)
(X_231  0.0990196168422699)
(X_232  0.2186274528503418)
(X_233  0.114705890417099)
(X_234  0.11078432202339172)
(X_235  0.21078431606292725)
(X_236  0.11078432202339172)
(X_237  0.11078432202339172)
(X_238  0.10686275362968445)
(X_239  0.10294118523597717)
(X_240  0.13823530077934265)
(X_241  0.11862745881080627)
(X_242  0.19117647409439087)
(X_243  0.17941176891326904)
(X_244  0.17941176891326904)
(X_245  0.19117647409439087)
(X_246  0.2029411792755127)
(X_247  0.20686274766921997)
(X_248  0.0990196168422699)
(X_249  0.0990196168422699)
(X_250  0.10294118523597717)
(X_251  0.10686275362968445)
(X_252  0.0990196168422699)
(X_253  0.0990196168422699)
(X_254  0.2029411792755127)
(X_255  0.10686275362968445)
(X_256  0.20686274766921997)
(X_257  0.20686274766921997)
(X_258  0.20686274766921997)
(X_259  0.10686275362968445)
(X_260  0.0833333432674408)
(X_261  0.08725491166114807)
(X_262  0.09117648005485535)
(X_263  0.10294118523597717)
(X_264  0.11862745881080627)
(X_265  0.12647059559822083)
(X_266  0.22647058963775635)
(X_267  0.22254902124404907)
(X_268  0.22647058963775635)
(X_269  0.2186274528503418)
(X_270  0.21078431606292725)
(X_271  0.21078431606292725)
(X_272  0.21470588445663452)
(X_273  0.21078431606292725)
(X_274  0.2029411792755127)
(X_275  0.09509804844856262)
(X_276  0.20686274766921997)
(X_277  0.21078431606292725)
(X_278  0.114705890417099)
(X_279  0.11862745881080627)
(X_280  0.17549020051956177)
(X_281  0.18333333730697632)
(X_282  0.19509804248809814)
(X_283  0.10294118523597717)
(X_284  0.10686275362968445)
(X_285  0.2029411792755127)
(X_286  0.19901961088180542)
(X_287  0.19509804248809814)
(X_288  0.10294118523597717)
(X_289  0.1460784375667572)
(X_290  0.18137255311012268)
(X_291  0.25784313678741455)
(X_292  0.10294118523597717)
(X_293  0.07156863063573837)
(X_294  0.09509804844856262)
(X_295  0.23039215803146362)
(X_296  0.19901961088180542)
(X_297  0.0990196168422699)
(X_298  0.09509804844856262)
(X_299  0.10294118523597717)
(X_300  0.114705890417099)
(X_301  0.2186274528503418)
(X_302  0.21470588445663452)
(X_303  0.10686275362968445)
(X_304  0.12254902720451355)
(X_305  0.12254902720451355)
(X_306  0.12647059559822083)
(X_307  0.22647058963775635)
(X_308  0.19901961088180542)
(X_309  0.10686275362968445)
(X_310  0.114705890417099)
(X_311  0.12254902720451355)
(X_312  0.11862745881080627)
(X_313  0.21078431606292725)
(X_314  0.19509804248809814)
(X_315  0.18333333730697632)
(X_316  0.17549020051956177)
(X_317  0.14803922176361084)
(X_318  0.13235294818878174)
(X_319  0.1558823585510254)
(X_320  0.0990196168422699)
(X_321  0.12254902720451355)
(X_322  0.10686275362968445)
(X_323  0.07941177487373352)
(X_324  0.21470588445663452)
(X_325  0.10294118523597717)
(X_326  0.09117648005485535)
(X_327  0.08725491166114807)
(X_328  0.19901961088180542)
(X_329  0.21078431606292725)
(X_330  0.2186274528503418)
(X_331  0.22254902124404907)
(X_332  0.07156863063573837)
(X_333  0.07156863063573837)
(X_334  0.0676470622420311)
(X_335  0.06372549384832382)
(X_336  0.2617647051811218)
(X_337  0.2656862735748291)
(X_338  0.27352941036224365)
(X_339  0.2696078419685364)
(X_340  0.25784313678741455)
(X_341  0.23823529481887817)
(X_342  0.21470588445663452)
(X_343  0.0990196168422699)
(X_344  0.21470588445663452)
(X_345  0.23039215803146362)
(X_346  0.13431373238563538)
(X_347  0.11862745881080627)
(X_348  0.09117648005485535)
(X_349  0.07549020648002625)
(X_350  0.08725491166114807)
(X_351  0.2029411792755127)
(X_352  0.18333333730697632)
(X_353  0.17941176891326904)
(X_354  0.17549020051956177)
(X_355  0.0833333432674408)
(X_356  0.19509804248809814)
(X_357  0.20686274766921997)
(X_358  0.21078431606292725)
(X_359  0.11078432202339172)
(X_360  0.2617647051811218)
(X_361  0.25784313678741455)
(X_362  0.15000000596046448)
(X_363  0.13823530077934265)
(X_364  0.5245097875595093)
(X_365  0.5284313559532166)
(X_366  0.5284313559532166)
(X_367  0.42450979351997375)
(X_368  0.5088235139846802)
(X_369  0.4852941334247589)
(X_370  0.36176469922065735)
(X_371  0.34607842564582825)
(X_372  0.26372548937797546)
(X_373  0.39901962876319885)
(X_374  0.41470590233802795)
(X_375  0.36764708161354065)
(X_376  0.18137255311012268)
(X_377  0.12254902720451355)
(X_378  0.12647059559822083)
(X_379  0.15392157435417175)
(X_380  0.20490197837352753)
(X_381  0.31666669249534607)
(X_382  0.344117671251297)
(X_383  0.3794117867946625)
(X_384  0.31470587849617004)
(X_385  0.3343137204647064)
(X_386  0.4382353127002716)
(X_387  0.43431374430656433)
(X_388  0.43431374430656433)
(X_389  0.4264706075191498)
(X_390  0.31470587849617004)
(X_391  0.3029411733150482)
(X_392  0.4892157018184662)
(X_393  0.49313727021217346)
(X_394  0.3970588147640228)
(X_395  0.3970588147640228)
(X_396  0.4852941334247589)
(X_397  0.4696078598499298)
(X_398  0.4539215862751007)
(X_399  0.34607842564582825)
(X_400  0.31078431010246277)
(X_401  0.25196078419685364)
(X_402  0.22843138873577118)
(X_403  0.39901962876319885)
(X_404  0.41274508833885193)
(X_405  0.4480392038822174)
(X_406  0.3696078360080719)
(X_407  0.27156862616539)
(X_408  0.36764708161354065)
(X_409  0.36764708161354065)
(X_410  0.36764708161354065)
(X_411  0.3794117867946625)
(X_412  0.39901962876319885)
(X_413  0.3186274468898773)
(X_414  0.33039215207099915)
(X_415  0.43431374430656433)
(X_416  0.43431374430656433)
(X_417  0.32647058367729187)
(X_418  0.31470587849617004)
(X_419  0.3068627417087555)
(X_420  0.3950980603694916)
(X_421  0.29901960492134094)
(X_422  0.3068627417087555)
(X_423  0.31078431010246277)
(X_424  0.31078431010246277)
(X_425  0.40294119715690613)
(X_426  0.3950980603694916)
(X_427  0.3911764919757843)
(X_428  0.2754901945590973)
(X_429  0.34215685725212097)
(X_430  0.4362744987010956)
(X_431  0.5107843279838562)
(X_432  0.550000011920929)
(X_433  0.5656862854957581)
(X_434  0.5696078538894653)
(X_435  0.5735294222831726)
(X_436  0.5637255311012268)
(X_437  0.5166666507720947)
(X_438  0.44607844948768616)
(X_439  0.387254923582077)
(X_440  0.3558823764324188)
(X_441  0.3558823764324188)
(X_442  0.26764705777168274)
(X_443  0.27941176295280457)
(X_444  0.28333333134651184)
(X_445  0.2754901945590973)
(X_446  0.26764705777168274)
(X_447  0.2598039209842682)
(X_448  0.387254923582077)
(X_449  0.24803923070430756)
(X_450  0.21666668355464935)
(X_451  0.22058825194835663)
(X_452  0.23235295712947845)
(X_453  0.3558823764324188)
(X_454  0.40294119715690613)
(X_455  0.4539215862751007)
(X_456  0.5990196466445923)
(X_457  0.6107843518257141)
(X_458  0.5833333730697632)
(X_459  0.5323529243469238)
(X_460  0.4480392038822174)
(X_461  0.5029411911964417)
(X_462  0.4990196228027344)
(X_463  0.4480392038822174)
(X_464  0.4598039388656616)
(X_465  0.479411780834198)
(X_466  0.5813725590705872)
(X_467  0.6774510145187378)
(X_468  0.4696078598499298)
(X_469  0.3284313976764679)
(X_470  0.3558823764324188)
(X_471  0.4068627655506134)
(X_472  0.4225490391254425)
(X_473  0.387254923582077)
(X_474  0.35196080803871155)
(X_475  0.344117671251297)
(X_476  0.3186274468898773)
(X_477  0.26764705777168274)
(X_478  0.3245098292827606)
(X_479  0.3284313976764679)
(X_480  0.27941176295280457)
(X_481  0.36176469922065735)
(X_482  0.47156864404678345)
(X_483  0.6617647409439087)
(X_484  0.5284313559532166)
(X_485  0.5558823943138123)
(X_486  0.4480392038822174)
(X_487  0.4166666567325592)
(X_488  0.4362744987010956)
(X_489  0.48725491762161255)
(X_490  0.48725491762161255)
(X_491  0.44411763548851013)
(X_492  0.46764707565307617)
(X_493  0.5284313559532166)
(X_494  0.5637255311012268)
(X_495  0.638235330581665)
(X_496  0.6578431725502014)
(X_497  0.6460784673690796)
(X_498  0.6303921937942505)
(X_499  0.5107843279838562)
(X_500  0.5794118046760559)
(X_501  0.4598039388656616)
(X_502  0.4323529303073883)
(X_503  0.40882351994514465)
(X_504  0.5598039627075195)
(X_505  0.47156864404678345)
(X_506  0.5029411911964417)
(X_507  0.5264706015586853)
(X_508  0.5186274647712708)
(X_509  0.5715686678886414)
(X_510  0.5284313559532166)
(X_511  0.5088235139846802)
(X_512  0.3696078360080719)
(X_513  0.551960825920105)
(X_514  0.6186274886131287)
(X_515  0.5264706015586853)
(X_516  0.5147058963775635)
(X_517  0.4833333492279053)
(X_518  0.3970588147640228)
(X_519  0.3029411733150482)
(X_520  0.29509803652763367)
(X_521  0.3029411733150482)
(X_522  0.2872548997402191)
(X_523  0.28333333134651184)
(X_524  0.31078431010246277)
(X_525  0.40294119715690613)
(X_526  0.3754902184009552)
(X_527  0.3794117867946625)
(X_528  0.4068627655506134)
(X_529  0.3499999940395355)
(X_530  0.4009803831577301)
(X_531  0.42450979351997375)
(X_532  0.48137256503105164)
(X_533  0.4852941334247589)
(X_534  0.4892157018184662)
(X_535  0.48137256503105164)
(X_536  0.4539215862751007)
(X_537  0.4068627655506134)
(X_538  0.26372548937797546)
(X_539  0.240196093916893)
(X_540  0.2872548997402191)
(X_541  0.4225490391254425)
(X_542  0.4225490391254425)
(X_543  0.38333335518836975)
(X_544  0.24411766231060028)
(X_545  0.22843138873577118)
(X_546  0.18921568989753723)
(X_547  0.14215686917304993)
(X_548  0.2343137264251709)
(X_549  0.2245098203420639)
(X_550  0.20490197837352753)
(X_551  0.13431373238563538)
(X_552  0.23039215803146362)
(X_553  0.22254902124404907)
(X_554  0.1303921639919281)
(X_555  0.1931372582912445)
(X_556  0.24607843160629272)
(X_557  0.20490197837352753)
(X_558  0.3754902184009552)
(X_559  0.41470590233802795)
(X_560  0.41470590233802795)
(X_561  0.29901960492134094)
(X_562  0.26764705777168274)
(X_563  0.24411766231060028)
(X_564  0.23627452552318573)
(X_565  0.24803923070430756)
(X_566  0.26764705777168274)
(X_567  0.2754901945590973)
(X_568  0.23235295712947845)
(X_569  0.3598039448261261)
(X_570  0.3598039448261261)
(X_571  0.22843138873577118)
(X_572  0.21666668355464935)
(X_573  0.2245098203420639)
(X_574  0.22058825194835663)
(X_575  0.20098040997982025)
(X_576  0.23823529481887817)
(X_577  0.18529412150382996)
(X_578  0.13431373238563538)
(X_579  0.18333333730697632)
(X_580  0.25)
(X_581  0.28921568393707275)
(X_582  0.2774509787559509)
(X_583  0.2970588207244873)
(X_584  0.2970588207244873)
(X_585  0.18921568989753723)
(X_586  0.2774509787559509)
(X_587  0.16568627953529358)
(X_588  0.2813725471496582)
(X_589  0.19705882668495178)
(X_590  0.20098040997982025)
(X_591  0.18529412150382996)
(X_592  0.16960784792900085)
(X_593  0.15392157435417175)
(X_594  0.1303921639919281)
(X_595  0.2029411792755127)
(X_596  0.18333333730697632)
(X_597  0.2343137264251709)
(X_598  0.18137255311012268)
(X_599  0.2088235467672348)
(X_600  0.22058825194835663)
(X_601  0.21666668355464935)
(X_602  0.1774509847164154)
(X_603  0.13823530077934265)
(X_604  0.2343137264251709)
(X_605  0.23039215803146362)
(X_606  0.17549020051956177)
(X_607  0.14411765336990356)
(X_608  0.1872549057006836)
(X_609  0.2186274528503418)
(X_610  0.2029411792755127)
(X_611  0.18333333730697632)
(X_612  0.15000000596046448)
(X_613  0.12254902720451355)
(X_614  0.19509804248809814)
(X_615  0.17941176891326904)
(X_616  0.23823529481887817)
(X_617  0.24215686321258545)
(X_618  0.12254902720451355)
(X_619  0.09117648005485535)
(X_620  0.08725491166114807)
(X_621  0.21078431606292725)
(X_622  0.22254902124404907)
(X_623  0.2186274528503418)
(X_624  0.22254902124404907)
(X_625  0.21470588445663452)
(X_626  0.19901961088180542)
(X_627  0.09509804844856262)
(X_628  0.114705890417099)
(X_629  0.14215686917304993)
(X_630  0.15000000596046448)
(X_631  0.14215686917304993)
(X_632  0.19901961088180542)
(X_633  0.07941177487373352)
(X_634  0.0833333432674408)
(X_635  0.0833333432674408)
(X_636  0.07156863063573837)
(X_637  0.19509804248809814)
(X_638  0.22254902124404907)
(X_639  0.11078432202339172)
(X_640  0.07156863063573837)
(X_641  0.07156863063573837)
(X_642  0.18333333730697632)
(X_643  0.19509804248809814)
(X_644  0.19901961088180542)
(X_645  0.11078432202339172)
(X_646  0.19901961088180542)
(X_647  0.1715686321258545)
(X_648  0.16372549533843994)
(X_649  0.07549020648002625)
(X_650  0.17549020051956177)
(X_651  0.1558823585510254)
(X_652  0.16372549533843994)
(X_653  0.16764706373214722)
(X_654  0.07156863063573837)
(X_655  0.08725491166114807)
(X_656  0.11078432202339172)
(X_657  0.11862745881080627)
(X_658  0.09509804844856262)
(X_659  0.0676470622420311)
(X_660  0.19901961088180542)
(X_661  0.12450980395078659)
(X_662  0.13235294818878174)
(X_663  0.16372549533843994)
(X_664  0.04411764815449715)
(X_665  0.16372549533843994)
(X_666  0.17941176891326904)
(X_667  0.02450980618596077)
(X_668  0.07156863063573837)
(X_669  0.0676470622420311)
(X_670  0.16372549533843994)
(X_671  0.05588235333561897)
(X_672  0.16764706373214722)
(X_673  0.0676470622420311)
(X_674  0.0676470622420311)
(X_675  0.0676470622420311)
(X_676  0.0676470622420311)
(X_677  0.16764706373214722)
(X_678  0.16764706373214722)
(X_679  0.0676470622420311)
(X_680  0.0676470622420311)
(X_681  0.16372549533843994)
(X_682  0.06372549384832382)
(X_683  0.0676470622420311)
(X_684  0.07549020648002625)
(X_685  0.07549020648002625)
(X_686  0.07156863063573837)
(X_687  0.06372549384832382)
(X_688  0.1558823585510254)
(X_689  0.0519607849419117)
(X_690  0.04803921654820442)
(X_691  0.04803921654820442)
(X_692  0.1558823585510254)
(X_693  0.15980392694473267)
(X_694  0.05588235333561897)
(X_695  0.14803922176361084)
(X_696  0.1558823585510254)
(X_697  0.1558823585510254)
(X_698  0.1558823585510254)
(X_699  0.1558823585510254)
(X_700  0.15980392694473267)
(X_701  0.05980392172932625)
(X_702  0.15980392694473267)
(X_703  0.15980392694473267)
(X_704  0.05980392172932625)
(X_705  0.05980392172932625)
(X_706  0.05980392172932625)
(X_707  0.05980392172932625)
(X_708  0.05588235333561897)
(X_709  0.1558823585510254)
(X_710  0.15196079015731812)
(X_711  0.05980392172932625)
(X_712  0.16764706373214722)
(X_713  0.0676470622420311)
(X_714  0.06372549384832382)
(X_715  0.05588235333561897)
(X_716  0.15196079015731812)
(X_717  0.14803922176361084)
(X_718  0.04411764815449715)
(X_719  0.04411764815449715)
(X_720  0.15196079015731812)
(X_721  0.1558823585510254)
(X_722  0.15196079015731812)
(X_723  0.14411765336990356)
(X_724  0.14803922176361084)
(X_725  0.14803922176361084)
(X_726  0.14803922176361084)
(X_727  0.14803922176361084)
(X_728  0.15196079015731812)
(X_729  0.0519607849419117)
(X_730  0.15196079015731812)
(X_731  0.15196079015731812)
(X_732  0.15196079015731812)
(X_733  0.15196079015731812)
(X_734  0.15196079015731812)
(X_735  0.15196079015731812)
(X_736  0.14803922176361084)
(X_737  0.14411765336990356)
(X_738  0.04411764815449715)
(X_739  0.04803921654820442)
(X_740  0.05588235333561897)
(X_741  0.05980392172932625)
(X_742  0.05588235333561897)
(X_743  0.04803921654820442)
(X_744  0.04803921654820442)
(X_745  0.04411764815449715)
(X_746  0.136274516582489)
(X_747  0.04019607976078987)
(X_748  0.04411764815449715)
(X_749  0.04803921654820442)
(X_750  0.04411764815449715)
(X_751  0.036274511367082596)
(X_752  0.1401960849761963)
(X_753  0.1401960849761963)
(X_754  0.1401960849761963)
(X_755  0.1401960849761963)
(X_756  0.14803922176361084)
(X_757  0.14803922176361084)
(X_758  0.14803922176361084)
(X_759  0.14803922176361084)
(X_760  0.04803921654820442)
(X_761  0.04803921654820442)
(X_762  0.04803921654820442)
(X_763  0.04803921654820442)
(X_764  0.04019607976078987)
(X_765  0.136274516582489)
(X_766  0.04019607976078987)
(X_767  0.04411764815449715)
(X_768  0.05588235333561897)
(X_769  0.05588235333561897)
(X_770  0.0519607849419117)
(X_771  0.04411764815449715)
(X_772  0.04411764815449715)
(X_773  0.04019607976078987)
(X_774  0.03235294297337532)
(X_775  0.036274511367082596)
(X_776  0.1401960849761963)
(X_777  0.1401960849761963)
(X_778  0.136274516582489)
(X_779  0.12843137979507446)
(X_780  0.036274511367082596)
(X_781  0.036274511367082596)
(X_782  0.036274511367082596)
(X_783  0.136274516582489)
(Y_0 -22.155426025390625)
(Y_1 16.05142593383789)
(Y_2 -18.307634353637695)
(Y_3 25.812835693359375))