((X_0  0.8284313678741455)
(X_1  0.8245097994804382)
(X_2  0.8323529362678528)
(X_3  0.8519607782363892)
(X_4  0.8558823466300964)
(X_5  0.8441176414489746)
(X_6  0.9401960968971252)
(X_7  0.9519608020782471)
(X_8  0.9715686440467834)
(X_9  0.9715686440467834)
(X_10  0.9715686440467834)
(X_11  0.979411780834198)
(X_12  0.9833333492279053)
(X_13  0.9950980544090271)
(X_14  0.9029411673545837)
(X_15  0.906862735748291)
(X_16  0.8950980305671692)
(X_17  0.906862735748291)
(X_18  0.9147058725357056)
(X_19  0.9147058725357056)
(X_20  0.9107843041419983)
(X_21  0.9147058725357056)
(X_22  1.0303921699523926)
(X_23  1.0421568155288696)
(X_24  0.9225490093231201)
(X_25  0.9264705777168274)
(X_26  0.9343137145042419)
(X_27  0.9421568512916565)
(X_28  0.2343137264251709)
(X_29  0.1303921639919281)
(X_30  0.14215686917304993)
(X_31  0.2696078419685364)
(X_32  0.2813725471496582)
(X_33  0.18137255311012268)
(X_34  0.18529412150382996)
(X_35  0.20098040997982025)
(X_36  0.21274511516094208)
(X_37  0.21274511516094208)
(X_38  0.31666669249534607)
(X_39  0.32058826088905334)
(X_40  0.3284313976764679)
(X_41  0.33235296607017517)
(X_42  0.33627453446388245)
(X_43  0.3401961028575897)
(X_44  0.3558823764324188)
(X_45  0.36764708161354065)
(X_46  0.27941176295280457)
(X_47  0.38333335518836975)
(X_48  0.387254923582077)
(X_49  0.3911764919757843)
(X_50  0.4068627655506134)
(X_51  0.4225490391254425)
(X_52  0.43431374430656433)
(X_53  0.4421568810939789)
(X_54  0.45000001788139343)
(X_55  0.3578431308269501)
(X_56  0.12058823555707932)
(X_57  0.10882353037595749)
(X_58  0.012745101936161518)
(X_59  0.12450980395078659)
(X_60  0.12843137979507446)
(X_61  0.01666666939854622)
(X_62  0.020588237792253494)
(X_63  0.03235294297337532)
(X_64  0.02450980618596077)
(X_65  0.02450980618596077)
(X_66  0.12843137979507446)
(X_67  0.13235294818878174)
(X_68  0.13235294818878174)
(X_69  0.13235294818878174)
(X_70  0.12843137979507446)
(X_71  0.12843137979507446)
(X_72  0.12058823555707932)
(X_73  0.028431374579668045)
(X_74  0.03235294297337532)
(X_75  0.028431374579668045)
(X_76  0.020588237792253494)
(X_77  0.12058823555707932)
(X_78  0.12450980395078659)
(X_79  0.12843137979507446)
(X_80  0.12843137979507446)
(X_81  0.12843137979507446)
(X_82  0.136274516582489)
(X_83  0.1401960849761963)
(X_84  0.04803921654820442)
(X_85  0.03235294297337532)
(X_86  0.028431374579668045)
(X_87  0.036274511367082596)
(X_88  0.12843137979507446)
(X_89  0.11666666716337204)
(X_90  0.11274509876966476)
(X_91  0.12450980395078659)
(X_92  0.13235294818878174)
(X_93  0.136274516582489)
(X_94  0.136274516582489)
(X_95  0.1401960849761963)
(X_96  0.136274516582489)
(X_97  0.13235294818878174)
(X_98  0.028431374579668045)
(X_99  0.02450980618596077)
(X_100  0.04019607976078987)
(X_101  0.04019607976078987)
(X_102  0.04019607976078987)
(X_103  0.04019607976078987)
(X_104  0.13235294818878174)
(X_105  0.12843137979507446)
(X_106  0.12450980395078659)
(X_107  0.12450980395078659)
(X_108  0.036274511367082596)
(X_109  0.036274511367082596)
(X_110  0.13235294818878174)
(X_111  0.028431374579668045)
(X_112  0.10490196198225021)
(X_113  0.09705882519483566)
(X_114  0.10098039358854294)
(X_115  0.11666666716337204)
(X_116  0.12450980395078659)
(X_117  0.11666666716337204)
(X_118  0.12058823555707932)
(X_119  0.036274511367082596)
(X_120  -0.006862743757665157)
(X_121  0.09705882519483566)
(X_122  -0.0029411755967885256)
(X_123  0.10098039358854294)
(X_124  0.10490196198225021)
(X_125  0.10490196198225021)
(X_126  0.004901961423456669)
(X_127  0.004901961423456669)
(X_128  0.004901961423456669)
(X_129  0.008823529817163944)
(X_130  0.11274509876966476)
(X_131  0.020588237792253494)
(X_132  0.12843137979507446)
(X_133  0.028431374579668045)
(X_134  0.028431374579668045)
(X_135  0.02450980618596077)
(X_136  0.13235294818878174)
(X_137  0.13235294818878174)
(X_138  0.12843137979507446)
(X_139  0.020588237792253494)
(X_140  0.11666666716337204)
(X_141  0.008823529817163944)
(X_142  0.01666666939854622)
(X_143  0.136274516582489)
(X_144  0.136274516582489)
(X_145  0.12450980395078659)
(X_146  0.020588237792253494)
(X_147  0.028431374579668045)
(X_148  0.12843137979507446)
(X_149  0.028431374579668045)
(X_150  0.02450980618596077)
(X_151  0.12450980395078659)
(X_152  0.12450980395078659)
(X_153  0.12450980395078659)
(X_154  0.028431374579668045)
(X_155  0.13235294818878174)
(X_156  0.008823529817163944)
(X_157  0.10882353037595749)
(X_158  0.10882353037595749)
(X_159  0.012745101936161518)
(X_160  0.11666666716337204)
(X_161  0.11274509876966476)
(X_162  0.10098039358854294)
(X_163  0.08921568840742111)
(X_164  0.10098039358854294)
(X_165  0.09705882519483566)
(X_166  0.09705882519483566)
(X_167  0.09313725680112839)
(X_168  0.1774509847164154)
(X_169  0.16960784792900085)
(X_170  0.18137255311012268)
(X_171  0.19705882668495178)
(X_172  0.1931372582912445)
(X_173  0.16960784792900085)
(X_174  0.15392157435417175)
(X_175  0.15392157435417175)
(X_176  0.08725491166114807)
(X_177  0.07549020648002625)
(X_178  0.0519607849419117)
(X_179  0.12450980395078659)
(X_180  0.10490196198225021)
(X_181  0.08921568840742111)
(X_182  -0.014705880545079708)
(X_183  0.08529412001371384)
(X_184  0.03235294297337532)
(X_185  0.028431374579668045)
(X_186  0.028431374579668045)
(X_187  0.036274511367082596)
(X_188  0.14411765336990356)
(X_189  0.14411765336990356)
(X_190  0.12843137979507446)
(X_191  0.11666666716337204)
(X_192  0.14411765336990356)
(X_193  0.1401960849761963)
(X_194  0.13235294818878174)
(X_195  0.12450980395078659)
(X_196  0.344117671251297)
(X_197  0.3480392396450043)
(X_198  0.36764708161354065)
(X_199  0.39901962876319885)
(X_200  0.3068627417087555)
(X_201  0.2872548997402191)
(X_202  0.27941176295280457)
(X_203  0.27941176295280457)
(X_204  0.29509803652763367)
(X_205  0.26764705777168274)
(X_206  0.22058825194835663)
(X_207  0.16960784792900085)
(X_208  0.12254902720451355)
(X_209  0.09117648005485535)
(X_210  0.1715686321258545)
(X_211  0.16372549533843994)
(X_212  0.23039215803146362)
(X_213  0.23823529481887817)
(X_214  0.2539215683937073)
(X_215  0.2852941155433655)
(X_216  0.32058826088905334)
(X_217  0.24411766231060028)
(X_218  0.24411766231060028)
(X_219  0.23627452552318573)
(X_220  0.2813725471496582)
(X_221  0.2696078419685364)
(X_222  0.15784314274787903)
(X_223  0.13823530077934265)
(X_224  0.3284313976764679)
(X_225  0.23627452552318573)
(X_226  0.240196093916893)
(X_227  0.33627453446388245)
(X_228  0.23627452552318573)
(X_229  0.23627452552318573)
(X_230  0.24803923070430756)
(X_231  0.2558823525905609)
(X_232  0.344117671251297)
(X_233  0.3480392396450043)
(X_234  0.3480392396450043)
(X_235  0.3401961028575897)
(X_236  0.33235296607017517)
(X_237  0.3284313976764679)
(X_238  0.3284313976764679)
(X_239  0.33235296607017517)
(X_240  0.35196080803871155)
(X_241  0.2558823525905609)
(X_242  0.2558823525905609)
(X_243  0.2558823525905609)
(X_244  0.25196078419685364)
(X_245  0.25196078419685364)
(X_246  0.3637255132198334)
(X_247  0.27156862616539)
(X_248  0.3715686500072479)
(X_249  0.27156862616539)
(X_250  0.27156862616539)
(X_251  0.3715686500072479)
(X_252  0.2813725471496582)
(X_253  0.2813725471496582)
(X_254  0.18529412150382996)
(X_255  0.2813725471496582)
(X_256  0.27352941036224365)
(X_257  0.27352941036224365)
(X_258  0.2813725471496582)
(X_259  0.18921568989753723)
(X_260  0.21274511516094208)
(X_261  0.3088235557079315)
(X_262  0.20098040997982025)
(X_263  0.29313725233078003)
(X_264  0.2852941155433655)
(X_265  0.2852941155433655)
(X_266  0.28921568393707275)
(X_267  0.2970588207244873)
(X_268  0.18529412150382996)
(X_269  0.18921568989753723)
(X_270  0.19705882668495178)
(X_271  0.2088235467672348)
(X_272  0.22058825194835663)
(X_273  0.22843138873577118)
(X_274  0.23627452552318573)
(X_275  0.240196093916893)
(X_276  0.23627452552318573)
(X_277  0.23627452552318573)
(X_278  0.33627453446388245)
(X_279  0.3401961028575897)
(X_280  0.3656862676143646)
(X_281  0.3735294044017792)
(X_282  0.385294109582901)
(X_283  0.39313724637031555)
(X_284  0.3970588147640228)
(X_285  0.5088235139846802)
(X_286  0.5245097875595093)
(X_287  0.4362744987010956)
(X_288  0.5401960611343384)
(X_289  0.520588219165802)
(X_290  0.4852941334247589)
(X_291  0.4421568810939789)
(X_292  0.40294119715690613)
(X_293  0.3715686500072479)
(X_294  0.24803923070430756)
(X_295  0.240196093916893)
(X_296  0.30490198731422424)
(X_297  0.2970588207244873)
(X_298  0.28921568393707275)
(X_299  0.1931372582912445)
(X_300  0.20098040997982025)
(X_301  0.19705882668495178)
(X_302  0.18137255311012268)
(X_303  0.16568627953529358)
(X_304  0.35196080803871155)
(X_305  0.24411766231060028)
(X_306  0.22843138873577118)
(X_307  0.32058826088905334)
(X_308  0.3578431308269501)
(X_309  0.3656862676143646)
(X_310  0.37745097279548645)
(X_311  0.385294109582901)
(X_312  0.39313724637031555)
(X_313  0.4049019515514374)
(X_314  0.4205882251262665)
(X_315  0.5323529243469238)
(X_316  0.48725491762161255)
(X_317  0.48725491762161255)
(X_318  0.4833333492279053)
(X_319  0.48725491762161255)
(X_320  0.5872549414634705)
(X_321  0.5872549414634705)
(X_322  0.5794118046760559)
(X_323  0.5754902362823486)
(X_324  0.4637255072593689)
(X_325  0.5480391979217529)
(X_326  0.5362744927406311)
(X_327  0.4362744987010956)
(X_328  0.44411763548851013)
(X_329  0.4323529303073883)
(X_330  0.4049019515514374)
(X_331  0.37745097279548645)
(X_332  0.39901962876319885)
(X_333  0.3950980603694916)
(X_334  0.38333335518836975)
(X_335  0.36764708161354065)
(X_336  0.30098041892051697)
(X_337  0.30490198731422424)
(X_338  0.20098040997982025)
(X_339  0.18921568989753723)
(X_340  0.2774509787559509)
(X_341  0.2696078419685364)
(X_342  0.27352941036224365)
(X_343  0.1774509847164154)
(X_344  0.2617647051811218)
(X_345  0.27352941036224365)
(X_346  0.2970588207244873)
(X_347  0.23627452552318573)
(X_348  0.36764708161354065)
(X_349  0.387254923582077)
(X_350  0.38333335518836975)
(X_351  0.2754901945590973)
(X_352  0.29901960492134094)
(X_353  0.2911764681339264)
(X_354  0.2911764681339264)
(X_355  0.31078431010246277)
(X_356  0.3382352888584137)
(X_357  0.34607842564582825)
(X_358  0.33039215207099915)
(X_359  0.4107843339443207)
(X_360  0.45000001788139343)
(X_361  0.3578431308269501)
(X_362  0.3735294044017792)
(X_363  0.4852941334247589)
(X_364  0.15000000596046448)
(X_365  0.15000000596046448)
(X_366  0.15000000596046448)
(X_367  0.23823529481887817)
(X_368  0.22647058963775635)
(X_369  0.22254902124404907)
(X_370  0.22254902124404907)
(X_371  0.23039215803146362)
(X_372  0.11862745881080627)
(X_373  0.11862745881080627)
(X_374  0.22254902124404907)
(X_375  0.2343137264251709)
(X_376  0.24215686321258545)
(X_377  0.2343137264251709)
(X_378  0.20686274766921997)
(X_379  0.18333333730697632)
(X_380  0.11078432202339172)
(X_381  0.11078432202339172)
(X_382  0.11862745881080627)
(X_383  0.23823529481887817)
(X_384  0.2656862735748291)
(X_385  0.1774509847164154)
(X_386  0.1774509847164154)
(X_387  0.16960784792900085)
(X_388  0.2539215683937073)
(X_389  0.2696078419685364)
(X_390  0.19705882668495178)
(X_391  0.22058825194835663)
(X_392  0.0676470622420311)
(X_393  0.07156863063573837)
(X_394  0.07941177487373352)
(X_395  0.18333333730697632)
(X_396  0.18333333730697632)
(X_397  0.08725491166114807)
(X_398  0.19901961088180542)
(X_399  0.21078431606292725)
(X_400  0.0676470622420311)
(X_401  0.05980392172932625)
(X_402  0.05980392172932625)
(X_403  0.07549020648002625)
(X_404  0.09509804844856262)
(X_405  0.0990196168422699)
(X_406  0.1872549057006836)
(X_407  0.1715686321258545)
(X_408  0.09509804844856262)
(X_409  0.09509804844856262)
(X_410  0.0990196168422699)
(X_411  0.10294118523597717)
(X_412  0.10686275362968445)
(X_413  0.21078431606292725)
(X_414  0.21078431606292725)
(X_415  0.21078431606292725)
(X_416  0.12254902720451355)
(X_417  0.23039215803146362)
(X_418  0.24215686321258545)
(X_419  0.25)
(X_420  0.04411764815449715)
(X_421  0.04803921654820442)
(X_422  0.15196079015731812)
(X_423  0.15196079015731812)
(X_424  0.14803922176361084)
(X_425  0.14803922176361084)
(X_426  0.15980392694473267)
(X_427  0.0676470622420311)
(X_428  0.04803921654820442)
(X_429  0.13235294818878174)
(X_430  0.020588237792253494)
(X_431  0.03235294297337532)
(X_432  0.15980392694473267)
(X_433  0.17549020051956177)
(X_434  0.17549020051956177)
(X_435  0.16764706373214722)
(X_436  0.0676470622420311)
(X_437  0.07156863063573837)
(X_438  0.07549020648002625)
(X_439  0.17549020051956177)
(X_440  0.1715686321258545)
(X_441  0.07549020648002625)
(X_442  0.0833333432674408)
(X_443  0.09117648005485535)
(X_444  0.18333333730697632)
(X_445  0.18333333730697632)
(X_446  0.1872549057006836)
(X_447  0.1872549057006836)
(X_448  0.012745101936161518)
(X_449  0.11274509876966476)
(X_450  0.11274509876966476)
(X_451  0.11274509876966476)
(X_452  0.11274509876966476)
(X_453  0.11274509876966476)
(X_454  0.11274509876966476)
(X_455  0.012745101936161518)
(X_456  0.008823529817163944)
(X_457  0.012745101936161518)
(X_458  0.01666666939854622)
(X_459  0.12450980395078659)
(X_460  0.12843137979507446)
(X_461  0.136274516582489)
(X_462  0.1401960849761963)
(X_463  0.1401960849761963)
(X_464  0.12843137979507446)
(X_465  0.12843137979507446)
(X_466  0.12843137979507446)
(X_467  0.028431374579668045)
(X_468  0.03235294297337532)
(X_469  0.04019607976078987)
(X_470  0.04411764815449715)
(X_471  0.04803921654820442)
(X_472  0.1401960849761963)
(X_473  0.1401960849761963)
(X_474  0.1401960849761963)
(X_475  0.1401960849761963)
(X_476  0.008823529817163944)
(X_477  0.008823529817163944)
(X_478  0.008823529817163944)
(X_479  0.008823529817163944)
(X_480  0.008823529817163944)
(X_481  0.008823529817163944)
(X_482  0.10882353037595749)
(X_483  0.008823529817163944)
(X_484  0.004901961423456669)
(X_485  0.004901961423456669)
(X_486  0.008823529817163944)
(X_487  0.012745101936161518)
(X_488  0.11666666716337204)
(X_489  0.12058823555707932)
(X_490  0.12450980395078659)
(X_491  0.12843137979507446)
(X_492  0.11666666716337204)
(X_493  0.01666666939854622)
(X_494  0.01666666939854622)
(X_495  0.01666666939854622)
(X_496  0.020588237792253494)
(X_497  0.12450980395078659)
(X_498  0.12843137979507446)
(X_499  0.13235294818878174)
(X_500  0.12450980395078659)
(X_501  0.12450980395078659)
(X_502  0.12450980395078659)
(X_503  0.12450980395078659)
(X_504  0.0009803927969187498)
(X_505  0.10098039358854294)
(X_506  0.10098039358854294)
(X_507  0.10098039358854294)
(X_508  0.10098039358854294)
(X_509  0.0009803927969187498)
(X_510  0.0009803927969187498)
(X_511  0.0009803927969187498)
(X_512  -0.0029411755967885256)
(X_513  0.0009803927969187498)
(X_514  0.0009803927969187498)
(X_515  0.0009803927969187498)
(X_516  0.10490196198225021)
(X_517  0.10490196198225021)
(X_518  0.10882353037595749)
(X_519  0.10882353037595749)
(X_520  0.10098039358854294)
(X_521  0.10098039358854294)
(X_522  0.09705882519483566)
(X_523  0.0009803927969187498)
(X_524  0.10098039358854294)
(X_525  0.004901961423456669)
(X_526  0.012745101936161518)
(X_527  0.012745101936161518)
(X_528  0.008823529817163944)
(X_529  0.10882353037595749)
(X_530  0.008823529817163944)
(X_531  0.008823529817163944)
(X_532  0.09313725680112839)
(X_533  -0.006862743757665157)
(X_534  -0.006862743757665157)
(X_535  -0.006862743757665157)
(X_536  -0.006862743757665157)
(X_537  0.09313725680112839)
(X_538  0.09313725680112839)
(X_539  -0.006862743757665157)
(X_540  -0.0029411755967885256)
(X_541  0.09705882519483566)
(X_542  0.09705882519483566)
(X_543  0.09705882519483566)
(X_544  0.09705882519483566)
(X_545  -0.0029411755967885256)
(X_546  -0.0029411755967885256)
(X_547  0.09705882519483566)
(X_548  0.09313725680112839)
(X_549  0.08921568840742111)
(X_550  0.08921568840742111)
(X_551  -0.010784312151372433)
(X_552  -0.006862743757665157)
(X_553  -0.006862743757665157)
(X_554  0.0009803927969187498)
(X_555  0.0009803927969187498)
(X_556  -0.0029411755967885256)
(X_557  -0.0029411755967885256)
(X_558  -0.0029411755967885256)
(X_559  -0.0029411755967885256)
(X_560  -0.010784312151372433)
(X_561  0.08921568840742111)
(X_562  -0.010784312151372433)
(X_563  -0.010784312151372433)
(X_564  -0.010784312151372433)
(X_565  -0.010784312151372433)
(X_566  -0.010784312151372433)
(X_567  -0.010784312151372433)
(X_568  0.10098039358854294)
(X_569  -0.0029411755967885256)
(X_570  -0.0029411755967885256)
(X_571  0.09705882519483566)
(X_572  0.09705882519483566)
(X_573  0.09313725680112839)
(X_574  -0.006862743757665157)
(X_575  0.09313725680112839)
(X_576  -0.010784312151372433)
(X_577  0.08921568840742111)
(X_578  0.08921568840742111)
(X_579  0.08529412001371384)
(X_580  0.08921568840742111)
(X_581  -0.010784312151372433)
(X_582  -0.006862743757665157)
(X_583  -0.0029411755967885256)
(X_584  -0.006862743757665157)
(X_585  0.09313725680112839)
(X_586  0.09313725680112839)
(X_587  0.09313725680112839)
(X_588  0.08921568840742111)
(X_589  0.08921568840742111)
(X_590  0.08921568840742111)
(X_591  0.08921568840742111)
(X_592  -0.010784312151372433)
(X_593  -0.010784312151372433)
(X_594  -0.010784312151372433)
(X_595  -0.010784312151372433)
(X_596  -0.0029411755967885256)
(X_597  -0.0029411755967885256)
(X_598  -0.0029411755967885256)
(X_599  0.09313725680112839)
(X_600  0.09313725680112839)
(X_601  0.09313725680112839)
(X_602  0.09313725680112839)
(X_603  0.09313725680112839)
(X_604  -0.006862743757665157)
(X_605  -0.010784312151372433)
(X_606  -0.010784312151372433)
(X_607  0.08529412001371384)
(X_608  0.08921568840742111)
(X_609  -0.010784312151372433)
(X_610  -0.006862743757665157)
(X_611  -0.006862743757665157)
(X_612  0.09313725680112839)
(X_613  0.09313725680112839)
(X_614  0.09313725680112839)
(X_615  0.09313725680112839)
(X_616  -0.010784312151372433)
(X_617  0.08921568840742111)
(X_618  0.08921568840742111)
(X_619  0.08921568840742111)
(X_620  -0.010784312151372433)
(X_621  -0.010784312151372433)
(X_622  -0.010784312151372433)
(X_623  -0.010784312151372433)
(X_624  0.08921568840742111)
(X_625  0.08921568840742111)
(X_626  0.08921568840742111)
(X_627  -0.010784312151372433)
(X_628  -0.010784312151372433)
(X_629  0.08921568840742111)
(X_630  0.09313725680112839)
(X_631  0.09313725680112839)
(X_632  -0.006862743757665157)
(X_633  -0.010784312151372433)
(X_634  0.08921568840742111)
(X_635  0.08529412001371384)
(X_636  0.08529412001371384)
(X_637  -0.014705880545079708)
(X_638  0.08921568840742111)
(X_639  0.08921568840742111)
(X_640  0.09313725680112839)
(X_641  0.09313725680112839)
(X_642  -0.006862743757665157)
(X_643  -0.006862743757665157)
(X_644  0.08921568840742111)
(X_645  0.08921568840742111)
(X_646  -0.010784312151372433)
(X_647  -0.010784312151372433)
(X_648  -0.010784312151372433)
(X_649  -0.010784312151372433)
(X_650  -0.010784312151372433)
(X_651  -0.010784312151372433)
(X_652  -0.018627449870109558)
(X_653  -0.018627449870109558)
(X_654  -0.018627449870109558)
(X_655  -0.014705880545079708)
(X_656  0.08529412001371384)
(X_657  0.08921568840742111)
(X_658  0.08921568840742111)
(X_659  0.08921568840742111)
(X_660  0.08921568840742111)
(X_661  0.08921568840742111)
(X_662  -0.014705880545079708)
(X_663  -0.018627449870109558)
(X_664  -0.018627449870109558)
(X_665  -0.014705880545079708)
(X_666  -0.014705880545079708)
(X_667  -0.014705880545079708)
(X_668  -0.010784312151372433)
(X_669  0.08921568840742111)
(X_670  0.08921568840742111)
(X_671  0.08921568840742111)
(X_672  -0.018627449870109558)
(X_673  0.08137255162000656)
(X_674  0.08137255162000656)
(X_675  0.08137255162000656)
(X_676  0.08137255162000656)
(X_677  0.08137255162000656)
(X_678  0.08137255162000656)
(X_679  0.08137255162000656)
(X_680  0.08137255162000656)
(X_681  0.08137255162000656)
(X_682  0.08137255162000656)
(X_683  -0.018627449870109558)
(X_684  -0.018627449870109558)
(X_685  0.08137255162000656)
(X_686  0.08137255162000656)
(X_687  0.08137255162000656)
(X_688  0.08921568840742111)
(X_689  0.08921568840742111)
(X_690  0.08921568840742111)
(X_691  0.08921568840742111)
(X_692  0.08921568840742111)
(X_693  0.08921568840742111)
(X_694  0.08921568840742111)
(X_695  0.08921568840742111)
(X_696  0.08137255162000656)
(X_697  -0.018627449870109558)
(X_698  -0.018627449870109558)
(X_699  0.08137255162000656)
(X_700  0.08137255162000656)
(X_701  0.08137255162000656)
(X_702  0.08137255162000656)
(X_703  0.08137255162000656)
(X_704  0.08137255162000656)
(X_705  0.08137255162000656)
(X_706  -0.018627449870109558)
(X_707  -0.018627449870109558)
(X_708  -0.018627449870109558)
(X_709  -0.018627449870109558)
(X_710  -0.018627449870109558)
(X_711  -0.018627449870109558)
(X_712  -0.018627449870109558)
(X_713  -0.018627449870109558)
(X_714  0.08137255162000656)
(X_715  0.08137255162000656)
(X_716  -0.010784312151372433)
(X_717  -0.010784312151372433)
(X_718  -0.010784312151372433)
(X_719  -0.010784312151372433)
(X_720  -0.010784312151372433)
(X_721  -0.010784312151372433)
(X_722  -0.010784312151372433)
(X_723  -0.010784312151372433)
(X_724  -0.018627449870109558)
(X_725  -0.018627449870109558)
(X_726  -0.018627449870109558)
(X_727  -0.018627449870109558)
(X_728  0.08137255162000656)
(X_729  0.08137255162000656)
(X_730  -0.018627449870109558)
(X_731  0.08137255162000656)
(X_732  0.08137255162000656)
(X_733  0.08137255162000656)
(X_734  0.08137255162000656)
(X_735  0.08137255162000656)
(X_736  -0.018627449870109558)
(X_737  -0.018627449870109558)
(X_738  -0.018627449870109558)
(X_739  -0.018627449870109558)
(X_740  -0.018627449870109558)
(X_741  -0.018627449870109558)
(X_742  -0.018627449870109558)
(X_743  -0.018627449870109558)
(X_744  -0.010784312151372433)
(X_745  -0.010784312151372433)
(X_746  -0.010784312151372433)
(X_747  -0.010784312151372433)
(X_748  -0.010784312151372433)
(X_749  0.08921568840742111)
(X_750  0.08921568840742111)
(X_751  0.08921568840742111)
(X_752  0.08137255162000656)
(X_753  -0.018627449870109558)
(X_754  0.08137255162000656)
(X_755  0.08137255162000656)
(X_756  -0.018627449870109558)
(X_757  -0.018627449870109558)
(X_758  -0.018627449870109558)
(X_759  0.08137255162000656)
(X_760  0.08137255162000656)
(X_761  0.08137255162000656)
(X_762  0.08137255162000656)
(X_763  -0.018627449870109558)
(X_764  0.08137255162000656)
(X_765  -0.018627449870109558)
(X_766  0.08137255162000656)
(X_767  0.08137255162000656)
(X_768  0.08137255162000656)
(X_769  0.08137255162000656)
(X_770  0.08137255162000656)
(X_771  0.08137255162000656)
(X_772  -0.014705880545079708)
(X_773  -0.014705880545079708)
(X_774  -0.014705880545079708)
(X_775  -0.014705880545079708)
(X_776  -0.014705880545079708)
(X_777  -0.014705880545079708)
(X_778  0.08529412001371384)
(X_779  0.08529412001371384)
(X_780  0.08137255162000656)
(X_781  -0.018627449870109558)
(X_782  -0.018627449870109558)
(X_783  0.08137255162000656)
(Y_0 38.13602066040039)
(Y_1 -4.340035438537598)
(Y_2 4.603374481201172)
(Y_3 -40.529136657714844))