((X_0  0.036274511367082596)
(X_1  0.028431374579668045)
(X_2  0.020588237792253494)
(X_3  0.11666666716337204)
(X_4  0.01666666939854622)
(X_5  0.028431374579668045)
(X_6  0.1401960849761963)
(X_7  0.14803922176361084)
(X_8  0.1401960849761963)
(X_9  0.1401960849761963)
(X_10  0.1401960849761963)
(X_11  0.1401960849761963)
(X_12  0.1401960849761963)
(X_13  0.1401960849761963)
(X_14  0.04019607976078987)
(X_15  0.04019607976078987)
(X_16  0.04019607976078987)
(X_17  0.04019607976078987)
(X_18  0.04411764815449715)
(X_19  0.04411764815449715)
(X_20  0.04803921654820442)
(X_21  0.04803921654820442)
(X_22  0.15196079015731812)
(X_23  0.15196079015731812)
(X_24  0.03235294297337532)
(X_25  0.03235294297337532)
(X_26  0.03235294297337532)
(X_27  0.03235294297337532)
(X_28  0.028431374579668045)
(X_29  0.02450980618596077)
(X_30  0.020588237792253494)
(X_31  0.11666666716337204)
(X_32  0.12058823555707932)
(X_33  0.12450980395078659)
(X_34  0.136274516582489)
(X_35  0.04019607976078987)
(X_36  0.02450980618596077)
(X_37  0.02450980618596077)
(X_38  0.02450980618596077)
(X_39  0.12450980395078659)
(X_40  0.12450980395078659)
(X_41  0.12450980395078659)
(X_42  0.12450980395078659)
(X_43  0.12450980395078659)
(X_44  0.13235294818878174)
(X_45  0.13235294818878174)
(X_46  0.03235294297337532)
(X_47  0.13235294818878174)
(X_48  0.13235294818878174)
(X_49  0.136274516582489)
(X_50  0.136274516582489)
(X_51  0.136274516582489)
(X_52  0.12843137979507446)
(X_53  0.12843137979507446)
(X_54  0.028431374579668045)
(X_55  0.028431374579668045)
(X_56  0.020588237792253494)
(X_57  0.020588237792253494)
(X_58  0.020588237792253494)
(X_59  0.12058823555707932)
(X_60  0.12450980395078659)
(X_61  0.02450980618596077)
(X_62  0.028431374579668045)
(X_63  0.028431374579668045)
(X_64  0.11274509876966476)
(X_65  0.11274509876966476)
(X_66  0.11274509876966476)
(X_67  0.11274509876966476)
(X_68  0.11274509876966476)
(X_69  0.11274509876966476)
(X_70  0.11274509876966476)
(X_71  0.11274509876966476)
(X_72  0.020588237792253494)
(X_73  0.020588237792253494)
(X_74  0.020588237792253494)
(X_75  0.01666666939854622)
(X_76  0.01666666939854622)
(X_77  0.11666666716337204)
(X_78  0.11666666716337204)
(X_79  0.11666666716337204)
(X_80  0.12058823555707932)
(X_81  0.12058823555707932)
(X_82  0.12058823555707932)
(X_83  0.12058823555707932)
(X_84  0.012745101936161518)
(X_85  0.01666666939854622)
(X_86  0.020588237792253494)
(X_87  0.02450980618596077)
(X_88  0.02450980618596077)
(X_89  0.020588237792253494)
(X_90  0.11666666716337204)
(X_91  0.11666666716337204)
(X_92  0.01666666939854622)
(X_93  0.11666666716337204)
(X_94  0.01666666939854622)
(X_95  0.01666666939854622)
(X_96  0.11666666716337204)
(X_97  0.11666666716337204)
(X_98  0.11666666716337204)
(X_99  0.11666666716337204)
(X_100  0.012745101936161518)
(X_101  0.012745101936161518)
(X_102  0.012745101936161518)
(X_103  0.008823529817163944)
(X_104  0.10882353037595749)
(X_105  0.10490196198225021)
(X_106  0.10098039358854294)
(X_107  0.10098039358854294)
(X_108  0.012745101936161518)
(X_109  0.012745101936161518)
(X_110  0.012745101936161518)
(X_111  0.11274509876966476)
(X_112  0.10882353037595749)
(X_113  0.11274509876966476)
(X_114  0.11666666716337204)
(X_115  0.12058823555707932)
(X_116  0.12058823555707932)
(X_117  0.11666666716337204)
(X_118  0.10882353037595749)
(X_119  0.10490196198225021)
(X_120  0.01666666939854622)
(X_121  0.01666666939854622)
(X_122  0.01666666939854622)
(X_123  0.11666666716337204)
(X_124  0.11666666716337204)
(X_125  0.01666666939854622)
(X_126  0.01666666939854622)
(X_127  0.01666666939854622)
(X_128  0.012745101936161518)
(X_129  0.012745101936161518)
(X_130  0.10882353037595749)
(X_131  0.10882353037595749)
(X_132  0.10490196198225021)
(X_133  0.004901961423456669)
(X_134  0.0009803927969187498)
(X_135  0.0009803927969187498)
(X_136  0.008823529817163944)
(X_137  0.10882353037595749)
(X_138  0.10882353037595749)
(X_139  0.10882353037595749)
(X_140  0.10490196198225021)
(X_141  0.10882353037595749)
(X_142  0.11274509876966476)
(X_143  0.11666666716337204)
(X_144  0.11666666716337204)
(X_145  0.10882353037595749)
(X_146  0.10490196198225021)
(X_147  0.0009803927969187498)
(X_148  0.10882353037595749)
(X_149  0.10882353037595749)
(X_150  0.10882353037595749)
(X_151  0.10882353037595749)
(X_152  0.10882353037595749)
(X_153  0.10882353037595749)
(X_154  0.008823529817163944)
(X_155  0.10882353037595749)
(X_156  0.012745101936161518)
(X_157  0.10882353037595749)
(X_158  0.10882353037595749)
(X_159  0.10882353037595749)
(X_160  0.10882353037595749)
(X_161  0.10882353037595749)
(X_162  0.10490196198225021)
(X_163  0.10490196198225021)
(X_164  0.10882353037595749)
(X_165  0.10882353037595749)
(X_166  0.10882353037595749)
(X_167  0.10882353037595749)
(X_168  0.008823529817163944)
(X_169  0.008823529817163944)
(X_170  0.008823529817163944)
(X_171  0.008823529817163944)
(X_172  0.008823529817163944)
(X_173  0.004901961423456669)
(X_174  0.0009803927969187498)
(X_175  -0.0029411755967885256)
(X_176  0.004901961423456669)
(X_177  0.004901961423456669)
(X_178  0.10490196198225021)
(X_179  0.10490196198225021)
(X_180  0.10490196198225021)
(X_181  0.10490196198225021)
(X_182  0.10490196198225021)
(X_183  0.10490196198225021)
(X_184  0.004901961423456669)
(X_185  0.004901961423456669)
(X_186  0.004901961423456669)
(X_187  0.008823529817163944)
(X_188  0.008823529817163944)
(X_189  0.008823529817163944)
(X_190  0.008823529817163944)
(X_191  0.10882353037595749)
(X_192  0.10882353037595749)
(X_193  0.10882353037595749)
(X_194  0.10882353037595749)
(X_195  0.10882353037595749)
(X_196  0.10882353037595749)
(X_197  0.10882353037595749)
(X_198  0.10882353037595749)
(X_199  0.10490196198225021)
(X_200  0.0009803927969187498)
(X_201  0.0009803927969187498)
(X_202  0.0009803927969187498)
(X_203  0.0009803927969187498)
(X_204  0.008823529817163944)
(X_205  0.008823529817163944)
(X_206  0.008823529817163944)
(X_207  0.008823529817163944)
(X_208  0.008823529817163944)
(X_209  0.008823529817163944)
(X_210  0.10882353037595749)
(X_211  0.10882353037595749)
(X_212  0.09705882519483566)
(X_213  0.10098039358854294)
(X_214  0.10098039358854294)
(X_215  0.004901961423456669)
(X_216  0.004901961423456669)
(X_217  0.008823529817163944)
(X_218  0.008823529817163944)
(X_219  0.11274509876966476)
(X_220  0.008823529817163944)
(X_221  0.008823529817163944)
(X_222  0.008823529817163944)
(X_223  0.008823529817163944)
(X_224  0.136274516582489)
(X_225  0.12058823555707932)
(X_226  0.0009803927969187498)
(X_227  -0.006862743757665157)
(X_228  -0.0029411755967885256)
(X_229  0.0009803927969187498)
(X_230  -0.0029411755967885256)
(X_231  -0.010784312151372433)
(X_232  0.12058823555707932)
(X_233  0.11666666716337204)
(X_234  0.11274509876966476)
(X_235  0.10882353037595749)
(X_236  0.10490196198225021)
(X_237  0.10098039358854294)
(X_238  0.10098039358854294)
(X_239  0.10098039358854294)
(X_240  0.11274509876966476)
(X_241  0.11274509876966476)
(X_242  0.11274509876966476)
(X_243  0.10882353037595749)
(X_244  0.004901961423456669)
(X_245  0.0009803927969187498)
(X_246  0.0009803927969187498)
(X_247  0.0009803927969187498)
(X_248  0.10098039358854294)
(X_249  0.10098039358854294)
(X_250  0.0009803927969187498)
(X_251  0.10490196198225021)
(X_252  0.19901961088180542)
(X_253  0.1872549057006836)
(X_254  0.1715686321258545)
(X_255  0.16372549533843994)
(X_256  0.15980392694473267)
(X_257  0.14803922176361084)
(X_258  0.13235294818878174)
(X_259  0.01666666939854622)
(X_260  -0.0029411755967885256)
(X_261  0.09705882519483566)
(X_262  0.09705882519483566)
(X_263  0.09705882519483566)
(X_264  0.10098039358854294)
(X_265  0.11274509876966476)
(X_266  0.12058823555707932)
(X_267  0.12450980395078659)
(X_268  0.008823529817163944)
(X_269  0.008823529817163944)
(X_270  0.008823529817163944)
(X_271  0.008823529817163944)
(X_272  0.008823529817163944)
(X_273  0.004901961423456669)
(X_274  0.004901961423456669)
(X_275  0.004901961423456669)
(X_276  0.012745101936161518)
(X_277  0.012745101936161518)
(X_278  0.10882353037595749)
(X_279  0.10882353037595749)
(X_280  0.24411766231060028)
(X_281  0.23235295712947845)
(X_282  0.21666668355464935)
(X_283  0.19705882668495178)
(X_284  0.17352941632270813)
(X_285  0.14215686917304993)
(X_286  0.11078432202339172)
(X_287  0.08725491166114807)
(X_288  0.04803921654820442)
(X_289  0.1401960849761963)
(X_290  0.12843137979507446)
(X_291  0.12058823555707932)
(X_292  0.11274509876966476)
(X_293  0.012745101936161518)
(X_294  0.01666666939854622)
(X_295  0.020588237792253494)
(X_296  0.13235294818878174)
(X_297  0.136274516582489)
(X_298  0.14411765336990356)
(X_299  0.05588235333561897)
(X_300  0.06372549384832382)
(X_301  0.07156863063573837)
(X_302  0.07549020648002625)
(X_303  0.07549020648002625)
(X_304  0.21470588445663452)
(X_305  0.114705890417099)
(X_306  0.11078432202339172)
(X_307  0.11078432202339172)
(X_308  0.17352941632270813)
(X_309  0.1774509847164154)
(X_310  0.18529412150382996)
(X_311  0.1931372582912445)
(X_312  0.19705882668495178)
(X_313  0.20098040997982025)
(X_314  0.19705882668495178)
(X_315  0.29313725233078003)
(X_316  0.2696078419685364)
(X_317  0.15784314274787903)
(X_318  0.13823530077934265)
(X_319  0.114705890417099)
(X_320  0.19901961088180542)
(X_321  0.19117647409439087)
(X_322  0.09117648005485535)
(X_323  0.09117648005485535)
(X_324  0.10686275362968445)
(X_325  0.2186274528503418)
(X_326  0.2343137264251709)
(X_327  0.15392157435417175)
(X_328  0.17352941632270813)
(X_329  0.18529412150382996)
(X_330  0.19705882668495178)
(X_331  0.20098040997982025)
(X_332  0.28921568393707275)
(X_333  0.28921568393707275)
(X_334  0.29313725233078003)
(X_335  0.29313725233078003)
(X_336  0.16960784792900085)
(X_337  0.2656862735748291)
(X_338  0.2617647051811218)
(X_339  0.2539215683937073)
(X_340  0.25)
(X_341  0.25)
(X_342  0.15392157435417175)
(X_343  0.15784314274787903)
(X_344  0.23823529481887817)
(X_345  0.23039215803146362)
(X_346  0.2186274528503418)
(X_347  0.2029411792755127)
(X_348  0.19509804248809814)
(X_349  0.19509804248809814)
(X_350  0.19509804248809814)
(X_351  0.09509804844856262)
(X_352  0.12647059559822083)
(X_353  0.23823529481887817)
(X_354  0.2539215683937073)
(X_355  0.27352941036224365)
(X_356  0.18921568989753723)
(X_357  0.19705882668495178)
(X_358  0.20490197837352753)
(X_359  0.30490198731422424)
(X_360  0.2774509787559509)
(X_361  0.2774509787559509)
(X_362  0.2774509787559509)
(X_363  0.2813725471496582)
(X_364  0.3068627417087555)
(X_365  0.29901960492134094)
(X_366  0.27941176295280457)
(X_367  0.3558823764324188)
(X_368  0.3284313976764679)
(X_369  0.31666669249534607)
(X_370  0.3127451241016388)
(X_371  0.31666669249534607)
(X_372  0.23627452552318573)
(X_373  0.23235295712947845)
(X_374  0.22058825194835663)
(X_375  0.3088235557079315)
(X_376  0.30098041892051697)
(X_377  0.1931372582912445)
(X_378  0.18921568989753723)
(X_379  0.18529412150382996)
(X_380  0.14215686917304993)
(X_381  0.25)
(X_382  0.2617647051811218)
(X_383  0.27352941036224365)
(X_384  0.2774509787559509)
(X_385  0.17352941632270813)
(X_386  0.16960784792900085)
(X_387  0.16568627953529358)
(X_388  0.3127451241016388)
(X_389  0.3088235557079315)
(X_390  0.2088235467672348)
(X_391  0.20490197837352753)
(X_392  0.20490197837352753)
(X_393  0.21666668355464935)
(X_394  0.23627452552318573)
(X_395  0.3480392396450043)
(X_396  0.3598039448261261)
(X_397  0.3754902184009552)
(X_398  0.3950980603694916)
(X_399  0.4107843339443207)
(X_400  0.3578431308269501)
(X_401  0.457843154668808)
(X_402  0.3578431308269501)
(X_403  0.3499999940395355)
(X_404  0.34215685725212097)
(X_405  0.33039215207099915)
(X_406  0.3186274468898773)
(X_407  0.41470590233802795)
(X_408  0.37745097279548645)
(X_409  0.385294109582901)
(X_410  0.39313724637031555)
(X_411  0.4049019515514374)
(X_412  0.4049019515514374)
(X_413  0.5009803771972656)
(X_414  0.4892157018184662)
(X_415  0.4852941334247589)
(X_416  0.26764705777168274)
(X_417  0.26764705777168274)
(X_418  0.36764708161354065)
(X_419  0.3637255132198334)
(X_420  0.036274511367082596)
(X_421  0.15196079015731812)
(X_422  0.1715686321258545)
(X_423  0.18333333730697632)
(X_424  0.17941176891326904)
(X_425  0.17941176891326904)
(X_426  0.1872549057006836)
(X_427  0.19509804248809814)
(X_428  0.19901961088180542)
(X_429  0.20686274766921997)
(X_430  0.22254902124404907)
(X_431  0.13823530077934265)
(X_432  0.24607843160629272)
(X_433  0.25)
(X_434  0.24607843160629272)
(X_435  0.1460784375667572)
(X_436  0.1774509847164154)
(X_437  0.18921568989753723)
(X_438  0.20490197837352753)
(X_439  0.22058825194835663)
(X_440  0.3245098292827606)
(X_441  0.3245098292827606)
(X_442  0.22058825194835663)
(X_443  0.21666668355464935)
(X_444  0.2558823525905609)
(X_445  0.3598039448261261)
(X_446  0.2598039209842682)
(X_447  0.3637255132198334)
(X_448  0.03235294297337532)
(X_449  0.13235294818878174)
(X_450  0.13235294818878174)
(X_451  0.13235294818878174)
(X_452  0.12843137979507446)
(X_453  0.028431374579668045)
(X_454  0.12450980395078659)
(X_455  0.12450980395078659)
(X_456  0.02450980618596077)
(X_457  0.02450980618596077)
(X_458  0.028431374579668045)
(X_459  0.03235294297337532)
(X_460  0.036274511367082596)
(X_461  0.1401960849761963)
(X_462  0.14411765336990356)
(X_463  0.14411765336990356)
(X_464  0.14803922176361084)
(X_465  0.14803922176361084)
(X_466  0.04803921654820442)
(X_467  0.04803921654820442)
(X_468  0.04803921654820442)
(X_469  0.04803921654820442)
(X_470  0.04803921654820442)
(X_471  0.14803922176361084)
(X_472  0.15196079015731812)
(X_473  0.15196079015731812)
(X_474  0.0519607849419117)
(X_475  0.1558823585510254)
(X_476  0.02450980618596077)
(X_477  0.12450980395078659)
(X_478  0.020588237792253494)
(X_479  0.020588237792253494)
(X_480  0.020588237792253494)
(X_481  0.01666666939854622)
(X_482  0.01666666939854622)
(X_483  0.01666666939854622)
(X_484  0.012745101936161518)
(X_485  0.012745101936161518)
(X_486  0.01666666939854622)
(X_487  0.020588237792253494)
(X_488  0.02450980618596077)
(X_489  0.12450980395078659)
(X_490  0.12843137979507446)
(X_491  0.12843137979507446)
(X_492  0.10882353037595749)
(X_493  0.008823529817163944)
(X_494  0.008823529817163944)
(X_495  0.008823529817163944)
(X_496  0.008823529817163944)
(X_497  0.10882353037595749)
(X_498  0.10882353037595749)
(X_499  0.10882353037595749)
(X_500  0.12058823555707932)
(X_501  0.020588237792253494)
(X_502  0.020588237792253494)
(X_503  0.020588237792253494)
(X_504  0.012745101936161518)
(X_505  0.11274509876966476)
(X_506  0.008823529817163944)
(X_507  0.10882353037595749)
(X_508  0.10490196198225021)
(X_509  0.10490196198225021)
(X_510  0.10490196198225021)
(X_511  0.10490196198225021)
(X_512  0.09705882519483566)
(X_513  0.10098039358854294)
(X_514  0.10098039358854294)
(X_515  0.10490196198225021)
(X_516  0.008823529817163944)
(X_517  0.008823529817163944)
(X_518  0.012745101936161518)
(X_519  0.11274509876966476)
(X_520  0.09705882519483566)
(X_521  0.09705882519483566)
(X_522  0.09705882519483566)
(X_523  -0.0029411755967885256)
(X_524  -0.0029411755967885256)
(X_525  -0.0029411755967885256)
(X_526  -0.0029411755967885256)
(X_527  -0.0029411755967885256)
(X_528  -0.010784312151372433)
(X_529  -0.006862743757665157)
(X_530  -0.006862743757665157)
(X_531  -0.006862743757665157)
(X_532  0.004901961423456669)
(X_533  0.10490196198225021)
(X_534  0.004901961423456669)
(X_535  0.0009803927969187498)
(X_536  0.0009803927969187498)
(X_537  0.09705882519483566)
(X_538  0.09705882519483566)
(X_539  0.09705882519483566)
(X_540  0.09313725680112839)
(X_541  0.09313725680112839)
(X_542  0.09313725680112839)
(X_543  -0.0029411755967885256)
(X_544  -0.0029411755967885256)
(X_545  0.0009803927969187498)
(X_546  0.0009803927969187498)
(X_547  0.10098039358854294)
(X_548  0.10098039358854294)
(X_549  0.10098039358854294)
(X_550  0.10098039358854294)
(X_551  0.10098039358854294)
(X_552  0.0009803927969187498)
(X_553  0.0009803927969187498)
(X_554  0.0009803927969187498)
(X_555  0.0009803927969187498)
(X_556  -0.014705880545079708)
(X_557  -0.014705880545079708)
(X_558  -0.010784312151372433)
(X_559  0.08921568840742111)
(X_560  0.004901961423456669)
(X_561  0.004901961423456669)
(X_562  0.0009803927969187498)
(X_563  0.0009803927969187498)
(X_564  0.0009803927969187498)
(X_565  -0.0029411755967885256)
(X_566  -0.0029411755967885256)
(X_567  -0.0029411755967885256)
(X_568  0.09313725680112839)
(X_569  -0.006862743757665157)
(X_570  -0.006862743757665157)
(X_571  -0.006862743757665157)
(X_572  -0.0029411755967885256)
(X_573  -0.0029411755967885256)
(X_574  -0.0029411755967885256)
(X_575  -0.0029411755967885256)
(X_576  0.08921568840742111)
(X_577  0.08921568840742111)
(X_578  0.08921568840742111)
(X_579  0.08921568840742111)
(X_580  -0.010784312151372433)
(X_581  -0.010784312151372433)
(X_582  -0.010784312151372433)
(X_583  -0.010784312151372433)
(X_584  -0.010784312151372433)
(X_585  -0.010784312151372433)
(X_586  -0.010784312151372433)
(X_587  0.09313725680112839)
(X_588  0.0009803927969187498)
(X_589  0.10098039358854294)
(X_590  0.0009803927969187498)
(X_591  0.0009803927969187498)
(X_592  0.09705882519483566)
(X_593  -0.0029411755967885256)
(X_594  -0.006862743757665157)
(X_595  -0.006862743757665157)
(X_596  -0.0029411755967885256)
(X_597  -0.0029411755967885256)
(X_598  -0.0029411755967885256)
(X_599  0.09705882519483566)
(X_600  0.09705882519483566)
(X_601  0.09705882519483566)
(X_602  0.09705882519483566)
(X_603  0.09705882519483566)
(X_604  0.08921568840742111)
(X_605  0.08921568840742111)
(X_606  0.08921568840742111)
(X_607  0.08921568840742111)
(X_608  0.08921568840742111)
(X_609  0.08921568840742111)
(X_610  0.08921568840742111)
(X_611  -0.010784312151372433)
(X_612  -0.014705880545079708)
(X_613  -0.010784312151372433)
(X_614  -0.010784312151372433)
(X_615  0.08921568840742111)
(X_616  0.09705882519483566)
(X_617  0.09705882519483566)
(X_618  0.09705882519483566)
(X_619  0.09313725680112839)
(X_620  0.09313725680112839)
(X_621  -0.006862743757665157)
(X_622  -0.010784312151372433)
(X_623  -0.010784312151372433)
(X_624  0.09705882519483566)
(X_625  0.09705882519483566)
(X_626  0.09705882519483566)
(X_627  0.09705882519483566)
(X_628  -0.0029411755967885256)
(X_629  -0.0029411755967885256)
(X_630  0.09705882519483566)
(X_631  0.09313725680112839)
(X_632  -0.006862743757665157)
(X_633  -0.006862743757665157)
(X_634  0.09313725680112839)
(X_635  0.09313725680112839)
(X_636  0.09313725680112839)
(X_637  0.09313725680112839)
(X_638  0.09313725680112839)
(X_639  0.09313725680112839)
(X_640  0.08921568840742111)
(X_641  0.08921568840742111)
(X_642  -0.010784312151372433)
(X_643  -0.006862743757665157)
(X_644  0.09313725680112839)
(X_645  0.09313725680112839)
(X_646  -0.006862743757665157)
(X_647  -0.010784312151372433)
(X_648  -0.010784312151372433)
(X_649  -0.014705880545079708)
(X_650  -0.014705880545079708)
(X_651  -0.014705880545079708)
(X_652  -0.006862743757665157)
(X_653  -0.006862743757665157)
(X_654  -0.006862743757665157)
(X_655  -0.006862743757665157)
(X_656  -0.006862743757665157)
(X_657  0.09313725680112839)
(X_658  0.09313725680112839)
(X_659  0.09313725680112839)
(X_660  0.08137255162000656)
(X_661  0.08137255162000656)
(X_662  -0.018627449870109558)
(X_663  -0.018627449870109558)
(X_664  -0.018627449870109558)
(X_665  -0.018627449870109558)
(X_666  -0.018627449870109558)
(X_667  -0.018627449870109558)
(X_668  -0.006862743757665157)
(X_669  -0.0029411755967885256)
(X_670  -0.0029411755967885256)
(X_671  0.09705882519483566)
(X_672  -0.018627449870109558)
(X_673  0.08137255162000656)
(X_674  0.08529412001371384)
(X_675  0.08529412001371384)
(X_676  0.08529412001371384)
(X_677  0.08529412001371384)
(X_678  0.08137255162000656)
(X_679  0.08137255162000656)
(X_680  0.08921568840742111)
(X_681  0.08921568840742111)
(X_682  0.08921568840742111)
(X_683  0.08921568840742111)
(X_684  0.08921568840742111)
(X_685  0.08921568840742111)
(X_686  0.08921568840742111)
(X_687  0.08921568840742111)
(X_688  0.08921568840742111)
(X_689  0.08921568840742111)
(X_690  0.08921568840742111)
(X_691  0.08921568840742111)
(X_692  0.08921568840742111)
(X_693  0.08921568840742111)
(X_694  0.08921568840742111)
(X_695  0.08921568840742111)
(X_696  0.08137255162000656)
(X_697  -0.014705880545079708)
(X_698  -0.014705880545079708)
(X_699  -0.014705880545079708)
(X_700  -0.030392156913876534)
(X_701  0.07352941483259201)
(X_702  0.07745098322629929)
(X_703  0.07745098322629929)
(X_704  0.07745098322629929)
(X_705  0.07745098322629929)
(X_706  0.07352941483259201)
(X_707  0.06960784643888474)
(X_708  -0.022549020126461983)
(X_709  -0.022549020126461983)
(X_710  -0.022549020126461983)
(X_711  -0.022549020126461983)
(X_712  -0.022549020126461983)
(X_713  -0.022549020126461983)
(X_714  -0.022549020126461983)
(X_715  0.07745098322629929)
(X_716  -0.022549020126461983)
(X_717  -0.022549020126461983)
(X_718  -0.022549020126461983)
(X_719  -0.022549020126461983)
(X_720  -0.022549020126461983)
(X_721  -0.022549020126461983)
(X_722  -0.022549020126461983)
(X_723  -0.022549020126461983)
(X_724  -0.026470588520169258)
(X_725  -0.026470588520169258)
(X_726  -0.022549020126461983)
(X_727  -0.022549020126461983)
(X_728  -0.010784312151372433)
(X_729  0.09313725680112839)
(X_730  -0.006862743757665157)
(X_731  0.09705882519483566)
(X_732  0.09705882519483566)
(X_733  0.09313725680112839)
(X_734  0.09313725680112839)
(X_735  0.08921568840742111)
(X_736  -0.0029411755967885256)
(X_737  -0.0029411755967885256)
(X_738  -0.0029411755967885256)
(X_739  -0.0029411755967885256)
(X_740  -0.0029411755967885256)
(X_741  -0.0029411755967885256)
(X_742  -0.0029411755967885256)
(X_743  -0.0029411755967885256)
(X_744  -0.0029411755967885256)
(X_745  -0.0029411755967885256)
(X_746  -0.0029411755967885256)
(X_747  -0.0029411755967885256)
(X_748  -0.0029411755967885256)
(X_749  0.09705882519483566)
(X_750  0.09705882519483566)
(X_751  0.09705882519483566)
(X_752  0.09313725680112839)
(X_753  0.09313725680112839)
(X_754  0.09313725680112839)
(X_755  0.09313725680112839)
(X_756  0.03235294297337532)
(X_757  0.036274511367082596)
(X_758  0.036274511367082596)
(X_759  0.04019607976078987)
(X_760  0.1401960849761963)
(X_761  0.136274516582489)
(X_762  0.136274516582489)
(X_763  0.13235294818878174)
(X_764  0.136274516582489)
(X_765  0.136274516582489)
(X_766  0.136274516582489)
(X_767  0.136274516582489)
(X_768  0.136274516582489)
(X_769  0.136274516582489)
(X_770  0.136274516582489)
(X_771  0.136274516582489)
(X_772  0.136274516582489)
(X_773  0.036274511367082596)
(X_774  0.036274511367082596)
(X_775  0.036274511367082596)
(X_776  0.036274511367082596)
(X_777  0.036274511367082596)
(X_778  0.036274511367082596)
(X_779  0.036274511367082596)
(X_780  0.13235294818878174)
(X_781  0.03235294297337532)
(X_782  0.036274511367082596)
(X_783  0.036274511367082596)
(Y_0 17.745250701904297)
(Y_1 9.251800537109375)
(Y_2 8.999184608459473)
(Y_3 -37.00672912597656))