((X_0  1.0499999523162842)
(X_1  0.949999988079071)
(X_2  0.9460784196853638)
(X_3  0.9382352828979492)
(X_4  0.9343137145042419)
(X_5  0.9343137145042419)
(X_6  0.9382352828979492)
(X_7  0.9421568512916565)
(X_8  0.9460784196853638)
(X_9  1.0499999523162842)
(X_10  1.0499999523162842)
(X_11  0.949999988079071)
(X_12  0.949999988079071)
(X_13  1.0499999523162842)
(X_14  1.0499999523162842)
(X_15  0.949999988079071)
(X_16  0.9382352828979492)
(X_17  0.9460784196853638)
(X_18  0.9460784196853638)
(X_19  0.9421568512916565)
(X_20  1.0499999523162842)
(X_21  1.0499999523162842)
(X_22  1.0499999523162842)
(X_23  1.0499999523162842)
(X_24  1.0460784435272217)
(X_25  1.0460784435272217)
(X_26  0.949999988079071)
(X_27  0.949999988079071)
(X_28  0.9950980544090271)
(X_29  0.9990196228027344)
(X_30  0.906862735748291)
(X_31  1.0107842683792114)
(X_32  0.9147058725357056)
(X_33  0.9147058725357056)
(X_34  0.9147058725357056)
(X_35  1.0107842683792114)
(X_36  0.9872549176216125)
(X_37  0.9950980544090271)
(X_38  0.9029411673545837)
(X_39  0.8990195989608765)
(X_40  0.8950980305671692)
(X_41  0.9911764860153198)
(X_42  0.9950980544090271)
(X_43  0.8990195989608765)
(X_44  1.0264705419540405)
(X_45  1.0264705419540405)
(X_46  0.9147058725357056)
(X_47  0.9029411673545837)
(X_48  0.906862735748291)
(X_49  0.9264705777168274)
(X_50  0.9303921461105347)
(X_51  0.9186274409294128)
(X_52  1.022549033164978)
(X_53  1.0264705419540405)
(X_54  1.034313678741455)
(X_55  1.0421568155288696)
(X_56  0.3245098292827606)
(X_57  0.240196093916893)
(X_58  0.2558823525905609)
(X_59  0.2754901945590973)
(X_60  0.27941176295280457)
(X_61  0.27156862616539)
(X_62  0.2598039209842682)
(X_63  0.25196078419685364)
(X_64  0.3068627417087555)
(X_65  0.31470587849617004)
(X_66  0.3225490152835846)
(X_67  0.32647058367729187)
(X_68  0.4264706075191498)
(X_69  0.32647058367729187)
(X_70  0.43431374430656433)
(X_71  0.4421568810939789)
(X_72  0.36176469922065735)
(X_73  0.3735294044017792)
(X_74  0.3735294044017792)
(X_75  0.3696078360080719)
(X_76  0.48137256503105164)
(X_77  0.5009803771972656)
(X_78  0.5009803771972656)
(X_79  0.4852941334247589)
(X_80  0.5245097875595093)
(X_81  0.5284313559532166)
(X_82  0.5401960611343384)
(X_83  0.5480391979217529)
(X_84  0.19117647409439087)
(X_85  0.2029411792755127)
(X_86  0.2186274528503418)
(X_87  0.22647058963775635)
(X_88  0.12647059559822083)
(X_89  0.114705890417099)
(X_90  0.0990196168422699)
(X_91  0.08725491166114807)
(X_92  0.1715686321258545)
(X_93  0.07549020648002625)
(X_94  0.0833333432674408)
(X_95  0.1872549057006836)
(X_96  0.1872549057006836)
(X_97  0.19509804248809814)
(X_98  0.20686274766921997)
(X_99  0.21470588445663452)
(X_100  0.16764706373214722)
(X_101  0.18333333730697632)
(X_102  0.19509804248809814)
(X_103  0.0990196168422699)
(X_104  0.11078432202339172)
(X_105  0.12254902720451355)
(X_106  0.10686275362968445)
(X_107  0.0833333432674408)
(X_108  0.0833333432674408)
(X_109  0.09117648005485535)
(X_110  0.10686275362968445)
(X_111  0.21470588445663452)
(X_112  0.0990196168422699)
(X_113  0.19901961088180542)
(X_114  0.10294118523597717)
(X_115  0.10294118523597717)
(X_116  0.0990196168422699)
(X_117  0.09117648005485535)
(X_118  0.07941177487373352)
(X_119  0.07549020648002625)
(X_120  0.10686275362968445)
(X_121  0.11078432202339172)
(X_122  0.11078432202339172)
(X_123  0.10686275362968445)
(X_124  0.19901961088180542)
(X_125  0.19901961088180542)
(X_126  0.20686274766921997)
(X_127  0.11862745881080627)
(X_128  0.19901961088180542)
(X_129  0.20686274766921997)
(X_130  0.2029411792755127)
(X_131  0.19117647409439087)
(X_132  0.19509804248809814)
(X_133  0.20686274766921997)
(X_134  0.2029411792755127)
(X_135  0.18333333730697632)
(X_136  0.19901961088180542)
(X_137  0.10686275362968445)
(X_138  0.2186274528503418)
(X_139  0.22647058963775635)
(X_140  0.19901961088180542)
(X_141  0.19509804248809814)
(X_142  0.09117648005485535)
(X_143  0.08725491166114807)
(X_144  0.0833333432674408)
(X_145  0.07941177487373352)
(X_146  0.07549020648002625)
(X_147  0.17549020051956177)
(X_148  0.21078431606292725)
(X_149  0.20686274766921997)
(X_150  0.10294118523597717)
(X_151  0.09117648005485535)
(X_152  0.17941176891326904)
(X_153  0.17549020051956177)
(X_154  0.17941176891326904)
(X_155  0.08725491166114807)
(X_156  0.08725491166114807)
(X_157  0.08725491166114807)
(X_158  0.1715686321258545)
(X_159  0.1558823585510254)
(X_160  0.1715686321258545)
(X_161  0.0990196168422699)
(X_162  0.114705890417099)
(X_163  0.21078431606292725)
(X_164  0.17941176891326904)
(X_165  0.0833333432674408)
(X_166  0.0833333432674408)
(X_167  0.1872549057006836)
(X_168  0.22254902124404907)
(X_169  0.2186274528503418)
(X_170  0.11078432202339172)
(X_171  0.2029411792755127)
(X_172  0.19117647409439087)
(X_173  0.17941176891326904)
(X_174  0.07156863063573837)
(X_175  0.06372549384832382)
(X_176  0.1872549057006836)
(X_177  0.1872549057006836)
(X_178  0.08725491166114807)
(X_179  0.07941177487373352)
(X_180  0.17549020051956177)
(X_181  0.17941176891326904)
(X_182  0.09509804844856262)
(X_183  0.10686275362968445)
(X_184  0.19509804248809814)
(X_185  0.20686274766921997)
(X_186  0.20686274766921997)
(X_187  0.19901961088180542)
(X_188  0.19509804248809814)
(X_189  0.19509804248809814)
(X_190  0.1715686321258545)
(X_191  0.1401960849761963)
(X_192  0.18333333730697632)
(X_193  0.18333333730697632)
(X_194  0.07549020648002625)
(X_195  0.07156863063573837)
(X_196  0.3539215624332428)
(X_197  0.45000001788139343)
(X_198  0.34215685725212097)
(X_199  0.32647058367729187)
(X_200  0.3068627417087555)
(X_201  0.27941176295280457)
(X_202  0.3598039448261261)
(X_203  0.344117671251297)
(X_204  0.2088235467672348)
(X_205  0.21666668355464935)
(X_206  0.2245098203420639)
(X_207  0.23235295712947845)
(X_208  0.240196093916893)
(X_209  0.2598039209842682)
(X_210  0.28333333134651184)
(X_211  0.40294119715690613)
(X_212  0.520588219165802)
(X_213  0.5480391979217529)
(X_214  0.5676470994949341)
(X_215  0.551960825920105)
(X_216  0.5049019455909729)
(X_217  0.43039217591285706)
(X_218  0.33235296607017517)
(X_219  0.2539215683937073)
(X_220  0.19901961088180542)
(X_221  0.19117647409439087)
(X_222  0.0833333432674408)
(X_223  0.1715686321258545)
(X_224  0.3539215624332428)
(X_225  0.34215685725212097)
(X_226  0.4421568810939789)
(X_227  0.46568629145622253)
(X_228  0.39313724637031555)
(X_229  0.3970588147640228)
(X_230  0.3813725411891937)
(X_231  0.3696078360080719)
(X_232  0.49705883860588074)
(X_233  0.48137256503105164)
(X_234  0.3656862676143646)
(X_235  0.3813725411891937)
(X_236  0.42843136191368103)
(X_237  0.47156864404678345)
(X_238  0.5754902362823486)
(X_239  0.45588237047195435)
(X_240  0.4637255072593689)
(X_241  0.5754902362823486)
(X_242  0.5441176295280457)
(X_243  0.5676470994949341)
(X_244  0.6460784673690796)
(X_245  0.6107843518257141)
(X_246  0.5166666507720947)
(X_247  0.4049019515514374)
(X_248  0.3382352888584137)
(X_249  0.24411766231060028)
(X_250  0.13431373238563538)
(X_251  0.1872549057006836)
(X_252  0.26372548937797546)
(X_253  0.2754901945590973)
(X_254  0.2754901945590973)
(X_255  0.36764708161354065)
(X_256  0.38333335518836975)
(X_257  0.3950980603694916)
(X_258  0.36764708161354065)
(X_259  0.3284313976764679)
(X_260  0.21666668355464935)
(X_261  0.30098041892051697)
(X_262  0.2852941155433655)
(X_263  0.2813725471496582)
(X_264  0.29313725233078003)
(X_265  0.3284313976764679)
(X_266  0.3794117867946625)
(X_267  0.41862747073173523)
(X_268  0.44607844948768616)
(X_269  0.4735294282436371)
(X_270  0.46176472306251526)
(X_271  0.34607842564582825)
(X_272  0.36176469922065735)
(X_273  0.37745097279548645)
(X_274  0.5009803771972656)
(X_275  0.5441176295280457)
(X_276  0.46764707565307617)
(X_277  0.4362744987010956)
(X_278  0.3892156779766083)
(X_279  0.3382352888584137)
(X_280  0.4068627655506134)
(X_281  0.4107843339443207)
(X_282  0.28333333134651184)
(X_283  0.240196093916893)
(X_284  0.22843138873577118)
(X_285  0.3401961028575897)
(X_286  0.31666669249534607)
(X_287  0.27352941036224365)
(X_288  0.14215686917304993)
(X_289  0.2539215683937073)
(X_290  0.17352941632270813)
(X_291  0.27352941036224365)
(X_292  0.24607843160629272)
(X_293  0.13431373238563538)
(X_294  0.19705882668495178)
(X_295  0.27941176295280457)
(X_296  0.41470590233802795)
(X_297  0.41274508833885193)
(X_298  0.550000011920929)
(X_299  0.6009804010391235)
(X_300  0.6617647409439087)
(X_301  0.6068627834320068)
(X_302  0.5245097875595093)
(X_303  0.4264706075191498)
(X_304  0.4382353127002716)
(X_305  0.4696078598499298)
(X_306  0.4049019515514374)
(X_307  0.5088235139846802)
(X_308  0.751960813999176)
(X_309  0.6931372880935669)
(X_310  0.6068627834320068)
(X_311  0.4323529303073883)
(X_312  0.3656862676143646)
(X_313  0.31470587849617004)
(X_314  0.28333333134651184)
(X_315  0.27156862616539)
(X_316  0.26764705777168274)
(X_317  0.3715686500072479)
(X_318  0.387254923582077)
(X_319  0.387254923582077)
(X_320  0.24411766231060028)
(X_321  0.21666668355464935)
(X_322  0.27941176295280457)
(X_323  0.3735294044017792)
(X_324  0.5421568751335144)
(X_325  0.5303921699523926)
(X_326  0.5813725590705872)
(X_327  0.6127451062202454)
(X_328  0.6931372880935669)
(X_329  0.7127451300621033)
(X_330  0.6696078777313232)
(X_331  0.5323529243469238)
(X_332  0.3578431308269501)
(X_333  0.34607842564582825)
(X_334  0.3382352888584137)
(X_335  0.3499999940395355)
(X_336  0.4950980544090271)
(X_337  0.5401960611343384)
(X_338  0.5284313559532166)
(X_339  0.5754902362823486)
(X_340  0.5911765098571777)
(X_341  0.5715686678886414)
(X_342  0.595098078250885)
(X_343  0.550000011920929)
(X_344  0.5460784435272217)
(X_345  0.5186274647712708)
(X_346  0.4950980544090271)
(X_347  0.479411780834198)
(X_348  0.45588237047195435)
(X_349  0.4480392038822174)
(X_350  0.4990196228027344)
(X_351  0.665686309337616)
(X_352  0.7245098352432251)
(X_353  0.6147059202194214)
(X_354  0.5441176295280457)
(X_355  0.5166666507720947)
(X_356  0.5323529243469238)
(X_357  0.6539216041564941)
(X_358  0.7362745404243469)
(X_359  0.6852941513061523)
(X_360  0.5833333730697632)
(X_361  0.4166666567325592)
(X_362  0.3225490152835846)
(X_363  0.2598039209842682)
(X_364  0.3382352888584137)
(X_365  0.3029411733150482)
(X_366  0.3225490152835846)
(X_367  0.4892157018184662)
(X_368  0.49705883860588074)
(X_369  0.45000001788139343)
(X_370  0.34215685725212097)
(X_371  0.3813725411891937)
(X_372  0.42450979351997375)
(X_373  0.42450979351997375)
(X_374  0.5323529243469238)
(X_375  0.5480391979217529)
(X_376  0.45588237047195435)
(X_377  0.44019606709480286)
(X_378  0.4049019515514374)
(X_379  0.37745097279548645)
(X_380  0.5049019455909729)
(X_381  0.47745099663734436)
(X_382  0.47745099663734436)
(X_383  0.4696078598499298)
(X_384  0.34607842564582825)
(X_385  0.3578431308269501)
(X_386  0.37745097279548645)
(X_387  0.3696078360080719)
(X_388  0.5794118046760559)
(X_389  0.5911765098571777)
(X_390  0.47156864404678345)
(X_391  0.41274508833885193)
(X_392  0.2813725471496582)
(X_393  0.3088235557079315)
(X_394  0.3401961028575897)
(X_395  0.36764708161354065)
(X_396  0.38333335518836975)
(X_397  0.3950980603694916)
(X_398  0.3950980603694916)
(X_399  0.3911764919757843)
(X_400  0.26764705777168274)
(X_401  0.40294119715690613)
(X_402  0.4382353127002716)
(X_403  0.4696078598499298)
(X_404  0.4049019515514374)
(X_405  0.3970588147640228)
(X_406  0.3068627417087555)
(X_407  0.20490197837352753)
(X_408  0.22058825194835663)
(X_409  0.33627453446388245)
(X_410  0.344117671251297)
(X_411  0.344117671251297)
(X_412  0.31666669249534607)
(X_413  0.1460784375667572)
(X_414  0.12647059559822083)
(X_415  0.27352941036224365)
(X_416  0.26372548937797546)
(X_417  0.4539215862751007)
(X_418  0.42843136191368103)
(X_419  0.4166666567325592)
(X_420  0.12647059559822083)
(X_421  0.18529412150382996)
(X_422  0.18921568989753723)
(X_423  0.13431373238563538)
(X_424  0.14215686917304993)
(X_425  0.2088235467672348)
(X_426  0.2245098203420639)
(X_427  0.1774509847164154)
(X_428  0.21666668355464935)
(X_429  0.23235295712947845)
(X_430  0.22058825194835663)
(X_431  0.2088235467672348)
(X_432  0.2558823525905609)
(X_433  0.4068627655506134)
(X_434  0.2598039209842682)
(X_435  0.16568627953529358)
(X_436  0.23823529481887817)
(X_437  0.25784313678741455)
(X_438  0.25)
(X_439  0.28921568393707275)
(X_440  0.33627453446388245)
(X_441  0.2774509787559509)
(X_442  0.15000000596046448)
(X_443  0.240196093916893)
(X_444  0.29509803652763367)
(X_445  0.3539215624332428)
(X_446  0.385294109582901)
(X_447  0.4539215862751007)
(X_448  0.20686274766921997)
(X_449  0.11078432202339172)
(X_450  0.11862745881080627)
(X_451  0.22647058963775635)
(X_452  0.2343137264251709)
(X_453  0.14215686917304993)
(X_454  0.25)
(X_455  0.2539215683937073)
(X_456  0.25)
(X_457  0.2813725471496582)
(X_458  0.29313725233078003)
(X_459  0.18529412150382996)
(X_460  0.19705882668495178)
(X_461  0.3127451241016388)
(X_462  0.27352941036224365)
(X_463  0.10686275362968445)
(X_464  0.0990196168422699)
(X_465  0.09117648005485535)
(X_466  0.20686274766921997)
(X_467  0.24215686321258545)
(X_468  0.2343137264251709)
(X_469  0.20686274766921997)
(X_470  0.22254902124404907)
(X_471  0.27352941036224365)
(X_472  0.35196080803871155)
(X_473  0.3637255132198334)
(X_474  0.38333335518836975)
(X_475  0.39901962876319885)
(X_476  0.08725491166114807)
(X_477  0.08725491166114807)
(X_478  0.19509804248809814)
(X_479  0.19901961088180542)
(X_480  0.10686275362968445)
(X_481  0.11078432202339172)
(X_482  0.114705890417099)
(X_483  0.2186274528503418)
(X_484  0.21078431606292725)
(X_485  0.23823529481887817)
(X_486  0.1460784375667572)
(X_487  0.13431373238563538)
(X_488  0.1460784375667572)
(X_489  0.1617647111415863)
(X_490  0.12647059559822083)
(X_491  0.07156863063573837)
(X_492  0.0833333432674408)
(X_493  0.07549020648002625)
(X_494  0.19117647409439087)
(X_495  0.2186274528503418)
(X_496  0.21470588445663452)
(X_497  0.1872549057006836)
(X_498  0.20686274766921997)
(X_499  0.15000000596046448)
(X_500  0.30098041892051697)
(X_501  0.20098040997982025)
(X_502  0.20490197837352753)
(X_503  0.2088235467672348)
(X_504  0.0676470622420311)
(X_505  0.0676470622420311)
(X_506  0.07156863063573837)
(X_507  0.17549020051956177)
(X_508  0.17941176891326904)
(X_509  0.17941176891326904)
(X_510  0.18333333730697632)
(X_511  0.0833333432674408)
(X_512  0.07549020648002625)
(X_513  0.09117648005485535)
(X_514  0.19509804248809814)
(X_515  0.0833333432674408)
(X_516  0.09117648005485535)
(X_517  0.10686275362968445)
(X_518  0.0833333432674408)
(X_519  0.04411764815449715)
(X_520  0.05980392172932625)
(X_521  0.0519607849419117)
(X_522  0.06372549384832382)
(X_523  0.09117648005485535)
(X_524  0.0833333432674408)
(X_525  0.16372549533843994)
(X_526  0.17941176891326904)
(X_527  0.21470588445663452)
(X_528  0.14215686917304993)
(X_529  0.13431373238563538)
(X_530  0.12647059559822083)
(X_531  0.11862745881080627)
(X_532  0.16372549533843994)
(X_533  0.16372549533843994)
(X_534  0.16372549533843994)
(X_535  0.16372549533843994)
(X_536  0.16372549533843994)
(X_537  0.16372549533843994)
(X_538  0.06372549384832382)
(X_539  0.06372549384832382)
(X_540  0.06372549384832382)
(X_541  0.07549020648002625)
(X_542  0.16764706373214722)
(X_543  0.05588235333561897)
(X_544  0.06372549384832382)
(X_545  0.07941177487373352)
(X_546  0.0676470622420311)
(X_547  0.04411764815449715)
(X_548  0.14411765336990356)
(X_549  0.136274516582489)
(X_550  0.04803921654820442)
(X_551  0.06372549384832382)
(X_552  0.16372549533843994)
(X_553  0.14803922176361084)
(X_554  0.15980392694473267)
(X_555  0.0833333432674408)
(X_556  0.19509804248809814)
(X_557  0.19509804248809814)
(X_558  0.1872549057006836)
(X_559  0.18333333730697632)
(X_560  0.1558823585510254)
(X_561  0.05588235333561897)
(X_562  0.05588235333561897)
(X_563  0.05588235333561897)
(X_564  0.0519607849419117)
(X_565  0.0519607849419117)
(X_566  0.04803921654820442)
(X_567  0.04803921654820442)
(X_568  0.06372549384832382)
(X_569  0.06372549384832382)
(X_570  0.15980392694473267)
(X_571  0.04803921654820442)
(X_572  0.0519607849419117)
(X_573  0.06372549384832382)
(X_574  0.06372549384832382)
(X_575  0.0519607849419117)
(X_576  0.036274511367082596)
(X_577  0.03235294297337532)
(X_578  0.04019607976078987)
(X_579  0.14803922176361084)
(X_580  0.04803921654820442)
(X_581  0.04411764815449715)
(X_582  0.14803922176361084)
(X_583  0.16372549533843994)
(X_584  0.15196079015731812)
(X_585  0.05588235333561897)
(X_586  0.0676470622420311)
(X_587  0.07549020648002625)
(X_588  0.14411765336990356)
(X_589  0.04411764815449715)
(X_590  0.04019607976078987)
(X_591  0.04019607976078987)
(X_592  0.04019607976078987)
(X_593  0.136274516582489)
(X_594  0.136274516582489)
(X_595  0.136274516582489)
(X_596  0.1558823585510254)
(X_597  0.15196079015731812)
(X_598  0.04411764815449715)
(X_599  0.04019607976078987)
(X_600  0.04019607976078987)
(X_601  0.04411764815449715)
(X_602  0.0519607849419117)
(X_603  0.0519607849419117)
(X_604  0.136274516582489)
(X_605  0.13235294818878174)
(X_606  0.136274516582489)
(X_607  0.1401960849761963)
(X_608  0.1401960849761963)
(X_609  0.1401960849761963)
(X_610  0.14411765336990356)
(X_611  0.14803922176361084)
(X_612  0.01666666939854622)
(X_613  0.02450980618596077)
(X_614  0.1401960849761963)
(X_615  0.1558823585510254)
(X_616  0.136274516582489)
(X_617  0.136274516582489)
(X_618  0.036274511367082596)
(X_619  0.036274511367082596)
(X_620  0.036274511367082596)
(X_621  0.13235294818878174)
(X_622  0.03235294297337532)
(X_623  0.03235294297337532)
(X_624  0.14411765336990356)
(X_625  0.1401960849761963)
(X_626  0.136274516582489)
(X_627  0.036274511367082596)
(X_628  0.03235294297337532)
(X_629  0.03235294297337532)
(X_630  0.04019607976078987)
(X_631  0.04803921654820442)
(X_632  0.13235294818878174)
(X_633  0.136274516582489)
(X_634  0.13235294818878174)
(X_635  0.03235294297337532)
(X_636  0.036274511367082596)
(X_637  0.1401960849761963)
(X_638  0.1401960849761963)
(X_639  0.136274516582489)
(X_640  0.12058823555707932)
(X_641  0.12450980395078659)
(X_642  0.13235294818878174)
(X_643  0.136274516582489)
(X_644  0.1401960849761963)
(X_645  0.1401960849761963)
(X_646  0.1401960849761963)
(X_647  0.1401960849761963)
(X_648  0.1401960849761963)
(X_649  0.1401960849761963)
(X_650  0.1401960849761963)
(X_651  0.1401960849761963)
(X_652  0.04019607976078987)
(X_653  0.036274511367082596)
(X_654  0.036274511367082596)
(X_655  0.036274511367082596)
(X_656  0.03235294297337532)
(X_657  0.028431374579668045)
(X_658  0.036274511367082596)
(X_659  0.0519607849419117)
(X_660  0.13235294818878174)
(X_661  0.13235294818878174)
(X_662  0.13235294818878174)
(X_663  0.12843137979507446)
(X_664  0.03235294297337532)
(X_665  0.04019607976078987)
(X_666  0.136274516582489)
(X_667  0.028431374579668045)
(X_668  0.04803921654820442)
(X_669  0.04411764815449715)
(X_670  0.136274516582489)
(X_671  0.03235294297337532)
(X_672  0.11666666716337204)
(X_673  0.020588237792253494)
(X_674  0.020588237792253494)
(X_675  0.12058823555707932)
(X_676  0.020588237792253494)
(X_677  0.11666666716337204)
(X_678  0.11274509876966476)
(X_679  0.10882353037595749)
(X_680  0.020588237792253494)
(X_681  0.12450980395078659)
(X_682  0.02450980618596077)
(X_683  0.02450980618596077)
(X_684  0.020588237792253494)
(X_685  0.020588237792253494)
(X_686  0.028431374579668045)
(X_687  0.036274511367082596)
(X_688  0.12450980395078659)
(X_689  0.12058823555707932)
(X_690  0.01666666939854622)
(X_691  0.01666666939854622)
(X_692  0.12450980395078659)
(X_693  0.12450980395078659)
(X_694  0.12058823555707932)
(X_695  0.11666666716337204)
(X_696  0.12450980395078659)
(X_697  0.12450980395078659)
(X_698  0.12450980395078659)
(X_699  0.12058823555707932)
(X_700  0.11666666716337204)
(X_701  0.12058823555707932)
(X_702  0.12058823555707932)
(X_703  0.12058823555707932)
(X_704  0.020588237792253494)
(X_705  0.01666666939854622)
(X_706  0.012745101936161518)
(X_707  0.008823529817163944)
(X_708  0.01666666939854622)
(X_709  0.02450980618596077)
(X_710  0.02450980618596077)
(X_711  0.02450980618596077)
(X_712  0.01666666939854622)
(X_713  0.020588237792253494)
(X_714  0.028431374579668045)
(X_715  0.036274511367082596)
(X_716  0.02450980618596077)
(X_717  0.020588237792253494)
(X_718  0.012745101936161518)
(X_719  0.01666666939854622)
(X_720  0.02450980618596077)
(X_721  0.02450980618596077)
(X_722  0.12058823555707932)
(X_723  0.11666666716337204)
(X_724  0.12450980395078659)
(X_725  0.12450980395078659)
(X_726  0.12450980395078659)
(X_727  0.12058823555707932)
(X_728  0.11666666716337204)
(X_729  0.12058823555707932)
(X_730  0.12058823555707932)
(X_731  0.12058823555707932)
(X_732  0.12058823555707932)
(X_733  0.11666666716337204)
(X_734  0.11274509876966476)
(X_735  0.10882353037595749)
(X_736  0.11666666716337204)
(X_737  0.020588237792253494)
(X_738  0.02450980618596077)
(X_739  0.020588237792253494)
(X_740  0.01666666939854622)
(X_741  0.01666666939854622)
(X_742  0.028431374579668045)
(X_743  0.036274511367082596)
(X_744  0.02450980618596077)
(X_745  0.01666666939854622)
(X_746  0.012745101936161518)
(X_747  0.01666666939854622)
(X_748  0.020588237792253494)
(X_749  0.12450980395078659)
(X_750  0.12058823555707932)
(X_751  0.11274509876966476)
(X_752  0.12450980395078659)
(X_753  0.12450980395078659)
(X_754  0.12058823555707932)
(X_755  0.12058823555707932)
(X_756  0.11666666716337204)
(X_757  0.020588237792253494)
(X_758  0.12058823555707932)
(X_759  0.12058823555707932)
(X_760  0.020588237792253494)
(X_761  0.01666666939854622)
(X_762  0.11274509876966476)
(X_763  0.10882353037595749)
(X_764  0.01666666939854622)
(X_765  0.12058823555707932)
(X_766  0.02450980618596077)
(X_767  0.020588237792253494)
(X_768  0.01666666939854622)
(X_769  0.01666666939854622)
(X_770  0.02450980618596077)
(X_771  0.03235294297337532)
(X_772  0.020588237792253494)
(X_773  0.01666666939854622)
(X_774  0.012745101936161518)
(X_775  0.012745101936161518)
(X_776  0.020588237792253494)
(X_777  0.12450980395078659)
(X_778  0.11666666716337204)
(X_779  0.11274509876966476)
(X_780  0.020588237792253494)
(X_781  0.020588237792253494)
(X_782  0.12058823555707932)
(X_783  0.12058823555707932)
(Y_0 -24.42536163330078)
(Y_1 21.127182006835938)
(Y_2 -15.662352561950684)
(Y_3 20.12555694580078))