((X_0  0.949999988079071)
(X_1  0.949999988079071)
(X_2  0.949999988079071)
(X_3  0.949999988079071)
(X_4  0.949999988079071)
(X_5  0.949999988079071)
(X_6  0.9460784196853638)
(X_7  1.0421568155288696)
(X_8  1.0499999523162842)
(X_9  1.0499999523162842)
(X_10  1.0499999523162842)
(X_11  1.0460784435272217)
(X_12  1.0382353067398071)
(X_13  1.034313678741455)
(X_14  0.9264705777168274)
(X_15  0.9264705777168274)
(X_16  0.949999988079071)
(X_17  0.9382352828979492)
(X_18  0.9225490093231201)
(X_19  0.9225490093231201)
(X_20  0.9303921461105347)
(X_21  1.0303921699523926)
(X_22  1.022549033164978)
(X_23  1.0147058963775635)
(X_24  0.9264705777168274)
(X_25  0.9186274409294128)
(X_26  0.9107843041419983)
(X_27  0.9029411673545837)
(X_28  0.6068627834320068)
(X_29  0.5029411911964417)
(X_30  0.5029411911964417)
(X_31  0.4990196228027344)
(X_32  0.4911764860153198)
(X_33  0.48725491762161255)
(X_34  0.479411780834198)
(X_35  0.4754902124404907)
(X_36  0.5323529243469238)
(X_37  0.42843136191368103)
(X_38  0.5284313559532166)
(X_39  0.5245097875595093)
(X_40  0.5166666507720947)
(X_41  0.5127450823783875)
(X_42  0.5127450823783875)
(X_43  0.5088235139846802)
(X_44  0.48137256503105164)
(X_45  0.4696078598499298)
(X_46  0.3578431308269501)
(X_47  0.3499999940395355)
(X_48  0.3539215624332428)
(X_49  0.4539215862751007)
(X_50  0.4421568810939789)
(X_51  0.43431374430656433)
(X_52  0.3911764919757843)
(X_53  0.2872548997402191)
(X_54  0.27941176295280457)
(X_55  0.27156862616539)
(X_56  0.04803921654820442)
(X_57  0.04803921654820442)
(X_58  0.04803921654820442)
(X_59  0.14803922176361084)
(X_60  0.14803922176361084)
(X_61  0.04803921654820442)
(X_62  0.04803921654820442)
(X_63  0.04803921654820442)
(X_64  0.05980392172932625)
(X_65  0.05980392172932625)
(X_66  0.15980392694473267)
(X_67  0.1558823585510254)
(X_68  0.1558823585510254)
(X_69  0.15196079015731812)
(X_70  0.15196079015731812)
(X_71  0.15196079015731812)
(X_72  0.07941177487373352)
(X_73  0.0676470622420311)
(X_74  0.05980392172932625)
(X_75  0.05588235333561897)
(X_76  0.05588235333561897)
(X_77  0.1558823585510254)
(X_78  0.15196079015731812)
(X_79  0.14803922176361084)
(X_80  0.15980392694473267)
(X_81  0.1558823585510254)
(X_82  0.15196079015731812)
(X_83  0.14803922176361084)
(X_84  0.02450980618596077)
(X_85  0.02450980618596077)
(X_86  0.020588237792253494)
(X_87  0.020588237792253494)
(X_88  0.12058823555707932)
(X_89  0.12058823555707932)
(X_90  0.12058823555707932)
(X_91  0.12058823555707932)
(X_92  0.01666666939854622)
(X_93  0.020588237792253494)
(X_94  0.12058823555707932)
(X_95  0.12058823555707932)
(X_96  0.12058823555707932)
(X_97  0.12058823555707932)
(X_98  0.12058823555707932)
(X_99  0.020588237792253494)
(X_100  0.1401960849761963)
(X_101  0.136274516582489)
(X_102  0.036274511367082596)
(X_103  0.036274511367082596)
(X_104  0.036274511367082596)
(X_105  0.04019607976078987)
(X_106  0.14411765336990356)
(X_107  0.14411765336990356)
(X_108  0.028431374579668045)
(X_109  0.02450980618596077)
(X_110  0.02450980618596077)
(X_111  0.12450980395078659)
(X_112  0.12450980395078659)
(X_113  0.12058823555707932)
(X_114  0.11274509876966476)
(X_115  0.10490196198225021)
(X_116  0.10098039358854294)
(X_117  0.0009803927969187498)
(X_118  0.0009803927969187498)
(X_119  0.0009803927969187498)
(X_120  0.012745101936161518)
(X_121  0.012745101936161518)
(X_122  0.01666666939854622)
(X_123  0.11666666716337204)
(X_124  0.11666666716337204)
(X_125  0.12058823555707932)
(X_126  0.12058823555707932)
(X_127  0.020588237792253494)
(X_128  0.11274509876966476)
(X_129  0.11274509876966476)
(X_130  0.11274509876966476)
(X_131  0.008823529817163944)
(X_132  0.008823529817163944)
(X_133  0.008823529817163944)
(X_134  0.012745101936161518)
(X_135  0.01666666939854622)
(X_136  0.10490196198225021)
(X_137  0.10882353037595749)
(X_138  0.10882353037595749)
(X_139  0.10882353037595749)
(X_140  0.11274509876966476)
(X_141  0.10882353037595749)
(X_142  0.008823529817163944)
(X_143  0.11274509876966476)
(X_144  0.12058823555707932)
(X_145  0.12843137979507446)
(X_146  0.1401960849761963)
(X_147  0.04803921654820442)
(X_148  0.10098039358854294)
(X_149  0.0009803927969187498)
(X_150  0.0009803927969187498)
(X_151  0.10098039358854294)
(X_152  0.10098039358854294)
(X_153  0.10098039358854294)
(X_154  0.10098039358854294)
(X_155  0.10490196198225021)
(X_156  0.12058823555707932)
(X_157  0.12058823555707932)
(X_158  0.020588237792253494)
(X_159  0.012745101936161518)
(X_160  0.004901961423456669)
(X_161  0.10098039358854294)
(X_162  0.10490196198225021)
(X_163  0.10882353037595749)
(X_164  0.11666666716337204)
(X_165  0.12058823555707932)
(X_166  0.12450980395078659)
(X_167  0.12843137979507446)
(X_168  0.02450980618596077)
(X_169  0.020588237792253494)
(X_170  0.008823529817163944)
(X_171  0.0009803927969187498)
(X_172  -0.0029411755967885256)
(X_173  0.0009803927969187498)
(X_174  0.004901961423456669)
(X_175  0.008823529817163944)
(X_176  0.01666666939854622)
(X_177  0.01666666939854622)
(X_178  0.01666666939854622)
(X_179  0.01666666939854622)
(X_180  0.11666666716337204)
(X_181  0.11666666716337204)
(X_182  0.11274509876966476)
(X_183  0.11274509876966476)
(X_184  0.004901961423456669)
(X_185  0.012745101936161518)
(X_186  0.01666666939854622)
(X_187  0.01666666939854622)
(X_188  0.008823529817163944)
(X_189  0.11274509876966476)
(X_190  0.12058823555707932)
(X_191  0.13235294818878174)
(X_192  0.08921568840742111)
(X_193  0.09313725680112839)
(X_194  0.10098039358854294)
(X_195  0.10490196198225021)
(X_196  0.3401961028575897)
(X_197  0.31666669249534607)
(X_198  0.2774509787559509)
(X_199  0.2343137264251709)
(X_200  0.09117648005485535)
(X_201  0.05588235333561897)
(X_202  0.03235294297337532)
(X_203  0.020588237792253494)
(X_204  0.012745101936161518)
(X_205  0.012745101936161518)
(X_206  0.012745101936161518)
(X_207  0.012745101936161518)
(X_208  0.008823529817163944)
(X_209  0.008823529817163944)
(X_210  0.10490196198225021)
(X_211  0.10490196198225021)
(X_212  0.08529412001371384)
(X_213  0.09705882519483566)
(X_214  0.11274509876966476)
(X_215  0.020588237792253494)
(X_216  0.028431374579668045)
(X_217  0.04019607976078987)
(X_218  0.05980392172932625)
(X_219  0.07549020648002625)
(X_220  0.13823530077934265)
(X_221  0.24215686321258545)
(X_222  0.15000000596046448)
(X_223  0.15784314274787903)
(X_224  0.44607844948768616)
(X_225  0.4382353127002716)
(X_226  0.43039217591285706)
(X_227  0.43039217591285706)
(X_228  0.3186274468898773)
(X_229  0.28333333134651184)
(X_230  0.22843138873577118)
(X_231  0.18921568989753723)
(X_232  0.21470588445663452)
(X_233  0.16764706373214722)
(X_234  0.12058823555707932)
(X_235  0.10098039358854294)
(X_236  0.11274509876966476)
(X_237  0.12058823555707932)
(X_238  0.11274509876966476)
(X_239  0.10098039358854294)
(X_240  0.13235294818878174)
(X_241  0.19509804248809814)
(X_242  0.2656862735748291)
(X_243  0.30490198731422424)
(X_244  0.23235295712947845)
(X_245  0.36764708161354065)
(X_246  0.39901962876319885)
(X_247  0.31470587849617004)
(X_248  0.4421568810939789)
(X_249  0.3382352888584137)
(X_250  0.3382352888584137)
(X_251  0.34215685725212097)
(X_252  0.24411766231060028)
(X_253  0.24411766231060028)
(X_254  0.24803923070430756)
(X_255  0.3598039448261261)
(X_256  0.3715686500072479)
(X_257  0.3715686500072479)
(X_258  0.3598039448261261)
(X_259  0.24803923070430756)
(X_260  0.22058825194835663)
(X_261  0.30098041892051697)
(X_262  0.27352941036224365)
(X_263  0.25)
(X_264  0.24215686321258545)
(X_265  0.24607843160629272)
(X_266  0.2539215683937073)
(X_267  0.1617647111415863)
(X_268  0.22058825194835663)
(X_269  0.2598039209842682)
(X_270  0.3911764919757843)
(X_271  0.3950980603694916)
(X_272  0.2911764681339264)
(X_273  0.39901962876319885)
(X_274  0.40294119715690613)
(X_275  0.29901960492134094)
(X_276  0.27941176295280457)
(X_277  0.2754901945590973)
(X_278  0.26372548937797546)
(X_279  0.3558823764324188)
(X_280  0.21666668355464935)
(X_281  0.21274511516094208)
(X_282  0.20098040997982025)
(X_283  0.18529412150382996)
(X_284  0.16960784792900085)
(X_285  0.2656862735748291)
(X_286  0.27352941036224365)
(X_287  0.18137255311012268)
(X_288  0.27352941036224365)
(X_289  0.2774509787559509)
(X_290  0.27352941036224365)
(X_291  0.15000000596046448)
(X_292  0.22254902124404907)
(X_293  0.22254902124404907)
(X_294  0.15000000596046448)
(X_295  0.1774509847164154)
(X_296  0.18137255311012268)
(X_297  0.2970588207244873)
(X_298  0.30490198731422424)
(X_299  0.19705882668495178)
(X_300  0.20098040997982025)
(X_301  0.3088235557079315)
(X_302  0.30490198731422424)
(X_303  0.18921568989753723)
(X_304  0.2088235467672348)
(X_305  0.20490197837352753)
(X_306  0.20098040997982025)
(X_307  0.1931372582912445)
(X_308  0.3578431308269501)
(X_309  0.3578431308269501)
(X_310  0.3382352888584137)
(X_311  0.3068627417087555)
(X_312  0.27156862616539)
(X_313  0.2598039209842682)
(X_314  0.27156862616539)
(X_315  0.2911764681339264)
(X_316  0.2558823525905609)
(X_317  0.26764705777168274)
(X_318  0.27156862616539)
(X_319  0.25196078419685364)
(X_320  0.23235295712947845)
(X_321  0.33235296607017517)
(X_322  0.3598039448261261)
(X_323  0.3911764919757843)
(X_324  0.29901960492134094)
(X_325  0.3068627417087555)
(X_326  0.40294119715690613)
(X_327  0.40294119715690613)
(X_328  0.4225490391254425)
(X_329  0.34607842564582825)
(X_330  0.34607842564582825)
(X_331  0.33039215207099915)
(X_332  0.5049019455909729)
(X_333  0.5049019455909729)
(X_334  0.4009803831577301)
(X_335  0.4009803831577301)
(X_336  0.4166666567325592)
(X_337  0.4323529303073883)
(X_338  0.44411763548851013)
(X_339  0.44019606709480286)
(X_340  0.5284313559532166)
(X_341  0.5323529243469238)
(X_342  0.5598039627075195)
(X_343  0.48725491762161255)
(X_344  0.5598039627075195)
(X_345  0.5598039627075195)
(X_346  0.5558823943138123)
(X_347  0.5480391979217529)
(X_348  0.5480391979217529)
(X_349  0.5558823943138123)
(X_350  0.5715686678886414)
(X_351  0.479411780834198)
(X_352  0.5068627595901489)
(X_353  0.5029411911964417)
(X_354  0.5872549414634705)
(X_355  0.5754902362823486)
(X_356  0.4911764860153198)
(X_357  0.5107843279838562)
(X_358  0.5029411911964417)
(X_359  0.5833333730697632)
(X_360  0.45196080207824707)
(X_361  0.4480392038822174)
(X_362  0.4362744987010956)
(X_363  0.5245097875595093)
(X_364  0.15392157435417175)
(X_365  0.17352941632270813)
(X_366  0.1931372582912445)
(X_367  0.1931372582912445)
(X_368  0.2813725471496582)
(X_369  0.2813725471496582)
(X_370  0.2970588207244873)
(X_371  0.31666669249534607)
(X_372  0.23235295712947845)
(X_373  0.22058825194835663)
(X_374  0.2088235467672348)
(X_375  0.21274511516094208)
(X_376  0.3284313976764679)
(X_377  0.33627453446388245)
(X_378  0.33627453446388245)
(X_379  0.22843138873577118)
(X_380  0.23235295712947845)
(X_381  0.22843138873577118)
(X_382  0.2088235467672348)
(X_383  0.29313725233078003)
(X_384  0.30098041892051697)
(X_385  0.21274511516094208)
(X_386  0.2088235467672348)
(X_387  0.18921568989753723)
(X_388  0.3088235557079315)
(X_389  0.30490198731422424)
(X_390  0.19705882668495178)
(X_391  0.18921568989753723)
(X_392  0.13431373238563538)
(X_393  0.14215686917304993)
(X_394  0.14215686917304993)
(X_395  0.2343137264251709)
(X_396  0.21470588445663452)
(X_397  0.0990196168422699)
(X_398  0.19901961088180542)
(X_399  0.2029411792755127)
(X_400  0.22647058963775635)
(X_401  0.11862745881080627)
(X_402  0.11078432202339172)
(X_403  0.11078432202339172)
(X_404  0.12254902720451355)
(X_405  0.12647059559822083)
(X_406  0.22254902124404907)
(X_407  0.114705890417099)
(X_408  0.1303921639919281)
(X_409  0.13431373238563538)
(X_410  0.1303921639919281)
(X_411  0.11862745881080627)
(X_412  0.12254902720451355)
(X_413  0.13823530077934265)
(X_414  0.14215686917304993)
(X_415  0.23039215803146362)
(X_416  0.11078432202339172)
(X_417  0.11078432202339172)
(X_418  0.21078431606292725)
(X_419  0.21470588445663452)
(X_420  0.07549020648002625)
(X_421  0.18333333730697632)
(X_422  0.19117647409439087)
(X_423  0.19509804248809814)
(X_424  0.19509804248809814)
(X_425  0.19901961088180542)
(X_426  0.10686275362968445)
(X_427  0.114705890417099)
(X_428  0.19901961088180542)
(X_429  0.19901961088180542)
(X_430  0.19901961088180542)
(X_431  0.09509804844856262)
(X_432  0.19509804248809814)
(X_433  0.19117647409439087)
(X_434  0.19117647409439087)
(X_435  0.19509804248809814)
(X_436  0.0833333432674408)
(X_437  0.09509804844856262)
(X_438  0.19509804248809814)
(X_439  0.07941177487373352)
(X_440  0.07549020648002625)
(X_441  0.08725491166114807)
(X_442  0.09117648005485535)
(X_443  0.07941177487373352)
(X_444  0.0990196168422699)
(X_445  0.19509804248809814)
(X_446  0.19117647409439087)
(X_447  0.18333333730697632)
(X_448  0.06372549384832382)
(X_449  0.16372549533843994)
(X_450  0.16372549533843994)
(X_451  0.16372549533843994)
(X_452  0.16372549533843994)
(X_453  0.06372549384832382)
(X_454  0.06372549384832382)
(X_455  0.06372549384832382)
(X_456  0.0519607849419117)
(X_457  0.0519607849419117)
(X_458  0.15196079015731812)
(X_459  0.15196079015731812)
(X_460  0.15196079015731812)
(X_461  0.15196079015731812)
(X_462  0.15196079015731812)
(X_463  0.15196079015731812)
(X_464  0.15196079015731812)
(X_465  0.1558823585510254)
(X_466  0.1558823585510254)
(X_467  0.05980392172932625)
(X_468  0.06372549384832382)
(X_469  0.0676470622420311)
(X_470  0.07156863063573837)
(X_471  0.07156863063573837)
(X_472  0.1558823585510254)
(X_473  0.1558823585510254)
(X_474  0.1558823585510254)
(X_475  0.1558823585510254)
(X_476  0.020588237792253494)
(X_477  0.020588237792253494)
(X_478  0.020588237792253494)
(X_479  0.020588237792253494)
(X_480  0.020588237792253494)
(X_481  0.020588237792253494)
(X_482  0.020588237792253494)
(X_483  0.020588237792253494)
(X_484  0.03235294297337532)
(X_485  0.03235294297337532)
(X_486  0.03235294297337532)
(X_487  0.13235294818878174)
(X_488  0.13235294818878174)
(X_489  0.13235294818878174)
(X_490  0.13235294818878174)
(X_491  0.13235294818878174)
(X_492  0.13235294818878174)
(X_493  0.036274511367082596)
(X_494  0.036274511367082596)
(X_495  0.04019607976078987)
(X_496  0.04019607976078987)
(X_497  0.04411764815449715)
(X_498  0.04803921654820442)
(X_499  0.04803921654820442)
(X_500  0.01666666939854622)
(X_501  0.01666666939854622)
(X_502  0.11666666716337204)
(X_503  0.11666666716337204)
(X_504  0.004901961423456669)
(X_505  0.10490196198225021)
(X_506  0.10490196198225021)
(X_507  0.10490196198225021)
(X_508  0.10490196198225021)
(X_509  0.10490196198225021)
(X_510  0.004901961423456669)
(X_511  0.004901961423456669)
(X_512  0.008823529817163944)
(X_513  0.008823529817163944)
(X_514  0.008823529817163944)
(X_515  0.008823529817163944)
(X_516  0.10882353037595749)
(X_517  0.10882353037595749)
(X_518  0.10882353037595749)
(X_519  0.10882353037595749)
(X_520  0.11274509876966476)
(X_521  0.11274509876966476)
(X_522  0.11274509876966476)
(X_523  0.11274509876966476)
(X_524  0.11274509876966476)
(X_525  0.01666666939854622)
(X_526  0.01666666939854622)
(X_527  0.01666666939854622)
(X_528  0.004901961423456669)
(X_529  0.10490196198225021)
(X_530  0.004901961423456669)
(X_531  0.004901961423456669)
(X_532  0.004901961423456669)
(X_533  0.10490196198225021)
(X_534  0.004901961423456669)
(X_535  0.004901961423456669)
(X_536  0.10490196198225021)
(X_537  0.10490196198225021)
(X_538  0.10490196198225021)
(X_539  0.004901961423456669)
(X_540  0.0009803927969187498)
(X_541  0.0009803927969187498)
(X_542  0.10098039358854294)
(X_543  0.10098039358854294)
(X_544  0.10098039358854294)
(X_545  0.10098039358854294)
(X_546  0.0009803927969187498)
(X_547  0.0009803927969187498)
(X_548  0.10098039358854294)
(X_549  0.10098039358854294)
(X_550  0.10098039358854294)
(X_551  0.0009803927969187498)
(X_552  0.0009803927969187498)
(X_553  -0.0029411755967885256)
(X_554  -0.0029411755967885256)
(X_555  0.09705882519483566)
(X_556  0.008823529817163944)
(X_557  0.10882353037595749)
(X_558  0.008823529817163944)
(X_559  0.008823529817163944)
(X_560  -0.006862743757665157)
(X_561  -0.006862743757665157)
(X_562  -0.006862743757665157)
(X_563  -0.006862743757665157)
(X_564  -0.006862743757665157)
(X_565  -0.006862743757665157)
(X_566  -0.006862743757665157)
(X_567  -0.006862743757665157)
(X_568  0.10098039358854294)
(X_569  0.10098039358854294)
(X_570  0.10098039358854294)
(X_571  0.10098039358854294)
(X_572  0.10098039358854294)
(X_573  0.10098039358854294)
(X_574  0.0009803927969187498)
(X_575  0.10098039358854294)
(X_576  0.10098039358854294)
(X_577  0.10098039358854294)
(X_578  0.10098039358854294)
(X_579  0.0009803927969187498)
(X_580  -0.0029411755967885256)
(X_581  -0.0029411755967885256)
(X_582  -0.0029411755967885256)
(X_583  -0.0029411755967885256)
(X_584  -0.0029411755967885256)
(X_585  0.09705882519483566)
(X_586  -0.0029411755967885256)
(X_587  0.09705882519483566)
(X_588  0.09313725680112839)
(X_589  0.09313725680112839)
(X_590  0.09313725680112839)
(X_591  0.09313725680112839)
(X_592  -0.006862743757665157)
(X_593  -0.006862743757665157)
(X_594  -0.006862743757665157)
(X_595  -0.006862743757665157)
(X_596  0.0009803927969187498)
(X_597  0.0009803927969187498)
(X_598  0.0009803927969187498)
(X_599  0.10098039358854294)
(X_600  0.10098039358854294)
(X_601  0.10098039358854294)
(X_602  0.10098039358854294)
(X_603  0.10098039358854294)
(X_604  0.09705882519483566)
(X_605  0.10098039358854294)
(X_606  0.0009803927969187498)
(X_607  0.0009803927969187498)
(X_608  0.10098039358854294)
(X_609  0.0009803927969187498)
(X_610  0.0009803927969187498)
(X_611  0.0009803927969187498)
(X_612  0.09705882519483566)
(X_613  0.09705882519483566)
(X_614  0.09705882519483566)
(X_615  0.09705882519483566)
(X_616  0.0009803927969187498)
(X_617  0.10098039358854294)
(X_618  0.10098039358854294)
(X_619  0.10098039358854294)
(X_620  0.0009803927969187498)
(X_621  0.0009803927969187498)
(X_622  0.0009803927969187498)
(X_623  0.0009803927969187498)
(X_624  0.09313725680112839)
(X_625  0.09313725680112839)
(X_626  0.09313725680112839)
(X_627  -0.006862743757665157)
(X_628  0.09313725680112839)
(X_629  0.09313725680112839)
(X_630  0.09313725680112839)
(X_631  0.09313725680112839)
(X_632  -0.010784312151372433)
(X_633  -0.010784312151372433)
(X_634  -0.006862743757665157)
(X_635  -0.006862743757665157)
(X_636  -0.0029411755967885256)
(X_637  0.0009803927969187498)
(X_638  0.10098039358854294)
(X_639  0.10098039358854294)
(X_640  0.10098039358854294)
(X_641  0.10098039358854294)
(X_642  0.10098039358854294)
(X_643  0.10098039358854294)
(X_644  0.08921568840742111)
(X_645  0.08921568840742111)
(X_646  0.08921568840742111)
(X_647  -0.010784312151372433)
(X_648  -0.010784312151372433)
(X_649  -0.010784312151372433)
(X_650  -0.010784312151372433)
(X_651  -0.010784312151372433)
(X_652  -0.014705880545079708)
(X_653  -0.014705880545079708)
(X_654  -0.014705880545079708)
(X_655  -0.014705880545079708)
(X_656  0.08529412001371384)
(X_657  0.08529412001371384)
(X_658  0.08529412001371384)
(X_659  0.08529412001371384)
(X_660  0.07745098322629929)
(X_661  0.08137255162000656)
(X_662  -0.014705880545079708)
(X_663  -0.010784312151372433)
(X_664  -0.006862743757665157)
(X_665  -0.0029411755967885256)
(X_666  -0.0029411755967885256)
(X_667  0.0009803927969187498)
(X_668  -0.010784312151372433)
(X_669  -0.010784312151372433)
(X_670  0.08921568840742111)
(X_671  0.08921568840742111)
(X_672  -0.014705880545079708)
(X_673  0.08529412001371384)
(X_674  0.08529412001371384)
(X_675  0.08529412001371384)
(X_676  0.08529412001371384)
(X_677  0.08529412001371384)
(X_678  0.08529412001371384)
(X_679  0.08529412001371384)
(X_680  0.08529412001371384)
(X_681  0.08137255162000656)
(X_682  -0.022549020126461983)
(X_683  -0.022549020126461983)
(X_684  -0.014705880545079708)
(X_685  0.08529412001371384)
(X_686  0.08137255162000656)
(X_687  0.07745098322629929)
(X_688  -0.010784312151372433)
(X_689  0.08921568840742111)
(X_690  0.08529412001371384)
(X_691  0.08137255162000656)
(X_692  -0.018627449870109558)
(X_693  0.08529412001371384)
(X_694  0.08921568840742111)
(X_695  0.08921568840742111)
(X_696  0.08529412001371384)
(X_697  -0.014705880545079708)
(X_698  -0.014705880545079708)
(X_699  0.08529412001371384)
(X_700  0.08137255162000656)
(X_701  0.08137255162000656)
(X_702  0.08137255162000656)
(X_703  0.08137255162000656)
(X_704  0.08137255162000656)
(X_705  -0.018627449870109558)
(X_706  -0.018627449870109558)
(X_707  -0.018627449870109558)
(X_708  -0.014705880545079708)
(X_709  -0.018627449870109558)
(X_710  -0.026470588520169258)
(X_711  -0.022549020126461983)
(X_712  -0.014705880545079708)
(X_713  0.08529412001371384)
(X_714  0.08137255162000656)
(X_715  0.07745098322629929)
(X_716  -0.014705880545079708)
(X_717  -0.014705880545079708)
(X_718  -0.018627449870109558)
(X_719  -0.018627449870109558)
(X_720  -0.018627449870109558)
(X_721  -0.018627449870109558)
(X_722  -0.014705880545079708)
(X_723  -0.014705880545079708)
(X_724  -0.018627449870109558)
(X_725  -0.018627449870109558)
(X_726  -0.018627449870109558)
(X_727  -0.018627449870109558)
(X_728  0.07745098322629929)
(X_729  0.07745098322629929)
(X_730  0.07745098322629929)
(X_731  0.07745098322629929)
(X_732  0.07745098322629929)
(X_733  0.07745098322629929)
(X_734  -0.022549020126461983)
(X_735  0.07745098322629929)
(X_736  -0.014705880545079708)
(X_737  -0.022549020126461983)
(X_738  -0.026470588520169258)
(X_739  -0.022549020126461983)
(X_740  -0.018627449870109558)
(X_741  -0.014705880545079708)
(X_742  -0.018627449870109558)
(X_743  -0.026470588520169258)
(X_744  -0.018627449870109558)
(X_745  0.07745098322629929)
(X_746  -0.022549020126461983)
(X_747  0.07352941483259201)
(X_748  0.07352941483259201)
(X_749  0.07745098322629929)
(X_750  0.07745098322629929)
(X_751  0.08137255162000656)
(X_752  0.07745098322629929)
(X_753  0.07745098322629929)
(X_754  0.07745098322629929)
(X_755  0.07745098322629929)
(X_756  -0.026470588520169258)
(X_757  -0.026470588520169258)
(X_758  -0.026470588520169258)
(X_759  0.07352941483259201)
(X_760  0.07352941483259201)
(X_761  -0.026470588520169258)
(X_762  -0.026470588520169258)
(X_763  -0.026470588520169258)
(X_764  -0.018627449870109558)
(X_765  -0.022549020126461983)
(X_766  0.07352941483259201)
(X_767  0.07352941483259201)
(X_768  0.08137255162000656)
(X_769  0.08529412001371384)
(X_770  0.07745098322629929)
(X_771  0.07352941483259201)
(X_772  -0.022549020126461983)
(X_773  -0.026470588520169258)
(X_774  -0.026470588520169258)
(X_775  -0.030392156913876534)
(X_776  -0.030392156913876534)
(X_777  -0.026470588520169258)
(X_778  0.07352941483259201)
(X_779  0.07745098322629929)
(X_780  0.07352941483259201)
(X_781  -0.026470588520169258)
(X_782  -0.026470588520169258)
(X_783  -0.026470588520169258)
(Y_0 36.884830474853516)
(Y_1 -24.63780403137207)
(Y_2 20.457040786743164)
(Y_3 -33.60517883300781))