((X_0  1.0303921699523926)
(X_1  0.9225490093231201)
(X_2  0.9186274409294128)
(X_3  0.9186274409294128)
(X_4  0.9147058725357056)
(X_5  0.906862735748291)
(X_6  0.9911764860153198)
(X_7  0.9754902124404907)
(X_8  0.9872549176216125)
(X_9  0.979411780834198)
(X_10  0.9676470756530762)
(X_11  0.9637255072593689)
(X_12  0.9598039388656616)
(X_13  0.9519608020782471)
(X_14  0.8401960730552673)
(X_15  0.8323529362678528)
(X_16  0.8166666626930237)
(X_17  0.8166666626930237)
(X_18  0.8088235259056091)
(X_19  0.8009803891181946)
(X_20  0.7892156839370728)
(X_21  0.7774509787559509)
(X_22  0.7696078419685364)
(X_23  0.8617647290229797)
(X_24  0.7460784316062927)
(X_25  0.7382352948188782)
(X_26  0.7303921580314636)
(X_27  0.8186274766921997)
(X_28  0.4735294282436371)
(X_29  0.3656862676143646)
(X_30  0.3578431308269501)
(X_31  0.4539215862751007)
(X_32  0.3539215624332428)
(X_33  0.34607842564582825)
(X_34  0.33039215207099915)
(X_35  0.3225490152835846)
(X_36  0.4068627655506134)
(X_37  0.3950980603694916)
(X_38  0.3794117867946625)
(X_39  0.3715686500072479)
(X_40  0.3637255132198334)
(X_41  0.3558823764324188)
(X_42  0.3401961028575897)
(X_43  0.33235296607017517)
(X_44  0.1931372582912445)
(X_45  0.18921568989753723)
(X_46  0.18921568989753723)
(X_47  0.18137255311012268)
(X_48  0.17352941632270813)
(X_49  0.16568627953529358)
(X_50  0.25784313678741455)
(X_51  0.2539215683937073)
(X_52  0.24607843160629272)
(X_53  0.24215686321258545)
(X_54  0.23823529481887817)
(X_55  0.23039215803146362)
(X_56  0.19117647409439087)
(X_57  0.0833333432674408)
(X_58  0.07549020648002625)
(X_59  0.07156863063573837)
(X_60  0.07549020648002625)
(X_61  0.17549020051956177)
(X_62  0.07156863063573837)
(X_63  0.0676470622420311)
(X_64  0.10294118523597717)
(X_65  0.09509804844856262)
(X_66  0.18333333730697632)
(X_67  0.17549020051956177)
(X_68  0.17549020051956177)
(X_69  0.16764706373214722)
(X_70  0.1558823585510254)
(X_71  0.14803922176361084)
(X_72  0.0990196168422699)
(X_73  0.0990196168422699)
(X_74  0.0990196168422699)
(X_75  0.0990196168422699)
(X_76  0.09509804844856262)
(X_77  0.19117647409439087)
(X_78  0.19117647409439087)
(X_79  0.19117647409439087)
(X_80  0.1872549057006836)
(X_81  0.18333333730697632)
(X_82  0.18333333730697632)
(X_83  0.0833333432674408)
(X_84  0.07549020648002625)
(X_85  0.0676470622420311)
(X_86  0.05980392172932625)
(X_87  0.16372549533843994)
(X_88  0.17549020051956177)
(X_89  0.1872549057006836)
(X_90  0.19117647409439087)
(X_91  0.19117647409439087)
(X_92  0.1872549057006836)
(X_93  0.18333333730697632)
(X_94  0.07941177487373352)
(X_95  0.0833333432674408)
(X_96  0.09117648005485535)
(X_97  0.09117648005485535)
(X_98  0.09117648005485535)
(X_99  0.0833333432674408)
(X_100  0.16372549533843994)
(X_101  0.16372549533843994)
(X_102  0.16372549533843994)
(X_103  0.16372549533843994)
(X_104  0.16764706373214722)
(X_105  0.1715686321258545)
(X_106  0.1715686321258545)
(X_107  0.17549020051956177)
(X_108  0.06372549384832382)
(X_109  0.06372549384832382)
(X_110  0.06372549384832382)
(X_111  0.0676470622420311)
(X_112  0.16372549533843994)
(X_113  0.1558823585510254)
(X_114  0.14411765336990356)
(X_115  0.14803922176361084)
(X_116  0.1558823585510254)
(X_117  0.16372549533843994)
(X_118  0.0676470622420311)
(X_119  0.0676470622420311)
(X_120  0.136274516582489)
(X_121  0.13235294818878174)
(X_122  0.028431374579668045)
(X_123  0.036274511367082596)
(X_124  0.04411764815449715)
(X_125  0.0519607849419117)
(X_126  0.04803921654820442)
(X_127  0.14411765336990356)
(X_128  0.0519607849419117)
(X_129  0.15196079015731812)
(X_130  0.15196079015731812)
(X_131  0.0519607849419117)
(X_132  0.05588235333561897)
(X_133  0.06372549384832382)
(X_134  0.07156863063573837)
(X_135  0.07549020648002625)
(X_136  0.04803921654820442)
(X_137  0.15196079015731812)
(X_138  0.15196079015731812)
(X_139  0.0519607849419117)
(X_140  0.17549020051956177)
(X_141  0.16764706373214722)
(X_142  0.05588235333561897)
(X_143  0.0519607849419117)
(X_144  0.1558823585510254)
(X_145  0.05588235333561897)
(X_146  0.04803921654820442)
(X_147  0.04411764815449715)
(X_148  0.16372549533843994)
(X_149  0.15980392694473267)
(X_150  0.15196079015731812)
(X_151  0.1558823585510254)
(X_152  0.15980392694473267)
(X_153  0.15980392694473267)
(X_154  0.1558823585510254)
(X_155  0.14803922176361084)
(X_156  0.1558823585510254)
(X_157  0.15196079015731812)
(X_158  0.04803921654820442)
(X_159  0.04803921654820442)
(X_160  0.0519607849419117)
(X_161  0.05588235333561897)
(X_162  0.16372549533843994)
(X_163  0.1715686321258545)
(X_164  0.1401960849761963)
(X_165  0.14411765336990356)
(X_166  0.14803922176361084)
(X_167  0.15196079015731812)
(X_168  0.05980392172932625)
(X_169  0.05588235333561897)
(X_170  0.0519607849419117)
(X_171  0.0519607849419117)
(X_172  0.05588235333561897)
(X_173  0.1558823585510254)
(X_174  0.14803922176361084)
(X_175  0.1401960849761963)
(X_176  0.04803921654820442)
(X_177  0.04411764815449715)
(X_178  0.036274511367082596)
(X_179  0.136274516582489)
(X_180  0.14411765336990356)
(X_181  0.14411765336990356)
(X_182  0.1401960849761963)
(X_183  0.13235294818878174)
(X_184  0.05980392172932625)
(X_185  0.05588235333561897)
(X_186  0.04803921654820442)
(X_187  0.04411764815449715)
(X_188  0.04411764815449715)
(X_189  0.14803922176361084)
(X_190  0.1558823585510254)
(X_191  0.15980392694473267)
(X_192  0.1401960849761963)
(X_193  0.14803922176361084)
(X_194  0.1558823585510254)
(X_195  0.16372549533843994)
(X_196  0.1401960849761963)
(X_197  0.1401960849761963)
(X_198  0.14803922176361084)
(X_199  0.15980392694473267)
(X_200  0.07156863063573837)
(X_201  0.07549020648002625)
(X_202  0.0676470622420311)
(X_203  0.06372549384832382)
(X_204  0.04803921654820442)
(X_205  0.04411764815449715)
(X_206  0.04411764815449715)
(X_207  0.04803921654820442)
(X_208  0.05980392172932625)
(X_209  0.06372549384832382)
(X_210  0.06372549384832382)
(X_211  0.05980392172932625)
(X_212  0.1715686321258545)
(X_213  0.16764706373214722)
(X_214  0.1558823585510254)
(X_215  0.14803922176361084)
(X_216  0.14803922176361084)
(X_217  0.15196079015731812)
(X_218  0.1558823585510254)
(X_219  0.16372549533843994)
(X_220  0.05588235333561897)
(X_221  0.06372549384832382)
(X_222  0.07549020648002625)
(X_223  0.08725491166114807)
(X_224  0.15980392694473267)
(X_225  0.16372549533843994)
(X_226  0.06372549384832382)
(X_227  0.16372549533843994)
(X_228  0.06372549384832382)
(X_229  0.0676470622420311)
(X_230  0.07549020648002625)
(X_231  0.0833333432674408)
(X_232  0.07941177487373352)
(X_233  0.17549020051956177)
(X_234  0.1715686321258545)
(X_235  0.16372549533843994)
(X_236  0.1558823585510254)
(X_237  0.15196079015731812)
(X_238  0.14803922176361084)
(X_239  0.14803922176361084)
(X_240  0.07549020648002625)
(X_241  0.0676470622420311)
(X_242  0.16372549533843994)
(X_243  0.16764706373214722)
(X_244  0.1715686321258545)
(X_245  0.16764706373214722)
(X_246  0.14803922176361084)
(X_247  0.03235294297337532)
(X_248  0.07156863063573837)
(X_249  0.07941177487373352)
(X_250  0.09117648005485535)
(X_251  0.19509804248809814)
(X_252  0.16764706373214722)
(X_253  0.1715686321258545)
(X_254  0.07156863063573837)
(X_255  0.0676470622420311)
(X_256  0.15980392694473267)
(X_257  0.14803922176361084)
(X_258  0.1401960849761963)
(X_259  0.1401960849761963)
(X_260  0.16372549533843994)
(X_261  0.15980392694473267)
(X_262  0.05588235333561897)
(X_263  0.1558823585510254)
(X_264  0.15980392694473267)
(X_265  0.16764706373214722)
(X_266  0.17549020051956177)
(X_267  0.07941177487373352)
(X_268  0.05980392172932625)
(X_269  0.04803921654820442)
(X_270  0.036274511367082596)
(X_271  0.04411764815449715)
(X_272  0.05980392172932625)
(X_273  0.07156863063573837)
(X_274  0.17941176891326904)
(X_275  0.17941176891326904)
(X_276  0.028431374579668045)
(X_277  0.04019607976078987)
(X_278  0.1558823585510254)
(X_279  0.15980392694473267)
(X_280  0.012745101936161518)
(X_281  0.02450980618596077)
(X_282  0.04019607976078987)
(X_283  0.05588235333561897)
(X_284  0.06372549384832382)
(X_285  0.16764706373214722)
(X_286  0.15980392694473267)
(X_287  0.05588235333561897)
(X_288  0.1401960849761963)
(X_289  0.136274516582489)
(X_290  0.13235294818878174)
(X_291  0.13235294818878174)
(X_292  0.136274516582489)
(X_293  0.14411765336990356)
(X_294  0.15196079015731812)
(X_295  0.1558823585510254)
(X_296  0.1715686321258545)
(X_297  0.15980392694473267)
(X_298  0.04411764815449715)
(X_299  0.036274511367082596)
(X_300  0.03235294297337532)
(X_301  0.13235294818878174)
(X_302  0.12450980395078659)
(X_303  0.12058823555707932)
(X_304  0.12843137979507446)
(X_305  0.04019607976078987)
(X_306  0.0519607849419117)
(X_307  0.05980392172932625)
(X_308  0.05588235333561897)
(X_309  0.1558823585510254)
(X_310  0.1558823585510254)
(X_311  0.05588235333561897)
(X_312  0.0519607849419117)
(X_313  0.04411764815449715)
(X_314  0.028431374579668045)
(X_315  0.01666666939854622)
(X_316  0.04803921654820442)
(X_317  0.04411764815449715)
(X_318  0.04411764815449715)
(X_319  0.04411764815449715)
(X_320  0.14411765336990356)
(X_321  0.1401960849761963)
(X_322  0.1401960849761963)
(X_323  0.136274516582489)
(X_324  0.01666666939854622)
(X_325  0.12450980395078659)
(X_326  0.136274516582489)
(X_327  0.15196079015731812)
(X_328  0.05980392172932625)
(X_329  0.05588235333561897)
(X_330  0.04803921654820442)
(X_331  0.04019607976078987)
(X_332  0.13235294818878174)
(X_333  0.14411765336990356)
(X_334  0.05588235333561897)
(X_335  0.15980392694473267)
(X_336  0.1401960849761963)
(X_337  0.13235294818878174)
(X_338  0.12450980395078659)
(X_339  0.028431374579668045)
(X_340  0.036274511367082596)
(X_341  0.04019607976078987)
(X_342  0.036274511367082596)
(X_343  0.028431374579668045)
(X_344  0.04411764815449715)
(X_345  0.04803921654820442)
(X_346  0.05588235333561897)
(X_347  0.06372549384832382)
(X_348  0.16764706373214722)
(X_349  0.16764706373214722)
(X_350  0.16372549533843994)
(X_351  0.15980392694473267)
(X_352  0.0519607849419117)
(X_353  0.1558823585510254)
(X_354  0.1558823585510254)
(X_355  0.05588235333561897)
(X_356  0.0519607849419117)
(X_357  0.04803921654820442)
(X_358  0.04411764815449715)
(X_359  0.04019607976078987)
(X_360  0.036274511367082596)
(X_361  0.04803921654820442)
(X_362  0.06372549384832382)
(X_363  0.0676470622420311)
(X_364  0.0676470622420311)
(X_365  0.0519607849419117)
(X_366  0.036274511367082596)
(X_367  0.036274511367082596)
(X_368  0.04803921654820442)
(X_369  0.05588235333561897)
(X_370  0.0519607849419117)
(X_371  0.04411764815449715)
(X_372  0.008823529817163944)
(X_373  0.012745101936161518)
(X_374  0.020588237792253494)
(X_375  0.028431374579668045)
(X_376  0.136274516582489)
(X_377  0.14803922176361084)
(X_378  0.1558823585510254)
(X_379  0.15980392694473267)
(X_380  0.14803922176361084)
(X_381  0.14411765336990356)
(X_382  0.036274511367082596)
(X_383  0.028431374579668045)
(X_384  0.02450980618596077)
(X_385  0.036274511367082596)
(X_386  0.05588235333561897)
(X_387  0.07156863063573837)
(X_388  0.16764706373214722)
(X_389  0.18333333730697632)
(X_390  0.19901961088180542)
(X_391  0.21470588445663452)
(X_392  0.29509803652763367)
(X_393  0.3637255132198334)
(X_394  0.3284313976764679)
(X_395  0.2970588207244873)
(X_396  0.17352941632270813)
(X_397  0.14215686917304993)
(X_398  0.10294118523597717)
(X_399  0.17549020051956177)
(X_400  0.0833333432674408)
(X_401  0.16764706373214722)
(X_402  0.14411765336990356)
(X_403  0.12450980395078659)
(X_404  0.12058823555707932)
(X_405  0.12843137979507446)
(X_406  0.14411765336990356)
(X_407  0.1558823585510254)
(X_408  0.10490196198225021)
(X_409  0.03235294297337532)
(X_410  0.07156863063573837)
(X_411  0.11078432202339172)
(X_412  0.15000000596046448)
(X_413  0.19705882668495178)
(X_414  0.3401961028575897)
(X_415  0.36764708161354065)
(X_416  0.3539215624332428)
(X_417  0.46568629145622253)
(X_418  0.48137256503105164)
(X_419  0.4892157018184662)
(X_420  0.3970588147640228)
(X_421  0.385294109582901)
(X_422  0.4735294282436371)
(X_423  0.47745099663734436)
(X_424  0.4852941334247589)
(X_425  0.4735294282436371)
(X_426  0.34215685725212097)
(X_427  0.3186274468898773)
(X_428  0.25196078419685364)
(X_429  0.3127451241016388)
(X_430  0.25784313678741455)
(X_431  0.2029411792755127)
(X_432  0.16764706373214722)
(X_433  0.16764706373214722)
(X_434  0.17941176891326904)
(X_435  0.09509804844856262)
(X_436  0.18137255311012268)
(X_437  0.2245098203420639)
(X_438  0.28333333134651184)
(X_439  0.32647058367729187)
(X_440  0.34607842564582825)
(X_441  0.34607842564582825)
(X_442  0.34607842564582825)
(X_443  0.34215685725212097)
(X_444  0.43039217591285706)
(X_445  0.4382353127002716)
(X_446  0.44607844948768616)
(X_447  0.34215685725212097)
(X_448  0.29901960492134094)
(X_449  0.29901960492134094)
(X_450  0.29901960492134094)
(X_451  0.3029411733150482)
(X_452  0.3029411733150482)
(X_453  0.3029411733150482)
(X_454  0.3068627417087555)
(X_455  0.3068627417087555)
(X_456  0.4107843339443207)
(X_457  0.4107843339443207)
(X_458  0.41470590233802795)
(X_459  0.41470590233802795)
(X_460  0.41862747073173523)
(X_461  0.4225490391254425)
(X_462  0.4264706075191498)
(X_463  0.4264706075191498)
(X_464  0.41470590233802795)
(X_465  0.41470590233802795)
(X_466  0.31470587849617004)
(X_467  0.31078431010246277)
(X_468  0.29901960492134094)
(X_469  0.2872548997402191)
(X_470  0.27156862616539)
(X_471  0.26372548937797546)
(X_472  0.27156862616539)
(X_473  0.24411766231060028)
(X_474  0.2245098203420639)
(X_475  0.32058826088905334)
(X_476  0.20098040997982025)
(X_477  0.20490197837352753)
(X_478  0.21274511516094208)
(X_479  0.2245098203420639)
(X_480  0.33627453446388245)
(X_481  0.24803923070430756)
(X_482  0.2558823525905609)
(X_483  0.2598039209842682)
(X_484  0.26764705777168274)
(X_485  0.26372548937797546)
(X_486  0.2598039209842682)
(X_487  0.35196080803871155)
(X_488  0.344117671251297)
(X_489  0.33627453446388245)
(X_490  0.3284313976764679)
(X_491  0.3245098292827606)
(X_492  0.3598039448261261)
(X_493  0.25196078419685364)
(X_494  0.23627452552318573)
(X_495  0.21666668355464935)
(X_496  0.2970588207244873)
(X_497  0.2813725471496582)
(X_498  0.16960784792900085)
(X_499  0.1617647111415863)
(X_500  0.14215686917304993)
(X_501  0.13431373238563538)
(X_502  0.1460784375667572)
(X_503  0.17352941632270813)
(X_504  0.12647059559822083)
(X_505  0.12647059559822083)
(X_506  0.23039215803146362)
(X_507  0.2343137264251709)
(X_508  0.2343137264251709)
(X_509  0.23823529481887817)
(X_510  0.14215686917304993)
(X_511  0.14215686917304993)
(X_512  0.15392157435417175)
(X_513  0.15784314274787903)
(X_514  0.15784314274787903)
(X_515  0.16568627953529358)
(X_516  0.2696078419685364)
(X_517  0.27352941036224365)
(X_518  0.17352941632270813)
(X_519  0.1774509847164154)
(X_520  0.1460784375667572)
(X_521  0.25)
(X_522  0.25784313678741455)
(X_523  0.16960784792900085)
(X_524  0.29313725233078003)
(X_525  0.32058826088905334)
(X_526  0.24411766231060028)
(X_527  0.2558823525905609)
(X_528  0.34607842564582825)
(X_529  0.3343137204647064)
(X_530  0.34215685725212097)
(X_531  0.46176472306251526)
(X_532  0.26372548937797546)
(X_533  0.26372548937797546)
(X_534  0.26372548937797546)
(X_535  0.3598039448261261)
(X_536  0.3598039448261261)
(X_537  0.3558823764324188)
(X_538  0.3558823764324188)
(X_539  0.2558823525905609)
(X_540  0.26764705777168274)
(X_541  0.27156862616539)
(X_542  0.28333333134651184)
(X_543  0.39901962876319885)
(X_544  0.4107843339443207)
(X_545  0.4264706075191498)
(X_546  0.3343137204647064)
(X_547  0.4421568810939789)
(X_548  0.36176469922065735)
(X_549  0.457843154668808)
(X_550  0.457843154668808)
(X_551  0.3539215624332428)
(X_552  0.3539215624332428)
(X_553  0.36176469922065735)
(X_554  0.46568629145622253)
(X_555  0.4696078598499298)
(X_556  0.387254923582077)
(X_557  0.3558823764324188)
(X_558  0.23235295712947845)
(X_559  0.22843138873577118)
(X_560  0.24411766231060028)
(X_561  0.24803923070430756)
(X_562  0.25196078419685364)
(X_563  0.2598039209842682)
(X_564  0.26764705777168274)
(X_565  0.27941176295280457)
(X_566  0.28333333134651184)
(X_567  0.387254923582077)
(X_568  0.3911764919757843)
(X_569  0.2911764681339264)
(X_570  0.2872548997402191)
(X_571  0.2872548997402191)
(X_572  0.2872548997402191)
(X_573  0.2872548997402191)
(X_574  0.2872548997402191)
(X_575  0.2872548997402191)
(X_576  0.2598039209842682)
(X_577  0.3558823764324188)
(X_578  0.344117671251297)
(X_579  0.3284313976764679)
(X_580  0.3088235557079315)
(X_581  0.2852941155433655)
(X_582  0.16568627953529358)
(X_583  0.15392157435417175)
(X_584  0.13823530077934265)
(X_585  0.11078432202339172)
(X_586  0.09509804844856262)
(X_587  0.10294118523597717)
(X_588  0.1872549057006836)
(X_589  0.1872549057006836)
(X_590  0.19117647409439087)
(X_591  0.09509804844856262)
(X_592  0.09509804844856262)
(X_593  0.0990196168422699)
(X_594  0.2029411792755127)
(X_595  0.2029411792755127)
(X_596  0.0990196168422699)
(X_597  0.09509804844856262)
(X_598  0.19117647409439087)
(X_599  0.1872549057006836)
(X_600  0.18333333730697632)
(X_601  0.17549020051956177)
(X_602  0.17549020051956177)
(X_603  0.1715686321258545)
(X_604  0.0833333432674408)
(X_605  0.09117648005485535)
(X_606  0.09509804844856262)
(X_607  0.2029411792755127)
(X_608  0.19901961088180542)
(X_609  0.19509804248809814)
(X_610  0.0833333432674408)
(X_611  0.07941177487373352)
(X_612  0.15196079015731812)
(X_613  0.14411765336990356)
(X_614  0.15196079015731812)
(X_615  0.07941177487373352)
(X_616  0.07549020648002625)
(X_617  0.07156863063573837)
(X_618  0.16764706373214722)
(X_619  0.16372549533843994)
(X_620  0.05588235333561897)
(X_621  0.15196079015731812)
(X_622  0.04803921654820442)
(X_623  0.04803921654820442)
(X_624  0.04019607976078987)
(X_625  0.04411764815449715)
(X_626  0.04411764815449715)
(X_627  0.04803921654820442)
(X_628  0.15196079015731812)
(X_629  0.1558823585510254)
(X_630  0.15980392694473267)
(X_631  0.15980392694473267)
(X_632  0.06372549384832382)
(X_633  0.15980392694473267)
(X_634  0.1558823585510254)
(X_635  0.14803922176361084)
(X_636  0.1401960849761963)
(X_637  0.028431374579668045)
(X_638  0.12058823555707932)
(X_639  0.11666666716337204)
(X_640  0.15196079015731812)
(X_641  0.14803922176361084)
(X_642  0.15980392694473267)
(X_643  0.18333333730697632)
(X_644  0.09705882519483566)
(X_645  0.09705882519483566)
(X_646  0.0009803927969187498)
(X_647  0.004901961423456669)
(X_648  0.012745101936161518)
(X_649  0.11666666716337204)
(X_650  0.12058823555707932)
(X_651  0.12058823555707932)
(X_652  0.12058823555707932)
(X_653  0.020588237792253494)
(X_654  0.02450980618596077)
(X_655  0.02450980618596077)
(X_656  0.12450980395078659)
(X_657  0.12450980395078659)
(X_658  0.12843137979507446)
(X_659  0.12843137979507446)
(X_660  0.12843137979507446)
(X_661  0.020588237792253494)
(X_662  0.012745101936161518)
(X_663  0.008823529817163944)
(X_664  0.008823529817163944)
(X_665  0.012745101936161518)
(X_666  0.01666666939854622)
(X_667  0.02450980618596077)
(X_668  0.020588237792253494)
(X_669  0.004901961423456669)
(X_670  0.004901961423456669)
(X_671  0.12843137979507446)
(X_672  0.012745101936161518)
(X_673  0.012745101936161518)
(X_674  0.012745101936161518)
(X_675  0.11274509876966476)
(X_676  0.11274509876966476)
(X_677  0.11274509876966476)
(X_678  0.11274509876966476)
(X_679  0.11274509876966476)
(X_680  0.11274509876966476)
(X_681  0.11274509876966476)
(X_682  0.11274509876966476)
(X_683  0.012745101936161518)
(X_684  0.012745101936161518)
(X_685  0.11274509876966476)
(X_686  0.11274509876966476)
(X_687  0.11274509876966476)
(X_688  0.012745101936161518)
(X_689  0.11274509876966476)
(X_690  0.11274509876966476)
(X_691  0.012745101936161518)
(X_692  0.012745101936161518)
(X_693  0.11274509876966476)
(X_694  0.11274509876966476)
(X_695  0.11274509876966476)
(X_696  0.12058823555707932)
(X_697  0.020588237792253494)
(X_698  0.01666666939854622)
(X_699  0.01666666939854622)
(X_700  0.10882353037595749)
(X_701  0.10882353037595749)
(X_702  0.10882353037595749)
(X_703  0.10882353037595749)
(X_704  0.10882353037595749)
(X_705  0.008823529817163944)
(X_706  0.008823529817163944)
(X_707  0.008823529817163944)
(X_708  0.008823529817163944)
(X_709  0.008823529817163944)
(X_710  0.008823529817163944)
(X_711  0.008823529817163944)
(X_712  0.008823529817163944)
(X_713  0.008823529817163944)
(X_714  0.10882353037595749)
(X_715  0.10882353037595749)
(X_716  0.008823529817163944)
(X_717  0.10882353037595749)
(X_718  0.10882353037595749)
(X_719  0.008823529817163944)
(X_720  0.008823529817163944)
(X_721  0.008823529817163944)
(X_722  0.008823529817163944)
(X_723  0.008823529817163944)
(X_724  0.01666666939854622)
(X_725  0.01666666939854622)
(X_726  0.012745101936161518)
(X_727  0.10882353037595749)
(X_728  0.10490196198225021)
(X_729  0.004901961423456669)
(X_730  0.004901961423456669)
(X_731  0.10490196198225021)
(X_732  0.10490196198225021)
(X_733  0.10490196198225021)
(X_734  0.10490196198225021)
(X_735  0.10490196198225021)
(X_736  0.004901961423456669)
(X_737  0.004901961423456669)
(X_738  0.004901961423456669)
(X_739  0.004901961423456669)
(X_740  0.004901961423456669)
(X_741  0.10490196198225021)
(X_742  0.10490196198225021)
(X_743  0.10490196198225021)
(X_744  0.10490196198225021)
(X_745  0.10490196198225021)
(X_746  0.004901961423456669)
(X_747  0.004901961423456669)
(X_748  0.004901961423456669)
(X_749  0.004901961423456669)
(X_750  0.10490196198225021)
(X_751  0.10490196198225021)
(X_752  0.11274509876966476)
(X_753  0.10882353037595749)
(X_754  0.10490196198225021)
(X_755  0.10098039358854294)
(X_756  0.0009803927969187498)
(X_757  0.0009803927969187498)
(X_758  0.0009803927969187498)
(X_759  0.10098039358854294)
(X_760  0.10098039358854294)
(X_761  0.10098039358854294)
(X_762  0.10098039358854294)
(X_763  0.0009803927969187498)
(X_764  0.0009803927969187498)
(X_765  0.0009803927969187498)
(X_766  0.10098039358854294)
(X_767  0.10098039358854294)
(X_768  0.10098039358854294)
(X_769  0.10098039358854294)
(X_770  0.10098039358854294)
(X_771  0.10098039358854294)
(X_772  0.0009803927969187498)
(X_773  0.0009803927969187498)
(X_774  0.0009803927969187498)
(X_775  0.0009803927969187498)
(X_776  0.0009803927969187498)
(X_777  0.0009803927969187498)
(X_778  0.10098039358854294)
(X_779  0.10098039358854294)
(X_780  0.11666666716337204)
(X_781  0.012745101936161518)
(X_782  0.10490196198225021)
(X_783  0.09705882519483566)
(Y_0 26.03514862060547)
(Y_1 -1.454756259918213)
(Y_2 17.219329833984375)
(Y_3 -41.622459411621094))