((X_0  0.19117647409439087)
(X_1  0.17941176891326904)
(X_2  0.17549020051956177)
(X_3  0.17941176891326904)
(X_4  0.19509804248809814)
(X_5  0.19901961088180542)
(X_6  0.09509804844856262)
(X_7  0.08725491166114807)
(X_8  0.18333333730697632)
(X_9  0.18333333730697632)
(X_10  0.18333333730697632)
(X_11  0.17941176891326904)
(X_12  0.07549020648002625)
(X_13  0.18333333730697632)
(X_14  0.19901961088180542)
(X_15  0.11078432202339172)
(X_16  0.06372549384832382)
(X_17  0.09117648005485535)
(X_18  0.09117648005485535)
(X_19  0.07549020648002625)
(X_20  0.19509804248809814)
(X_21  0.22647058963775635)
(X_22  0.11078432202339172)
(X_23  0.06372549384832382)
(X_24  0.2186274528503418)
(X_25  0.19509804248809814)
(X_26  0.07549020648002625)
(X_27  0.1715686321258545)
(X_28  0.19901961088180542)
(X_29  0.19117647409439087)
(X_30  0.1872549057006836)
(X_31  0.19117647409439087)
(X_32  0.0990196168422699)
(X_33  0.0990196168422699)
(X_34  0.08725491166114807)
(X_35  0.17941176891326904)
(X_36  0.09509804844856262)
(X_37  0.07941177487373352)
(X_38  0.0676470622420311)
(X_39  0.07941177487373352)
(X_40  0.09509804844856262)
(X_41  0.09117648005485535)
(X_42  0.05588235333561897)
(X_43  0.02450980618596077)
(X_44  0.09117648005485535)
(X_45  0.07549020648002625)
(X_46  0.16764706373214722)
(X_47  0.07941177487373352)
(X_48  0.0833333432674408)
(X_49  0.07156863063573837)
(X_50  0.05980392172932625)
(X_51  0.0519607849419117)
(X_52  0.16372549533843994)
(X_53  0.17549020051956177)
(X_54  0.0990196168422699)
(X_55  0.21470588445663452)
(X_56  0.19117647409439087)
(X_57  0.09117648005485535)
(X_58  0.09117648005485535)
(X_59  0.09509804844856262)
(X_60  0.10294118523597717)
(X_61  0.0990196168422699)
(X_62  0.09117648005485535)
(X_63  0.07941177487373352)
(X_64  0.07941177487373352)
(X_65  0.09117648005485535)
(X_66  0.09509804844856262)
(X_67  0.07549020648002625)
(X_68  0.05980392172932625)
(X_69  0.07941177487373352)
(X_70  0.13823530077934265)
(X_71  0.18921568989753723)
(X_72  0.15784314274787903)
(X_73  0.14215686917304993)
(X_74  0.15000000596046448)
(X_75  0.25)
(X_76  0.19901961088180542)
(X_77  0.15196079015731812)
(X_78  0.19117647409439087)
(X_79  0.27352941036224365)
(X_80  0.19117647409439087)
(X_81  0.19901961088180542)
(X_82  0.19901961088180542)
(X_83  0.1872549057006836)
(X_84  0.17549020051956177)
(X_85  0.07941177487373352)
(X_86  0.08725491166114807)
(X_87  0.19509804248809814)
(X_88  0.19901961088180542)
(X_89  0.19509804248809814)
(X_90  0.09117648005485535)
(X_91  0.0833333432674408)
(X_92  0.19509804248809814)
(X_93  0.08725491166114807)
(X_94  0.0676470622420311)
(X_95  0.05588235333561897)
(X_96  0.09509804844856262)
(X_97  0.30490198731422424)
(X_98  0.46176472306251526)
(X_99  0.5794118046760559)
(X_100  0.6813725829124451)
(X_101  0.6421568989753723)
(X_102  0.5872549414634705)
(X_103  0.5127450823783875)
(X_104  0.3911764919757843)
(X_105  0.15392157435417175)
(X_106  0.0676470622420311)
(X_107  0.04803921654820442)
(X_108  0.2029411792755127)
(X_109  0.09117648005485535)
(X_110  0.07941177487373352)
(X_111  0.16764706373214722)
(X_112  0.07549020648002625)
(X_113  0.07941177487373352)
(X_114  0.18333333730697632)
(X_115  0.1872549057006836)
(X_116  0.18333333730697632)
(X_117  0.17549020051956177)
(X_118  0.1715686321258545)
(X_119  0.1715686321258545)
(X_120  0.10294118523597717)
(X_121  0.05588235333561897)
(X_122  0.04411764815449715)
(X_123  0.12647059559822083)
(X_124  0.2872548997402191)
(X_125  0.44019606709480286)
(X_126  0.5264706015586853)
(X_127  0.5539215803146362)
(X_128  0.6225490570068359)
(X_129  0.6107843518257141)
(X_130  0.5990196466445923)
(X_131  0.5990196466445923)
(X_132  0.6068627834320068)
(X_133  0.5676470994949341)
(X_134  0.4382353127002716)
(X_135  0.3127451241016388)
(X_136  0.0990196168422699)
(X_137  0.07549020648002625)
(X_138  0.16372549533843994)
(X_139  0.1715686321258545)
(X_140  0.1872549057006836)
(X_141  0.19117647409439087)
(X_142  0.19117647409439087)
(X_143  0.17941176891326904)
(X_144  0.0676470622420311)
(X_145  0.05588235333561897)
(X_146  0.05588235333561897)
(X_147  0.15980392694473267)
(X_148  0.15196079015731812)
(X_149  0.19901961088180542)
(X_150  0.2970588207244873)
(X_151  0.43039217591285706)
(X_152  0.5480391979217529)
(X_153  0.6068627834320068)
(X_154  0.6068627834320068)
(X_155  0.5833333730697632)
(X_156  0.5186274647712708)
(X_157  0.5656862854957581)
(X_158  0.665686309337616)
(X_159  0.6029412150382996)
(X_160  0.5598039627075195)
(X_161  0.45196080207824707)
(X_162  0.4362744987010956)
(X_163  0.5009803771972656)
(X_164  0.27156862616539)
(X_165  0.1931372582912445)
(X_166  0.09509804844856262)
(X_167  0.1401960849761963)
(X_168  0.0833333432674408)
(X_169  0.08725491166114807)
(X_170  0.18333333730697632)
(X_171  0.1715686321258545)
(X_172  0.15980392694473267)
(X_173  0.15980392694473267)
(X_174  0.07156863063573837)
(X_175  0.18333333730697632)
(X_176  0.21470588445663452)
(X_177  0.344117671251297)
(X_178  0.49705883860588074)
(X_179  0.5637255311012268)
(X_180  0.5480391979217529)
(X_181  0.5245097875595093)
(X_182  0.5441176295280457)
(X_183  0.5794118046760559)
(X_184  0.6813725829124451)
(X_185  0.7441176772117615)
(X_186  0.6676470637321472)
(X_187  0.5813725590705872)
(X_188  0.45196080207824707)
(X_189  0.39313724637031555)
(X_190  0.44019606709480286)
(X_191  0.6068627834320068)
(X_192  0.5401960611343384)
(X_193  0.45000001788139343)
(X_194  0.22843138873577118)
(X_195  0.14215686917304993)
(X_196  0.06372549384832382)
(X_197  0.16764706373214722)
(X_198  0.1715686321258545)
(X_199  0.16764706373214722)
(X_200  0.16372549533843994)
(X_201  0.17549020051956177)
(X_202  0.19901961088180542)
(X_203  0.22254902124404907)
(X_204  0.4068627655506134)
(X_205  0.47745099663734436)
(X_206  0.5441176295280457)
(X_207  0.5401960611343384)
(X_208  0.3970588147640228)
(X_209  0.3892156779766083)
(X_210  0.4480392038822174)
(X_211  0.5147058963775635)
(X_212  0.6264706254005432)
(X_213  0.638235330581665)
(X_214  0.5774509906768799)
(X_215  0.5970588326454163)
(X_216  0.5264706015586853)
(X_217  0.49705883860588074)
(X_218  0.4107843339443207)
(X_219  0.3950980603694916)
(X_220  0.5127450823783875)
(X_221  0.3970588147640228)
(X_222  0.385294109582901)
(X_223  0.37745097279548645)
(X_224  0.07156863063573837)
(X_225  0.04411764815449715)
(X_226  0.04803921654820442)
(X_227  0.07156863063573837)
(X_228  0.0676470622420311)
(X_229  0.08725491166114807)
(X_230  0.20098040997982025)
(X_231  0.3343137204647064)
(X_232  0.5166666507720947)
(X_233  0.385294109582901)
(X_234  0.4264706075191498)
(X_235  0.3794117867946625)
(X_236  0.2911764681339264)
(X_237  0.3735294044017792)
(X_238  0.47156864404678345)
(X_239  0.5264706015586853)
(X_240  0.4166666567325592)
(X_241  0.4735294282436371)
(X_242  0.5127450823783875)
(X_243  0.5245097875595093)
(X_244  0.5362744927406311)
(X_245  0.5088235139846802)
(X_246  0.29901960492134094)
(X_247  0.3715686500072479)
(X_248  0.3911764919757843)
(X_249  0.41862747073173523)
(X_250  0.3578431308269501)
(X_251  0.3735294044017792)
(X_252  0.1558823585510254)
(X_253  0.04411764815449715)
(X_254  0.06372549384832382)
(X_255  0.12647059559822083)
(X_256  0.31666669249534607)
(X_257  0.40294119715690613)
(X_258  0.46176472306251526)
(X_259  0.49313727021217346)
(X_260  0.33039215207099915)
(X_261  0.31470587849617004)
(X_262  0.3794117867946625)
(X_263  0.35196080803871155)
(X_264  0.26372548937797546)
(X_265  0.31470587849617004)
(X_266  0.36176469922065735)
(X_267  0.3813725411891937)
(X_268  0.36176469922065735)
(X_269  0.4107843339443207)
(X_270  0.43039217591285706)
(X_271  0.3382352888584137)
(X_272  0.37745097279548645)
(X_273  0.4892157018184662)
(X_274  0.38333335518836975)
(X_275  0.33235296607017517)
(X_276  0.3401961028575897)
(X_277  0.3480392396450043)
(X_278  0.26764705777168274)
(X_279  0.29509803652763367)
(X_280  0.12647059559822083)
(X_281  0.16960784792900085)
(X_282  0.22058825194835663)
(X_283  0.2754901945590973)
(X_284  0.34607842564582825)
(X_285  0.48137256503105164)
(X_286  0.4382353127002716)
(X_287  0.36764708161354065)
(X_288  0.26764705777168274)
(X_289  0.2558823525905609)
(X_290  0.2245098203420639)
(X_291  0.20098040997982025)
(X_292  0.3088235557079315)
(X_293  0.23627452552318573)
(X_294  0.24803923070430756)
(X_295  0.240196093916893)
(X_296  0.387254923582077)
(X_297  0.240196093916893)
(X_298  0.24411766231060028)
(X_299  0.23235295712947845)
(X_300  0.40294119715690613)
(X_301  0.46568629145622253)
(X_302  0.3794117867946625)
(X_303  0.21274511516094208)
(X_304  0.24803923070430756)
(X_305  0.240196093916893)
(X_306  0.23627452552318573)
(X_307  0.25196078419685364)
(X_308  0.3950980603694916)
(X_309  0.4382353127002716)
(X_310  0.3735294044017792)
(X_311  0.3578431308269501)
(X_312  0.31078431010246277)
(X_313  0.35196080803871155)
(X_314  0.30490198731422424)
(X_315  0.2696078419685364)
(X_316  0.35196080803871155)
(X_317  0.32058826088905334)
(X_318  0.2696078419685364)
(X_319  0.2343137264251709)
(X_320  0.23823529481887817)
(X_321  0.16960784792900085)
(X_322  0.1774509847164154)
(X_323  0.16568627953529358)
(X_324  0.3284313976764679)
(X_325  0.2970588207244873)
(X_326  0.30098041892051697)
(X_327  0.16960784792900085)
(X_328  0.240196093916893)
(X_329  0.34215685725212097)
(X_330  0.387254923582077)
(X_331  0.33627453446388245)
(X_332  0.3127451241016388)
(X_333  0.3127451241016388)
(X_334  0.21666668355464935)
(X_335  0.22843138873577118)
(X_336  0.36176469922065735)
(X_337  0.4382353127002716)
(X_338  0.41862747073173523)
(X_339  0.3911764919757843)
(X_340  0.3245098292827606)
(X_341  0.2696078419685364)
(X_342  0.19705882668495178)
(X_343  0.26764705777168274)
(X_344  0.3401961028575897)
(X_345  0.2088235467672348)
(X_346  0.15392157435417175)
(X_347  0.114705890417099)
(X_348  0.11862745881080627)
(X_349  0.13823530077934265)
(X_350  0.14215686917304993)
(X_351  0.22254902124404907)
(X_352  0.2774509787559509)
(X_353  0.2656862735748291)
(X_354  0.2852941155433655)
(X_355  0.14215686917304993)
(X_356  0.18529412150382996)
(X_357  0.3911764919757843)
(X_358  0.3754902184009552)
(X_359  0.3637255132198334)
(X_360  0.3911764919757843)
(X_361  0.41470590233802795)
(X_362  0.34607842564582825)
(X_363  0.3696078360080719)
(X_364  0.3558823764324188)
(X_365  0.30490198731422424)
(X_366  0.30490198731422424)
(X_367  0.35196080803871155)
(X_368  0.3558823764324188)
(X_369  0.32058826088905334)
(X_370  0.33235296607017517)
(X_371  0.2872548997402191)
(X_372  0.23235295712947845)
(X_373  0.2245098203420639)
(X_374  0.19705882668495178)
(X_375  0.2696078419685364)
(X_376  0.1617647111415863)
(X_377  0.15784314274787903)
(X_378  0.13823530077934265)
(X_379  0.20686274766921997)
(X_380  0.2343137264251709)
(X_381  0.23039215803146362)
(X_382  0.25784313678741455)
(X_383  0.21470588445663452)
(X_384  0.13431373238563538)
(X_385  0.21274511516094208)
(X_386  0.22058825194835663)
(X_387  0.35196080803871155)
(X_388  0.3480392396450043)
(X_389  0.3754902184009552)
(X_390  0.39901962876319885)
(X_391  0.31078431010246277)
(X_392  0.33627453446388245)
(X_393  0.3284313976764679)
(X_394  0.3558823764324188)
(X_395  0.40294119715690613)
(X_396  0.41470590233802795)
(X_397  0.3754902184009552)
(X_398  0.33235296607017517)
(X_399  0.21666668355464935)
(X_400  0.22843138873577118)
(X_401  0.23627452552318573)
(X_402  0.3245098292827606)
(X_403  0.2970588207244873)
(X_404  0.2696078419685364)
(X_405  0.2539215683937073)
(X_406  0.12647059559822083)
(X_407  0.19509804248809814)
(X_408  0.11078432202339172)
(X_409  0.09117648005485535)
(X_410  0.2186274528503418)
(X_411  0.19117647409439087)
(X_412  0.19509804248809814)
(X_413  0.25)
(X_414  0.2539215683937073)
(X_415  0.3088235557079315)
(X_416  0.24411766231060028)
(X_417  0.240196093916893)
(X_418  0.23235295712947845)
(X_419  0.21666668355464935)
(X_420  0.46568629145622253)
(X_421  0.39313724637031555)
(X_422  0.4892157018184662)
(X_423  0.4421568810939789)
(X_424  0.29509803652763367)
(X_425  0.2754901945590973)
(X_426  0.2558823525905609)
(X_427  0.33627453446388245)
(X_428  0.21274511516094208)
(X_429  0.22058825194835663)
(X_430  0.20098040997982025)
(X_431  0.15784314274787903)
(X_432  0.12254902720451355)
(X_433  0.10294118523597717)
(X_434  0.08725491166114807)
(X_435  0.07156863063573837)
(X_436  0.20686274766921997)
(X_437  0.16764706373214722)
(X_438  0.19117647409439087)
(X_439  0.17549020051956177)
(X_440  0.18333333730697632)
(X_441  0.114705890417099)
(X_442  0.114705890417099)
(X_443  0.17352941632270813)
(X_444  0.18529412150382996)
(X_445  0.15392157435417175)
(X_446  0.11862745881080627)
(X_447  0.19901961088180542)
(X_448  0.3598039448261261)
(X_449  0.3401961028575897)
(X_450  0.32058826088905334)
(X_451  0.30490198731422424)
(X_452  0.2970588207244873)
(X_453  0.18529412150382996)
(X_454  0.2656862735748291)
(X_455  0.25)
(X_456  0.22254902124404907)
(X_457  0.2186274528503418)
(X_458  0.21078431606292725)
(X_459  0.19901961088180542)
(X_460  0.18333333730697632)
(X_461  0.1715686321258545)
(X_462  0.06372549384832382)
(X_463  0.05980392172932625)
(X_464  0.06372549384832382)
(X_465  0.15980392694473267)
(X_466  0.1558823585510254)
(X_467  0.15196079015731812)
(X_468  0.15196079015731812)
(X_469  0.15980392694473267)
(X_470  0.1715686321258545)
(X_471  0.17941176891326904)
(X_472  0.15196079015731812)
(X_473  0.15196079015731812)
(X_474  0.15196079015731812)
(X_475  0.15196079015731812)
(X_476  0.16960784792900085)
(X_477  0.25)
(X_478  0.22647058963775635)
(X_479  0.21078431606292725)
(X_480  0.2029411792755127)
(X_481  0.0990196168422699)
(X_482  0.09117648005485535)
(X_483  0.0833333432674408)
(X_484  0.07941177487373352)
(X_485  0.07549020648002625)
(X_486  0.07156863063573837)
(X_487  0.06372549384832382)
(X_488  0.05588235333561897)
(X_489  0.04803921654820442)
(X_490  0.04411764815449715)
(X_491  0.04019607976078987)
(X_492  0.04803921654820442)
(X_493  0.04411764815449715)
(X_494  0.1401960849761963)
(X_495  0.1401960849761963)
(X_496  0.1401960849761963)
(X_497  0.14411765336990356)
(X_498  0.15196079015731812)
(X_499  0.05588235333561897)
(X_500  0.1558823585510254)
(X_501  0.05588235333561897)
(X_502  0.0519607849419117)
(X_503  0.15196079015731812)
(X_504  0.2029411792755127)
(X_505  0.18333333730697632)
(X_506  0.05980392172932625)
(X_507  0.04411764815449715)
(X_508  0.04411764815449715)
(X_509  0.04803921654820442)
(X_510  0.0519607849419117)
(X_511  0.0519607849419117)
(X_512  0.036274511367082596)
(X_513  0.036274511367082596)
(X_514  0.036274511367082596)
(X_515  0.03235294297337532)
(X_516  0.03235294297337532)
(X_517  0.03235294297337532)
(X_518  0.028431374579668045)
(X_519  0.028431374579668045)
(X_520  0.036274511367082596)
(X_521  0.036274511367082596)
(X_522  0.036274511367082596)
(X_523  0.03235294297337532)
(X_524  0.03235294297337532)
(X_525  0.13235294818878174)
(X_526  0.13235294818878174)
(X_527  0.13235294818878174)
(X_528  0.04019607976078987)
(X_529  0.036274511367082596)
(X_530  0.036274511367082596)
(X_531  0.036274511367082596)
(X_532  0.16372549533843994)
(X_533  0.1558823585510254)
(X_534  0.14411765336990356)
(X_535  0.1401960849761963)
(X_536  0.1401960849761963)
(X_537  0.04411764815449715)
(X_538  0.0519607849419117)
(X_539  0.15196079015731812)
(X_540  0.028431374579668045)
(X_541  0.028431374579668045)
(X_542  0.12843137979507446)
(X_543  0.028431374579668045)
(X_544  0.028431374579668045)
(X_545  0.12843137979507446)
(X_546  0.028431374579668045)
(X_547  0.028431374579668045)
(X_548  0.13235294818878174)
(X_549  0.136274516582489)
(X_550  0.136274516582489)
(X_551  0.136274516582489)
(X_552  0.13235294818878174)
(X_553  0.12843137979507446)
(X_554  0.12450980395078659)
(X_555  0.020588237792253494)
(X_556  0.12843137979507446)
(X_557  0.028431374579668045)
(X_558  0.028431374579668045)
(X_559  0.028431374579668045)
(X_560  0.12450980395078659)
(X_561  0.12843137979507446)
(X_562  0.13235294818878174)
(X_563  0.136274516582489)
(X_564  0.036274511367082596)
(X_565  0.136274516582489)
(X_566  0.136274516582489)
(X_567  0.036274511367082596)
(X_568  0.03235294297337532)
(X_569  0.13235294818878174)
(X_570  0.12843137979507446)
(X_571  0.12843137979507446)
(X_572  0.02450980618596077)
(X_573  0.02450980618596077)
(X_574  0.02450980618596077)
(X_575  0.020588237792253494)
(X_576  0.028431374579668045)
(X_577  0.028431374579668045)
(X_578  0.028431374579668045)
(X_579  0.12843137979507446)
(X_580  0.12843137979507446)
(X_581  0.12058823555707932)
(X_582  0.11666666716337204)
(X_583  0.11274509876966476)
(X_584  0.13235294818878174)
(X_585  0.03235294297337532)
(X_586  0.03235294297337532)
(X_587  0.12843137979507446)
(X_588  0.0009803927969187498)
(X_589  0.012745101936161518)
(X_590  0.12843137979507446)
(X_591  0.136274516582489)
(X_592  0.13235294818878174)
(X_593  0.02450980618596077)
(X_594  0.12058823555707932)
(X_595  0.12450980395078659)
(X_596  0.12843137979507446)
(X_597  0.12450980395078659)
(X_598  0.12450980395078659)
(X_599  0.020588237792253494)
(X_600  0.01666666939854622)
(X_601  0.01666666939854622)
(X_602  0.012745101936161518)
(X_603  0.012745101936161518)
(X_604  0.11666666716337204)
(X_605  0.11666666716337204)
(X_606  0.11666666716337204)
(X_607  0.11666666716337204)
(X_608  0.11274509876966476)
(X_609  0.11274509876966476)
(X_610  0.11274509876966476)
(X_611  0.11274509876966476)
(X_612  0.01666666939854622)
(X_613  0.01666666939854622)
(X_614  0.01666666939854622)
(X_615  0.11666666716337204)
(X_616  0.10490196198225021)
(X_617  0.01666666939854622)
(X_618  0.028431374579668045)
(X_619  0.028431374579668045)
(X_620  0.01666666939854622)
(X_621  0.11274509876966476)
(X_622  0.11666666716337204)
(X_623  0.12450980395078659)
(X_624  0.01666666939854622)
(X_625  0.11666666716337204)
(X_626  0.11666666716337204)
(X_627  0.11666666716337204)
(X_628  0.012745101936161518)
(X_629  0.012745101936161518)
(X_630  0.012745101936161518)
(X_631  0.11274509876966476)
(X_632  0.020588237792253494)
(X_633  0.01666666939854622)
(X_634  0.012745101936161518)
(X_635  0.012745101936161518)
(X_636  0.012745101936161518)
(X_637  0.11666666716337204)
(X_638  0.12058823555707932)
(X_639  0.12450980395078659)
(X_640  0.11666666716337204)
(X_641  0.11666666716337204)
(X_642  0.11274509876966476)
(X_643  0.11274509876966476)
(X_644  0.004901961423456669)
(X_645  0.012745101936161518)
(X_646  0.11274509876966476)
(X_647  0.10490196198225021)
(X_648  0.09313725680112839)
(X_649  0.09313725680112839)
(X_650  0.004901961423456669)
(X_651  0.11666666716337204)
(X_652  0.11274509876966476)
(X_653  0.11274509876966476)
(X_654  0.11666666716337204)
(X_655  0.01666666939854622)
(X_656  0.01666666939854622)
(X_657  0.020588237792253494)
(X_658  0.020588237792253494)
(X_659  0.020588237792253494)
(X_660  0.13235294818878174)
(X_661  0.12843137979507446)
(X_662  0.12058823555707932)
(X_663  0.11666666716337204)
(X_664  0.12058823555707932)
(X_665  0.12843137979507446)
(X_666  0.1401960849761963)
(X_667  0.04411764815449715)
(X_668  0.04803921654820442)
(X_669  0.04411764815449715)
(X_670  0.04411764815449715)
(X_671  0.04411764815449715)
(X_672  0.4696078598499298)
(X_673  0.37745097279548645)
(X_674  0.39313724637031555)
(X_675  0.41274508833885193)
(X_676  0.4323529303073883)
(X_677  0.551960825920105)
(X_678  0.46764707565307617)
(X_679  0.4754902124404907)
(X_680  0.5303921699523926)
(X_681  0.638235330581665)
(X_682  0.6500000357627869)
(X_683  0.665686309337616)
(X_684  0.6813725829124451)
(X_685  0.6970588564872742)
(X_686  0.6088235378265381)
(X_687  0.6166666746139526)
(X_688  0.7362745404243469)
(X_689  0.636274516582489)
(X_690  0.6441176533699036)
(X_691  0.6519607901573181)
(X_692  0.7637255191802979)
(X_693  0.7715686559677124)
(X_694  0.6754902005195618)
(X_695  0.679411768913269)
(X_696  0.7029411792755127)
(X_697  0.8029412031173706)
(X_698  0.8029412031173706)
(X_699  0.8029412031173706)
(X_700  1.034313678741455)
(X_701  0.9343137145042419)
(X_702  0.9421568512916565)
(X_703  0.949999988079071)
(X_704  0.949999988079071)
(X_705  0.949999988079071)
(X_706  0.949999988079071)
(X_707  0.949999988079071)
(X_708  0.9421568512916565)
(X_709  0.9421568512916565)
(X_710  1.0460784435272217)
(X_711  1.0499999523162842)
(X_712  1.0499999523162842)
(X_713  1.0499999523162842)
(X_714  0.949999988079071)
(X_715  0.949999988079071)
(X_716  1.0499999523162842)
(X_717  1.0499999523162842)
(X_718  0.949999988079071)
(X_719  0.949999988079071)
(X_720  1.0499999523162842)
(X_721  1.0499999523162842)
(X_722  1.0499999523162842)
(X_723  1.0499999523162842)
(X_724  1.034313678741455)
(X_725  1.034313678741455)
(X_726  1.034313678741455)
(X_727  1.034313678741455)
(X_728  1.0499999523162842)
(X_729  0.949999988079071)
(X_730  0.9460784196853638)
(X_731  0.9460784196853638)
(X_732  0.9460784196853638)
(X_733  0.9421568512916565)
(X_734  1.0421568155288696)
(X_735  1.0421568155288696)
(X_736  1.0499999523162842)
(X_737  1.0499999523162842)
(X_738  1.0499999523162842)
(X_739  1.0499999523162842)
(X_740  1.0460784435272217)
(X_741  1.0421568155288696)
(X_742  1.0382353067398071)
(X_743  1.0382353067398071)
(X_744  0.9382352828979492)
(X_745  1.034313678741455)
(X_746  1.034313678741455)
(X_747  0.9343137145042419)
(X_748  0.9303921461105347)
(X_749  0.9303921461105347)
(X_750  0.9303921461105347)
(X_751  0.9303921461105347)
(X_752  0.949999988079071)
(X_753  1.0499999523162842)
(X_754  1.0499999523162842)
(X_755  1.0499999523162842)
(X_756  1.0421568155288696)
(X_757  0.9421568512916565)
(X_758  0.9460784196853638)
(X_759  0.9460784196853638)
(X_760  0.9460784196853638)
(X_761  0.9460784196853638)
(X_762  1.0460784435272217)
(X_763  1.0460784435272217)
(X_764  1.0499999523162842)
(X_765  1.0499999523162842)
(X_766  0.949999988079071)
(X_767  0.949999988079071)
(X_768  0.949999988079071)
(X_769  0.949999988079071)
(X_770  0.949999988079071)
(X_771  0.949999988079071)
(X_772  0.949999988079071)
(X_773  0.949999988079071)
(X_774  0.949999988079071)
(X_775  0.949999988079071)
(X_776  1.0499999523162842)
(X_777  1.0499999523162842)
(X_778  0.949999988079071)
(X_779  0.949999988079071)
(X_780  0.9382352828979492)
(X_781  0.9382352828979492)
(X_782  0.9382352828979492)
(X_783  0.9382352828979492)
(Y_0 -41.27727508544922)
(Y_1 45.20084762573242)
(Y_2 -18.690813064575195)
(Y_3 15.72315788269043))