((X_0  0.1715686321258545)
(X_1  0.06372549384832382)
(X_2  0.0676470622420311)
(X_3  0.17549020051956177)
(X_4  0.16764706373214722)
(X_5  0.1401960849761963)
(X_6  0.02450980618596077)
(X_7  0.028431374579668045)
(X_8  0.04019607976078987)
(X_9  0.09117648005485535)
(X_10  0.114705890417099)
(X_11  0.07156863063573837)
(X_12  0.12450980395078659)
(X_13  0.12843137979507446)
(X_14  0.1715686321258545)
(X_15  0.10686275362968445)
(X_16  0.0833333432674408)
(X_17  0.10294118523597717)
(X_18  0.0990196168422699)
(X_19  0.07549020648002625)
(X_20  0.16764706373214722)
(X_21  0.17549020051956177)
(X_22  0.16372549533843994)
(X_23  0.036274511367082596)
(X_24  0.16764706373214722)
(X_25  0.14803922176361084)
(X_26  0.04411764815449715)
(X_27  0.16372549533843994)
(X_28  0.1715686321258545)
(X_29  0.1558823585510254)
(X_30  0.0519607849419117)
(X_31  0.0676470622420311)
(X_32  0.07156863063573837)
(X_33  0.06372549384832382)
(X_34  0.06372549384832382)
(X_35  0.1715686321258545)
(X_36  0.10294118523597717)
(X_37  0.07156863063573837)
(X_38  0.0519607849419117)
(X_39  0.07156863063573837)
(X_40  0.10294118523597717)
(X_41  0.10294118523597717)
(X_42  0.16764706373214722)
(X_43  0.03235294297337532)
(X_44  0.2029411792755127)
(X_45  0.2029411792755127)
(X_46  0.1872549057006836)
(X_47  0.06372549384832382)
(X_48  0.05588235333561897)
(X_49  0.07156863063573837)
(X_50  0.08725491166114807)
(X_51  0.09117648005485535)
(X_52  0.18333333730697632)
(X_53  0.15980392694473267)
(X_54  0.15196079015731812)
(X_55  0.15980392694473267)
(X_56  0.07156863063573837)
(X_57  0.04411764815449715)
(X_58  0.028431374579668045)
(X_59  0.036274511367082596)
(X_60  0.04803921654820442)
(X_61  0.04803921654820442)
(X_62  0.04803921654820442)
(X_63  0.1558823585510254)
(X_64  0.1401960849761963)
(X_65  0.04411764815449715)
(X_66  0.04803921654820442)
(X_67  0.036274511367082596)
(X_68  0.012745101936161518)
(X_69  0.01666666939854622)
(X_70  0.07549020648002625)
(X_71  0.1460784375667572)
(X_72  0.05588235333561897)
(X_73  0.06372549384832382)
(X_74  0.07549020648002625)
(X_75  0.18333333730697632)
(X_76  0.16764706373214722)
(X_77  0.14411765336990356)
(X_78  0.136274516582489)
(X_79  0.14803922176361084)
(X_80  0.14803922176361084)
(X_81  0.14803922176361084)
(X_82  0.05980392172932625)
(X_83  0.18333333730697632)
(X_84  0.16372549533843994)
(X_85  0.1401960849761963)
(X_86  0.12843137979507446)
(X_87  0.14411765336990356)
(X_88  0.15980392694473267)
(X_89  0.15196079015731812)
(X_90  0.04411764815449715)
(X_91  0.04411764815449715)
(X_92  0.17549020051956177)
(X_93  0.09509804844856262)
(X_94  0.0990196168422699)
(X_95  0.10294118523597717)
(X_96  0.11078432202339172)
(X_97  0.10294118523597717)
(X_98  0.05588235333561897)
(X_99  0.09705882519483566)
(X_100  0.12843137979507446)
(X_101  0.12843137979507446)
(X_102  0.14411765336990356)
(X_103  0.1715686321258545)
(X_104  0.17549020051956177)
(X_105  0.0676470622420311)
(X_106  0.09509804844856262)
(X_107  0.13431373238563538)
(X_108  0.10686275362968445)
(X_109  0.13823530077934265)
(X_110  0.18921568989753723)
(X_111  0.33235296607017517)
(X_112  0.05588235333561897)
(X_113  0.04411764815449715)
(X_114  0.14411765336990356)
(X_115  0.16764706373214722)
(X_116  0.18333333730697632)
(X_117  0.07156863063573837)
(X_118  0.05980392172932625)
(X_119  0.05588235333561897)
(X_120  0.0676470622420311)
(X_121  0.23627452552318573)
(X_122  0.39313724637031555)
(X_123  0.44411763548851013)
(X_124  0.44019606709480286)
(X_125  0.4009803831577301)
(X_126  0.26372548937797546)
(X_127  0.11078432202339172)
(X_128  0.21470588445663452)
(X_129  0.1872549057006836)
(X_130  0.16764706373214722)
(X_131  0.17549020051956177)
(X_132  0.22254902124404907)
(X_133  0.30490198731422424)
(X_134  0.41862747073173523)
(X_135  0.5088235139846802)
(X_136  0.4754902124404907)
(X_137  0.5107843279838562)
(X_138  0.6539216041564941)
(X_139  0.6813725829124451)
(X_140  0.1558823585510254)
(X_141  0.1401960849761963)
(X_142  0.136274516582489)
(X_143  0.14411765336990356)
(X_144  0.04411764815449715)
(X_145  0.03235294297337532)
(X_146  0.04019607976078987)
(X_147  0.1558823585510254)
(X_148  0.2696078419685364)
(X_149  0.4892157018184662)
(X_150  0.6617647409439087)
(X_151  0.6578431725502014)
(X_152  0.5872549414634705)
(X_153  0.5598039627075195)
(X_154  0.5441176295280457)
(X_155  0.5127450823783875)
(X_156  0.33039215207099915)
(X_157  0.3225490152835846)
(X_158  0.40294119715690613)
(X_159  0.3950980603694916)
(X_160  0.44607844948768616)
(X_161  0.44019606709480286)
(X_162  0.5264706015586853)
(X_163  0.6735294461250305)
(X_164  0.595098078250885)
(X_165  0.5147058963775635)
(X_166  0.522549033164978)
(X_167  0.6068627834320068)
(X_168  0.0519607849419117)
(X_169  0.136274516582489)
(X_170  0.12843137979507446)
(X_171  0.13235294818878174)
(X_172  0.14411765336990356)
(X_173  0.17941176891326904)
(X_174  0.1460784375667572)
(X_175  0.2088235467672348)
(X_176  0.5637255311012268)
(X_177  0.48725491762161255)
(X_178  0.4990196228027344)
(X_179  0.5833333730697632)
(X_180  0.5558823943138123)
(X_181  0.5245097875595093)
(X_182  0.4892157018184662)
(X_183  0.46176472306251526)
(X_184  0.45000001788139343)
(X_185  0.48137256503105164)
(X_186  0.48137256503105164)
(X_187  0.46176472306251526)
(X_188  0.48137256503105164)
(X_189  0.42450979351997375)
(X_190  0.41274508833885193)
(X_191  0.457843154668808)
(X_192  0.44607844948768616)
(X_193  0.47745099663734436)
(X_194  0.385294109582901)
(X_195  0.3656862676143646)
(X_196  0.04803921654820442)
(X_197  0.136274516582489)
(X_198  0.1401960849761963)
(X_199  0.07156863063573837)
(X_200  0.23039215803146362)
(X_201  0.33235296607017517)
(X_202  0.47745099663734436)
(X_203  0.5911765098571777)
(X_204  0.5558823943138123)
(X_205  0.5343137383460999)
(X_206  0.6676470637321472)
(X_207  0.7421568632125854)
(X_208  0.6676470637321472)
(X_209  0.5147058963775635)
(X_210  0.45196080207824707)
(X_211  0.4833333492279053)
(X_212  0.6813725829124451)
(X_213  0.7166666984558105)
(X_214  0.6009804010391235)
(X_215  0.6460784673690796)
(X_216  0.6539216041564941)
(X_217  0.6892157196998596)
(X_218  0.6500000357627869)
(X_219  0.5558823943138123)
(X_220  0.24803923070430756)
(X_221  0.3029411733150482)
(X_222  0.34607842564582825)
(X_223  0.45000001788139343)
(X_224  0.07156863063573837)
(X_225  0.114705890417099)
(X_226  0.3127451241016388)
(X_227  0.43039217591285706)
(X_228  0.4009803831577301)
(X_229  0.40882351994514465)
(X_230  0.4009803831577301)
(X_231  0.4049019515514374)
(X_232  0.45588237047195435)
(X_233  0.5774509906768799)
(X_234  0.679411768913269)
(X_235  0.6872549057006836)
(X_236  0.6754902005195618)
(X_237  0.6911764740943909)
(X_238  0.7029411792755127)
(X_239  0.6950980424880981)
(X_240  0.7343137264251709)
(X_241  0.75)
(X_242  0.8852941393852234)
(X_243  0.8735294342041016)
(X_244  0.8147059082984924)
(X_245  0.8068627715110779)
(X_246  0.8186274766921997)
(X_247  0.6872549057006836)
(X_248  0.5460784435272217)
(X_249  0.5696078538894653)
(X_250  0.5382353067398071)
(X_251  0.45588237047195435)
(X_252  0.31078431010246277)
(X_253  0.34215685725212097)
(X_254  0.3970588147640228)
(X_255  0.44411763548851013)
(X_256  0.5362744927406311)
(X_257  0.49705883860588074)
(X_258  0.4735294282436371)
(X_259  0.48137256503105164)
(X_260  0.48725491762161255)
(X_261  0.5107843279838562)
(X_262  0.6029412150382996)
(X_263  0.5833333730697632)
(X_264  0.6225490570068359)
(X_265  0.6127451062202454)
(X_266  0.679411768913269)
(X_267  0.6950980424880981)
(X_268  0.7264705896377563)
(X_269  0.7186274528503418)
(X_270  0.7225490212440491)
(X_271  0.6911764740943909)
(X_272  0.6441176533699036)
(X_273  0.7637255191802979)
(X_274  0.8029412031173706)
(X_275  0.6990196108818054)
(X_276  0.7362745404243469)
(X_277  0.7441176772117615)
(X_278  0.6166666746139526)
(X_279  0.5617647171020508)
(X_280  0.5323529243469238)
(X_281  0.5127450823783875)
(X_282  0.385294109582901)
(X_283  0.3539215624332428)
(X_284  0.3186274468898773)
(X_285  0.4107843339443207)
(X_286  0.44607844948768616)
(X_287  0.49313727021217346)
(X_288  0.4637255072593689)
(X_289  0.47156864404678345)
(X_290  0.45588237047195435)
(X_291  0.5362744927406311)
(X_292  0.5676470994949341)
(X_293  0.550000011920929)
(X_294  0.6166666746139526)
(X_295  0.6441176533699036)
(X_296  0.7401961088180542)
(X_297  0.6480392217636108)
(X_298  0.6754902005195618)
(X_299  0.7637255191802979)
(X_300  0.7166666984558105)
(X_301  0.708823561668396)
(X_302  0.7127451300621033)
(X_303  0.5735294222831726)
(X_304  0.5970588326454163)
(X_305  0.5774509906768799)
(X_306  0.5539215803146362)
(X_307  0.5343137383460999)
(X_308  0.44607844948768616)
(X_309  0.4107843339443207)
(X_310  0.3754902184009552)
(X_311  0.3715686500072479)
(X_312  0.29901960492134094)
(X_313  0.3499999940395355)
(X_314  0.40882351994514465)
(X_315  0.4480392038822174)
(X_316  0.4166666567325592)
(X_317  0.4637255072593689)
(X_318  0.5872549414634705)
(X_319  0.5637255311012268)
(X_320  0.5323529243469238)
(X_321  0.44411763548851013)
(X_322  0.4990196228027344)
(X_323  0.550000011920929)
(X_324  0.5343137383460999)
(X_325  0.550000011920929)
(X_326  0.6970588564872742)
(X_327  0.7009804248809814)
(X_328  0.6539216041564941)
(X_329  0.522549033164978)
(X_330  0.5833333730697632)
(X_331  0.5166666507720947)
(X_332  0.5872549414634705)
(X_333  0.4480392038822174)
(X_334  0.4205882251262665)
(X_335  0.4205882251262665)
(X_336  0.3558823764324188)
(X_337  0.35196080803871155)
(X_338  0.3754902184009552)
(X_339  0.44607844948768616)
(X_340  0.5284313559532166)
(X_341  0.5715686678886414)
(X_342  0.4480392038822174)
(X_343  0.4049019515514374)
(X_344  0.5166666507720947)
(X_345  0.5245097875595093)
(X_346  0.4166666567325592)
(X_347  0.3735294044017792)
(X_348  0.3225490152835846)
(X_349  0.31470587849617004)
(X_350  0.37745097279548645)
(X_351  0.5480391979217529)
(X_352  0.5480391979217529)
(X_353  0.5480391979217529)
(X_354  0.5754902362823486)
(X_355  0.5794118046760559)
(X_356  0.4480392038822174)
(X_357  0.5441176295280457)
(X_358  0.5284313559532166)
(X_359  0.4696078598499298)
(X_360  0.26764705777168274)
(X_361  0.23235295712947845)
(X_362  0.20490197837352753)
(X_363  0.30490198731422424)
(X_364  0.4049019515514374)
(X_365  0.4049019515514374)
(X_366  0.5166666507720947)
(X_367  0.5558823943138123)
(X_368  0.6068627834320068)
(X_369  0.5186274647712708)
(X_370  0.4598039388656616)
(X_371  0.3892156779766083)
(X_372  0.40882351994514465)
(X_373  0.36176469922065735)
(X_374  0.32647058367729187)
(X_375  0.31078431010246277)
(X_376  0.2911764681339264)
(X_377  0.27941176295280457)
(X_378  0.29901960492134094)
(X_379  0.3382352888584137)
(X_380  0.3343137204647064)
(X_381  0.34215685725212097)
(X_382  0.49313727021217346)
(X_383  0.5284313559532166)
(X_384  0.42450979351997375)
(X_385  0.4323529303073883)
(X_386  0.4049019515514374)
(X_387  0.3343137204647064)
(X_388  0.3480392396450043)
(X_389  0.3401961028575897)
(X_390  0.3284313976764679)
(X_391  0.32058826088905334)
(X_392  0.6225490570068359)
(X_393  0.6343137621879578)
(X_394  0.6186274886131287)
(X_395  0.5794118046760559)
(X_396  0.551960825920105)
(X_397  0.5401960611343384)
(X_398  0.4205882251262665)
(X_399  0.4009803831577301)
(X_400  0.3382352888584137)
(X_401  0.39901962876319885)
(X_402  0.38333335518836975)
(X_403  0.3950980603694916)
(X_404  0.3754902184009552)
(X_405  0.33235296607017517)
(X_406  0.23235295712947845)
(X_407  0.26372548937797546)
(X_408  0.24411766231060028)
(X_409  0.2558823525905609)
(X_410  0.31470587849617004)
(X_411  0.46176472306251526)
(X_412  0.36176469922065735)
(X_413  0.3578431308269501)
(X_414  0.41470590233802795)
(X_415  0.3284313976764679)
(X_416  0.2852941155433655)
(X_417  0.3088235557079315)
(X_418  0.2088235467672348)
(X_419  0.18137255311012268)
(X_420  0.34607842564582825)
(X_421  0.40882351994514465)
(X_422  0.4323529303073883)
(X_423  0.3735294044017792)
(X_424  0.2872548997402191)
(X_425  0.24803923070430756)
(X_426  0.24803923070430756)
(X_427  0.3598039448261261)
(X_428  0.3754902184009552)
(X_429  0.3558823764324188)
(X_430  0.24803923070430756)
(X_431  0.22843138873577118)
(X_432  0.16568627953529358)
(X_433  0.114705890417099)
(X_434  0.1617647111415863)
(X_435  0.25196078419685364)
(X_436  0.3401961028575897)
(X_437  0.3127451241016388)
(X_438  0.3127451241016388)
(X_439  0.3127451241016388)
(X_440  0.30098041892051697)
(X_441  0.3127451241016388)
(X_442  0.20098040997982025)
(X_443  0.13823530077934265)
(X_444  0.14215686917304993)
(X_445  0.18921568989753723)
(X_446  0.19705882668495178)
(X_447  0.25)
(X_448  0.344117671251297)
(X_449  0.24411766231060028)
(X_450  0.25196078419685364)
(X_451  0.3558823764324188)
(X_452  0.3480392396450043)
(X_453  0.3284313976764679)
(X_454  0.2970588207244873)
(X_455  0.27352941036224365)
(X_456  0.25784313678741455)
(X_457  0.2852941155433655)
(X_458  0.30490198731422424)
(X_459  0.28921568393707275)
(X_460  0.2539215683937073)
(X_461  0.1303921639919281)
(X_462  0.13823530077934265)
(X_463  0.15784314274787903)
(X_464  0.16568627953529358)
(X_465  0.1617647111415863)
(X_466  0.17352941632270813)
(X_467  0.29313725233078003)
(X_468  0.29313725233078003)
(X_469  0.2696078419685364)
(X_470  0.25784313678741455)
(X_471  0.25784313678741455)
(X_472  0.2029411792755127)
(X_473  0.2029411792755127)
(X_474  0.2029411792755127)
(X_475  0.2029411792755127)
(X_476  0.17352941632270813)
(X_477  0.1774509847164154)
(X_478  0.2813725471496582)
(X_479  0.2852941155433655)
(X_480  0.18137255311012268)
(X_481  0.16568627953529358)
(X_482  0.13431373238563538)
(X_483  0.21470588445663452)
(X_484  0.17549020051956177)
(X_485  0.19901961088180542)
(X_486  0.11862745881080627)
(X_487  0.114705890417099)
(X_488  0.0990196168422699)
(X_489  0.09117648005485535)
(X_490  0.10294118523597717)
(X_491  0.11862745881080627)
(X_492  0.11862745881080627)
(X_493  0.114705890417099)
(X_494  0.12647059559822083)
(X_495  0.24607843160629272)
(X_496  0.24607843160629272)
(X_497  0.22254902124404907)
(X_498  0.21078431606292725)
(X_499  0.11078432202339172)
(X_500  0.16764706373214722)
(X_501  0.0676470622420311)
(X_502  0.0676470622420311)
(X_503  0.0676470622420311)
(X_504  0.114705890417099)
(X_505  0.11862745881080627)
(X_506  0.12254902720451355)
(X_507  0.1303921639919281)
(X_508  0.1303921639919281)
(X_509  0.11862745881080627)
(X_510  0.19509804248809814)
(X_511  0.17549020051956177)
(X_512  0.020588237792253494)
(X_513  0.03235294297337532)
(X_514  0.14411765336990356)
(X_515  0.0519607849419117)
(X_516  0.0519607849419117)
(X_517  0.0519607849419117)
(X_518  0.05980392172932625)
(X_519  0.0676470622420311)
(X_520  0.07156863063573837)
(X_521  0.0676470622420311)
(X_522  0.07549020648002625)
(X_523  0.09509804844856262)
(X_524  0.09509804844856262)
(X_525  0.1715686321258545)
(X_526  0.15980392694473267)
(X_527  0.16372549533843994)
(X_528  0.03235294297337532)
(X_529  0.03235294297337532)
(X_530  0.03235294297337532)
(X_531  0.03235294297337532)
(X_532  0.17549020051956177)
(X_533  0.17549020051956177)
(X_534  0.17941176891326904)
(X_535  0.1872549057006836)
(X_536  0.09117648005485535)
(X_537  0.0833333432674408)
(X_538  0.0676470622420311)
(X_539  0.05588235333561897)
(X_540  0.03235294297337532)
(X_541  0.03235294297337532)
(X_542  0.13235294818878174)
(X_543  0.03235294297337532)
(X_544  0.04019607976078987)
(X_545  0.04019607976078987)
(X_546  0.04019607976078987)
(X_547  0.036274511367082596)
(X_548  0.15196079015731812)
(X_549  0.14411765336990356)
(X_550  0.0519607849419117)
(X_551  0.16764706373214722)
(X_552  0.16764706373214722)
(X_553  0.14803922176361084)
(X_554  0.136274516582489)
(X_555  0.04411764815449715)
(X_556  0.12843137979507446)
(X_557  0.028431374579668045)
(X_558  0.12843137979507446)
(X_559  0.12843137979507446)
(X_560  0.13235294818878174)
(X_561  0.028431374579668045)
(X_562  0.03235294297337532)
(X_563  0.04019607976078987)
(X_564  0.04411764815449715)
(X_565  0.04411764815449715)
(X_566  0.036274511367082596)
(X_567  0.02450980618596077)
(X_568  0.14411765336990356)
(X_569  0.136274516582489)
(X_570  0.12843137979507446)
(X_571  0.028431374579668045)
(X_572  0.03235294297337532)
(X_573  0.036274511367082596)
(X_574  0.028431374579668045)
(X_575  0.020588237792253494)
(X_576  0.04019607976078987)
(X_577  0.03235294297337532)
(X_578  0.1401960849761963)
(X_579  0.1558823585510254)
(X_580  0.0519607849419117)
(X_581  0.036274511367082596)
(X_582  0.12843137979507446)
(X_583  0.13235294818878174)
(X_584  0.12843137979507446)
(X_585  0.028431374579668045)
(X_586  0.028431374579668045)
(X_587  0.028431374579668045)
(X_588  0.11666666716337204)
(X_589  0.012745101936161518)
(X_590  0.012745101936161518)
(X_591  0.11666666716337204)
(X_592  0.12450980395078659)
(X_593  0.12843137979507446)
(X_594  0.12058823555707932)
(X_595  0.11666666716337204)
(X_596  0.12058823555707932)
(X_597  0.11666666716337204)
(X_598  0.008823529817163944)
(X_599  0.008823529817163944)
(X_600  0.01666666939854622)
(X_601  0.020588237792253494)
(X_602  0.020588237792253494)
(X_603  0.01666666939854622)
(X_604  0.12843137979507446)
(X_605  0.12058823555707932)
(X_606  0.12450980395078659)
(X_607  0.136274516582489)
(X_608  0.136274516582489)
(X_609  0.020588237792253494)
(X_610  0.11274509876966476)
(X_611  0.12058823555707932)
(X_612  0.020588237792253494)
(X_613  0.020588237792253494)
(X_614  0.020588237792253494)
(X_615  0.12058823555707932)
(X_616  0.12058823555707932)
(X_617  0.11666666716337204)
(X_618  0.012745101936161518)
(X_619  0.012745101936161518)
(X_620  0.020588237792253494)
(X_621  0.12450980395078659)
(X_622  0.12450980395078659)
(X_623  0.12058823555707932)
(X_624  0.10490196198225021)
(X_625  0.10490196198225021)
(X_626  0.10490196198225021)
(X_627  0.10098039358854294)
(X_628  0.0009803927969187498)
(X_629  0.004901961423456669)
(X_630  0.008823529817163944)
(X_631  0.01666666939854622)
(X_632  0.01666666939854622)
(X_633  0.008823529817163944)
(X_634  0.11274509876966476)
(X_635  0.02450980618596077)
(X_636  0.020588237792253494)
(X_637  0.10490196198225021)
(X_638  0.10098039358854294)
(X_639  0.10882353037595749)
(X_640  0.008823529817163944)
(X_641  0.008823529817163944)
(X_642  0.10882353037595749)
(X_643  0.10882353037595749)
(X_644  0.11274509876966476)
(X_645  0.004901961423456669)
(X_646  0.10098039358854294)
(X_647  0.10098039358854294)
(X_648  0.10882353037595749)
(X_649  0.012745101936161518)
(X_650  0.012745101936161518)
(X_651  0.10882353037595749)
(X_652  0.11666666716337204)
(X_653  0.12058823555707932)
(X_654  0.01666666939854622)
(X_655  0.008823529817163944)
(X_656  -0.0029411755967885256)
(X_657  -0.0029411755967885256)
(X_658  0.004901961423456669)
(X_659  0.01666666939854622)
(X_660  0.11666666716337204)
(X_661  0.10490196198225021)
(X_662  0.10882353037595749)
(X_663  0.12058823555707932)
(X_664  0.01666666939854622)
(X_665  0.0009803927969187498)
(X_666  -0.0029411755967885256)
(X_667  0.008823529817163944)
(X_668  0.004901961423456669)
(X_669  0.004901961423456669)
(X_670  0.004901961423456669)
(X_671  0.004901961423456669)
(X_672  0.10098039358854294)
(X_673  0.004901961423456669)
(X_674  0.012745101936161518)
(X_675  0.008823529817163944)
(X_676  0.004901961423456669)
(X_677  0.10098039358854294)
(X_678  0.10882353037595749)
(X_679  0.11274509876966476)
(X_680  0.004901961423456669)
(X_681  0.10490196198225021)
(X_682  0.10490196198225021)
(X_683  0.10490196198225021)
(X_684  0.10490196198225021)
(X_685  0.004901961423456669)
(X_686  0.004901961423456669)
(X_687  0.004901961423456669)
(X_688  0.10882353037595749)
(X_689  0.11274509876966476)
(X_690  0.012745101936161518)
(X_691  0.012745101936161518)
(X_692  0.10882353037595749)
(X_693  0.004901961423456669)
(X_694  0.0009803927969187498)
(X_695  0.10098039358854294)
(X_696  0.10882353037595749)
(X_697  0.10882353037595749)
(X_698  0.10882353037595749)
(X_699  0.10882353037595749)
(X_700  0.10490196198225021)
(X_701  0.012745101936161518)
(X_702  0.01666666939854622)
(X_703  0.01666666939854622)
(X_704  0.008823529817163944)
(X_705  0.008823529817163944)
(X_706  0.01666666939854622)
(X_707  0.02450980618596077)
(X_708  0.0009803927969187498)
(X_709  0.0009803927969187498)
(X_710  0.0009803927969187498)
(X_711  0.0009803927969187498)
(X_712  0.0009803927969187498)
(X_713  0.0009803927969187498)
(X_714  0.0009803927969187498)
(X_715  0.0009803927969187498)
(X_716  0.10490196198225021)
(X_717  0.10882353037595749)
(X_718  0.012745101936161518)
(X_719  0.012745101936161518)
(X_720  0.012745101936161518)
(X_721  0.012745101936161518)
(X_722  0.10882353037595749)
(X_723  0.10490196198225021)
(X_724  0.10490196198225021)
(X_725  0.10490196198225021)
(X_726  0.10490196198225021)
(X_727  0.10490196198225021)
(X_728  0.12058823555707932)
(X_729  0.02450980618596077)
(X_730  0.028431374579668045)
(X_731  0.12450980395078659)
(X_732  0.12058823555707932)
(X_733  0.12450980395078659)
(X_734  0.13235294818878174)
(X_735  0.1401960849761963)
(X_736  0.14411765336990356)
(X_737  0.14411765336990356)
(X_738  0.04411764815449715)
(X_739  0.04411764815449715)
(X_740  0.04411764815449715)
(X_741  0.04411764815449715)
(X_742  0.04411764815449715)
(X_743  0.04411764815449715)
(X_744  0.04411764815449715)
(X_745  0.04803921654820442)
(X_746  0.05588235333561897)
(X_747  0.06372549384832382)
(X_748  0.16372549533843994)
(X_749  0.16372549533843994)
(X_750  0.16372549533843994)
(X_751  0.15980392694473267)
(X_752  0.15980392694473267)
(X_753  0.15980392694473267)
(X_754  0.15980392694473267)
(X_755  0.15980392694473267)
(X_756  0.7284314036369324)
(X_757  0.6284313797950745)
(X_758  0.6323529481887817)
(X_759  0.6284313797950745)
(X_760  0.6245098114013672)
(X_761  0.6284313797950745)
(X_762  0.7401961088180542)
(X_763  0.7480392456054688)
(X_764  0.679411768913269)
(X_765  0.679411768913269)
(X_766  0.679411768913269)
(X_767  0.679411768913269)
(X_768  0.679411768913269)
(X_769  0.679411768913269)
(X_770  0.679411768913269)
(X_771  0.679411768913269)
(X_772  0.679411768913269)
(X_773  0.6833333373069763)
(X_774  0.6950980424880981)
(X_775  0.70686274766922)
(X_776  0.8147059082984924)
(X_777  0.8147059082984924)
(X_778  0.7107843160629272)
(X_779  0.7107843160629272)
(X_780  0.7186274528503418)
(X_781  0.7186274528503418)
(X_782  0.7186274528503418)
(X_783  0.7186274528503418)
(Y_0 -24.545616149902344)
(Y_1 38.90208053588867)
(Y_2 -19.73331642150879)
(Y_3 7.799604892730713))