((X_0  0.18333333730697632)
(X_1  0.18333333730697632)
(X_2  0.0833333432674408)
(X_3  0.17941176891326904)
(X_4  0.17941176891326904)
(X_5  0.17941176891326904)
(X_6  0.17941176891326904)
(X_7  0.07941177487373352)
(X_8  0.2029411792755127)
(X_9  0.19901961088180542)
(X_10  0.19509804248809814)
(X_11  0.09509804844856262)
(X_12  0.09509804844856262)
(X_13  0.19901961088180542)
(X_14  0.2029411792755127)
(X_15  0.2029411792755127)
(X_16  0.11862745881080627)
(X_17  0.10686275362968445)
(X_18  0.09509804844856262)
(X_19  0.08725491166114807)
(X_20  0.19117647409439087)
(X_21  0.19509804248809814)
(X_22  0.19117647409439087)
(X_23  0.08725491166114807)
(X_24  0.1872549057006836)
(X_25  0.18333333730697632)
(X_26  0.17549020051956177)
(X_27  0.1715686321258545)
(X_28  0.17549020051956177)
(X_29  0.17549020051956177)
(X_30  0.07549020648002625)
(X_31  0.07549020648002625)
(X_32  0.07549020648002625)
(X_33  0.07549020648002625)
(X_34  0.07941177487373352)
(X_35  0.17941176891326904)
(X_36  0.05588235333561897)
(X_37  0.06372549384832382)
(X_38  0.07941177487373352)
(X_39  0.08725491166114807)
(X_40  0.08725491166114807)
(X_41  0.07549020648002625)
(X_42  0.05980392172932625)
(X_43  0.04803921654820442)
(X_44  0.07941177487373352)
(X_45  0.07941177487373352)
(X_46  0.17941176891326904)
(X_47  0.08725491166114807)
(X_48  0.19509804248809814)
(X_49  0.09509804844856262)
(X_50  0.08725491166114807)
(X_51  0.07941177487373352)
(X_52  0.16372549533843994)
(X_53  0.0676470622420311)
(X_54  0.07156863063573837)
(X_55  0.1715686321258545)
(X_56  0.16372549533843994)
(X_57  0.06372549384832382)
(X_58  0.0676470622420311)
(X_59  0.0676470622420311)
(X_60  0.07156863063573837)
(X_61  0.07549020648002625)
(X_62  0.07549020648002625)
(X_63  0.07549020648002625)
(X_64  0.20686274766921997)
(X_65  0.0990196168422699)
(X_66  0.09117648005485535)
(X_67  0.0833333432674408)
(X_68  0.07941177487373352)
(X_69  0.08725491166114807)
(X_70  0.09117648005485535)
(X_71  0.0990196168422699)
(X_72  0.08725491166114807)
(X_73  0.07941177487373352)
(X_74  0.0676470622420311)
(X_75  0.15980392694473267)
(X_76  0.15980392694473267)
(X_77  0.15980392694473267)
(X_78  0.1558823585510254)
(X_79  0.15196079015731812)
(X_80  0.1715686321258545)
(X_81  0.07549020648002625)
(X_82  0.08725491166114807)
(X_83  0.19509804248809814)
(X_84  0.1558823585510254)
(X_85  0.1558823585510254)
(X_86  0.15980392694473267)
(X_87  0.16372549533843994)
(X_88  0.16764706373214722)
(X_89  0.1715686321258545)
(X_90  0.07549020648002625)
(X_91  0.07549020648002625)
(X_92  0.18333333730697632)
(X_93  0.07549020648002625)
(X_94  0.0676470622420311)
(X_95  0.05980392172932625)
(X_96  0.15980392694473267)
(X_97  0.16372549533843994)
(X_98  0.16764706373214722)
(X_99  0.17549020051956177)
(X_100  0.22647058963775635)
(X_101  0.20686274766921997)
(X_102  0.17941176891326904)
(X_103  0.16372549533843994)
(X_104  0.16372549533843994)
(X_105  0.07549020648002625)
(X_106  0.08725491166114807)
(X_107  0.09509804844856262)
(X_108  0.05980392172932625)
(X_109  0.05980392172932625)
(X_110  0.05588235333561897)
(X_111  0.1558823585510254)
(X_112  0.0519607849419117)
(X_113  0.15196079015731812)
(X_114  0.1558823585510254)
(X_115  0.15980392694473267)
(X_116  0.16372549533843994)
(X_117  0.0676470622420311)
(X_118  0.07156863063573837)
(X_119  0.07156863063573837)
(X_120  0.04803921654820442)
(X_121  0.05980392172932625)
(X_122  0.07549020648002625)
(X_123  0.0833333432674408)
(X_124  0.17941176891326904)
(X_125  0.06372549384832382)
(X_126  0.04019607976078987)
(X_127  0.028431374579668045)
(X_128  0.1558823585510254)
(X_129  0.14803922176361084)
(X_130  0.1401960849761963)
(X_131  0.14411765336990356)
(X_132  0.1558823585510254)
(X_133  0.16764706373214722)
(X_134  0.07156863063573837)
(X_135  0.1715686321258545)
(X_136  0.1715686321258545)
(X_137  0.1715686321258545)
(X_138  0.16764706373214722)
(X_139  0.16372549533843994)
(X_140  0.1558823585510254)
(X_141  0.1558823585510254)
(X_142  0.1558823585510254)
(X_143  0.15980392694473267)
(X_144  0.16372549533843994)
(X_145  0.06372549384832382)
(X_146  0.0676470622420311)
(X_147  0.16764706373214722)
(X_148  0.18333333730697632)
(X_149  0.17549020051956177)
(X_150  0.15980392694473267)
(X_151  0.15196079015731812)
(X_152  0.1558823585510254)
(X_153  0.1715686321258545)
(X_154  0.19117647409439087)
(X_155  0.2029411792755127)
(X_156  0.0990196168422699)
(X_157  0.10686275362968445)
(X_158  0.22254902124404907)
(X_159  0.2343137264251709)
(X_160  0.23039215803146362)
(X_161  0.11078432202339172)
(X_162  0.07549020648002625)
(X_163  0.14803922176361084)
(X_164  0.0519607849419117)
(X_165  0.06372549384832382)
(X_166  0.07549020648002625)
(X_167  0.18333333730697632)
(X_168  0.05980392172932625)
(X_169  0.15980392694473267)
(X_170  0.15980392694473267)
(X_171  0.16372549533843994)
(X_172  0.16372549533843994)
(X_173  0.16372549533843994)
(X_174  0.06372549384832382)
(X_175  0.06372549384832382)
(X_176  0.17549020051956177)
(X_177  0.16764706373214722)
(X_178  0.05980392172932625)
(X_179  0.0676470622420311)
(X_180  0.2029411792755127)
(X_181  0.2539215683937073)
(X_182  0.30490198731422424)
(X_183  0.240196093916893)
(X_184  0.41862747073173523)
(X_185  0.4225490391254425)
(X_186  0.43039217591285706)
(X_187  0.43039217591285706)
(X_188  0.41862747073173523)
(X_189  0.2872548997402191)
(X_190  0.240196093916893)
(X_191  0.3127451241016388)
(X_192  0.2029411792755127)
(X_193  0.19509804248809814)
(X_194  0.0833333432674408)
(X_195  0.07156863063573837)
(X_196  0.0676470622420311)
(X_197  0.16764706373214722)
(X_198  0.16372549533843994)
(X_199  0.06372549384832382)
(X_200  0.16372549533843994)
(X_201  0.16372549533843994)
(X_202  0.16372549533843994)
(X_203  0.15980392694473267)
(X_204  0.07156863063573837)
(X_205  0.11862745881080627)
(X_206  0.19705882668495178)
(X_207  0.27941176295280457)
(X_208  0.34215685725212097)
(X_209  0.37745097279548645)
(X_210  0.3892156779766083)
(X_211  0.3892156779766083)
(X_212  0.49313727021217346)
(X_213  0.4892157018184662)
(X_214  0.3813725411891937)
(X_215  0.3813725411891937)
(X_216  0.3813725411891937)
(X_217  0.47745099663734436)
(X_218  0.4696078598499298)
(X_219  0.46176472306251526)
(X_220  0.43431374430656433)
(X_221  0.387254923582077)
(X_222  0.21666668355464935)
(X_223  0.25)
(X_224  0.05980392172932625)
(X_225  0.08725491166114807)
(X_226  0.11078432202339172)
(X_227  0.20686274766921997)
(X_228  0.0990196168422699)
(X_229  0.13823530077934265)
(X_230  0.2245098203420639)
(X_231  0.29509803652763367)
(X_232  0.44607844948768616)
(X_233  0.37745097279548645)
(X_234  0.40882351994514465)
(X_235  0.4049019515514374)
(X_236  0.3696078360080719)
(X_237  0.32647058367729187)
(X_238  0.29509803652763367)
(X_239  0.2872548997402191)
(X_240  0.28333333134651184)
(X_241  0.40294119715690613)
(X_242  0.41862747073173523)
(X_243  0.4225490391254425)
(X_244  0.4107843339443207)
(X_245  0.4068627655506134)
(X_246  0.4107843339443207)
(X_247  0.4225490391254425)
(X_248  0.3382352888584137)
(X_249  0.47745099663734436)
(X_250  0.42450979351997375)
(X_251  0.5362744927406311)
(X_252  0.4362744987010956)
(X_253  0.4833333492279053)
(X_254  0.5382353067398071)
(X_255  0.6539216041564941)
(X_256  0.6303921937942505)
(X_257  0.5794118046760559)
(X_258  0.5401960611343384)
(X_259  0.520588219165802)
(X_260  0.4362744987010956)
(X_261  0.4049019515514374)
(X_262  0.36176469922065735)
(X_263  0.33039215207099915)
(X_264  0.31470587849617004)
(X_265  0.41862747073173523)
(X_266  0.43039217591285706)
(X_267  0.4421568810939789)
(X_268  0.44607844948768616)
(X_269  0.45000001788139343)
(X_270  0.46176472306251526)
(X_271  0.36176469922065735)
(X_272  0.3539215624332428)
(X_273  0.32647058367729187)
(X_274  0.2911764681339264)
(X_275  0.3715686500072479)
(X_276  0.3715686500072479)
(X_277  0.3950980603694916)
(X_278  0.32647058367729187)
(X_279  0.3578431308269501)
(X_280  0.6578431725502014)
(X_281  0.6303921937942505)
(X_282  0.5911765098571777)
(X_283  0.45588237047195435)
(X_284  0.44019606709480286)
(X_285  0.5401960611343384)
(X_286  0.551960825920105)
(X_287  0.5598039627075195)
(X_288  0.34607842564582825)
(X_289  0.3068627417087555)
(X_290  0.27941176295280457)
(X_291  0.29509803652763367)
(X_292  0.3539215624332428)
(X_293  0.4205882251262665)
(X_294  0.4598039388656616)
(X_295  0.47156864404678345)
(X_296  0.6303921937942505)
(X_297  0.522549033164978)
(X_298  0.5186274647712708)
(X_299  0.522549033164978)
(X_300  0.6264706254005432)
(X_301  0.6147059202194214)
(X_302  0.5794118046760559)
(X_303  0.45196080207824707)
(X_304  0.3029411733150482)
(X_305  0.27941176295280457)
(X_306  0.2558823525905609)
(X_307  0.2558823525905609)
(X_308  0.520588219165802)
(X_309  0.520588219165802)
(X_310  0.4205882251262665)
(X_311  0.4049019515514374)
(X_312  0.3813725411891937)
(X_313  0.34607842564582825)
(X_314  0.31470587849617004)
(X_315  0.29509803652763367)
(X_316  0.38333335518836975)
(X_317  0.3950980603694916)
(X_318  0.4382353127002716)
(X_319  0.5166666507720947)
(X_320  0.5990196466445923)
(X_321  0.5421568751335144)
(X_322  0.5343137383460999)
(X_323  0.5147058963775635)
(X_324  0.4754902124404907)
(X_325  0.4598039388656616)
(X_326  0.4480392038822174)
(X_327  0.45588237047195435)
(X_328  0.5754902362823486)
(X_329  0.5990196466445923)
(X_330  0.6147059202194214)
(X_331  0.6186274886131287)
(X_332  0.5088235139846802)
(X_333  0.36176469922065735)
(X_334  0.3029411733150482)
(X_335  0.26764705777168274)
(X_336  0.3892156779766083)
(X_337  0.5009803771972656)
(X_338  0.5049019455909729)
(X_339  0.4892157018184662)
(X_340  0.4696078598499298)
(X_341  0.48137256503105164)
(X_342  0.520588219165802)
(X_343  0.45588237047195435)
(X_344  0.46568629145622253)
(X_345  0.4852941334247589)
(X_346  0.42450979351997375)
(X_347  0.45196080207824707)
(X_348  0.45196080207824707)
(X_349  0.41274508833885193)
(X_350  0.3499999940395355)
(X_351  0.40294119715690613)
(X_352  0.35196080803871155)
(X_353  0.35196080803871155)
(X_354  0.35196080803871155)
(X_355  0.3480392396450043)
(X_356  0.3558823764324188)
(X_357  0.3794117867946625)
(X_358  0.4107843339443207)
(X_359  0.4382353127002716)
(X_360  0.551960825920105)
(X_361  0.5441176295280457)
(X_362  0.4323529303073883)
(X_363  0.42450979351997375)
(X_364  0.3186274468898773)
(X_365  0.39313724637031555)
(X_366  0.5754902362823486)
(X_367  0.6068627834320068)
(X_368  0.5833333730697632)
(X_369  0.551960825920105)
(X_370  0.45196080207824707)
(X_371  0.4637255072593689)
(X_372  0.551960825920105)
(X_373  0.44019606709480286)
(X_374  0.5127450823783875)
(X_375  0.4696078598499298)
(X_376  0.4107843339443207)
(X_377  0.25196078419685364)
(X_378  0.2088235467672348)
(X_379  0.18921568989753723)
(X_380  0.19705882668495178)
(X_381  0.3088235557079315)
(X_382  0.31666669249534607)
(X_383  0.20490197837352753)
(X_384  0.18137255311012268)
(X_385  0.16960784792900085)
(X_386  0.27352941036224365)
(X_387  0.2852941155433655)
(X_388  0.30098041892051697)
(X_389  0.33627453446388245)
(X_390  0.387254923582077)
(X_391  0.41862747073173523)
(X_392  0.6264706254005432)
(X_393  0.6147059202194214)
(X_394  0.5676470994949341)
(X_395  0.4892157018184662)
(X_396  0.41862747073173523)
(X_397  0.41862747073173523)
(X_398  0.4892157018184662)
(X_399  0.45588237047195435)
(X_400  0.5558823943138123)
(X_401  0.520588219165802)
(X_402  0.46568629145622253)
(X_403  0.4068627655506134)
(X_404  0.3598039448261261)
(X_405  0.240196093916893)
(X_406  0.23627452552318573)
(X_407  0.240196093916893)
(X_408  0.19705882668495178)
(X_409  0.2970588207244873)
(X_410  0.28921568393707275)
(X_411  0.2774509787559509)
(X_412  0.25784313678741455)
(X_413  0.23823529481887817)
(X_414  0.22647058963775635)
(X_415  0.2186274528503418)
(X_416  0.15000000596046448)
(X_417  0.18137255311012268)
(X_418  0.21666668355464935)
(X_419  0.240196093916893)
(X_420  0.2754901945590973)
(X_421  0.27941176295280457)
(X_422  0.2598039209842682)
(X_423  0.21666668355464935)
(X_424  0.1774509847164154)
(X_425  0.18529412150382996)
(X_426  0.24411766231060028)
(X_427  0.29901960492134094)
(X_428  0.3539215624332428)
(X_429  0.31470587849617004)
(X_430  0.26372548937797546)
(X_431  0.21666668355464935)
(X_432  0.18529412150382996)
(X_433  0.2696078419685364)
(X_434  0.1617647111415863)
(X_435  0.15784314274787903)
(X_436  0.2774509787559509)
(X_437  0.25)
(X_438  0.22254902124404907)
(X_439  0.21078431606292725)
(X_440  0.2186274528503418)
(X_441  0.22647058963775635)
(X_442  0.12647059559822083)
(X_443  0.12254902720451355)
(X_444  0.1460784375667572)
(X_445  0.14215686917304993)
(X_446  0.1303921639919281)
(X_447  0.22647058963775635)
(X_448  0.25784313678741455)
(X_449  0.2656862735748291)
(X_450  0.2813725471496582)
(X_451  0.2970588207244873)
(X_452  0.31666669249534607)
(X_453  0.3480392396450043)
(X_454  0.38333335518836975)
(X_455  0.4068627655506134)
(X_456  0.2911764681339264)
(X_457  0.36764708161354065)
(X_458  0.33235296607017517)
(X_459  0.30098041892051697)
(X_460  0.2774509787559509)
(X_461  0.2617647051811218)
(X_462  0.15000000596046448)
(X_463  0.13823530077934265)
(X_464  0.1303921639919281)
(X_465  0.114705890417099)
(X_466  0.2029411792755127)
(X_467  0.2029411792755127)
(X_468  0.21078431606292725)
(X_469  0.21078431606292725)
(X_470  0.2029411792755127)
(X_471  0.19117647409439087)
(X_472  0.24607843160629272)
(X_473  0.24215686321258545)
(X_474  0.24215686321258545)
(X_475  0.23823529481887817)
(X_476  0.15784314274787903)
(X_477  0.15000000596046448)
(X_478  0.24215686321258545)
(X_479  0.2539215683937073)
(X_480  0.2774509787559509)
(X_481  0.20098040997982025)
(X_482  0.21274511516094208)
(X_483  0.21666668355464935)
(X_484  0.3284313976764679)
(X_485  0.3088235557079315)
(X_486  0.2813725471496582)
(X_487  0.15784314274787903)
(X_488  0.14215686917304993)
(X_489  0.1303921639919281)
(X_490  0.12254902720451355)
(X_491  0.114705890417099)
(X_492  0.12647059559822083)
(X_493  0.11862745881080627)
(X_494  0.21078431606292725)
(X_495  0.20686274766921997)
(X_496  0.20686274766921997)
(X_497  0.21078431606292725)
(X_498  0.20686274766921997)
(X_499  0.2029411792755127)
(X_500  0.2029411792755127)
(X_501  0.0990196168422699)
(X_502  0.0990196168422699)
(X_503  0.09509804844856262)
(X_504  0.24215686321258545)
(X_505  0.2186274528503418)
(X_506  0.19509804248809814)
(X_507  0.10294118523597717)
(X_508  0.1303921639919281)
(X_509  0.15000000596046448)
(X_510  0.1460784375667572)
(X_511  0.1303921639919281)
(X_512  0.15392157435417175)
(X_513  0.14215686917304993)
(X_514  0.11862745881080627)
(X_515  0.10686275362968445)
(X_516  0.10294118523597717)
(X_517  0.0990196168422699)
(X_518  0.09509804844856262)
(X_519  0.09117648005485535)
(X_520  0.09117648005485535)
(X_521  0.09117648005485535)
(X_522  0.09117648005485535)
(X_523  0.0833333432674408)
(X_524  0.07549020648002625)
(X_525  0.07549020648002625)
(X_526  0.07941177487373352)
(X_527  0.0833333432674408)
(X_528  0.07156863063573837)
(X_529  0.0676470622420311)
(X_530  0.06372549384832382)
(X_531  0.06372549384832382)
(X_532  0.19901961088180542)
(X_533  0.18333333730697632)
(X_534  0.1715686321258545)
(X_535  0.17549020051956177)
(X_536  0.0990196168422699)
(X_537  0.114705890417099)
(X_538  0.114705890417099)
(X_539  0.10686275362968445)
(X_540  0.11078432202339172)
(X_541  0.0990196168422699)
(X_542  0.18333333730697632)
(X_543  0.07549020648002625)
(X_544  0.07941177487373352)
(X_545  0.07941177487373352)
(X_546  0.07941177487373352)
(X_547  0.07549020648002625)
(X_548  0.1558823585510254)
(X_549  0.16764706373214722)
(X_550  0.1715686321258545)
(X_551  0.16372549533843994)
(X_552  0.14803922176361084)
(X_553  0.14411765336990356)
(X_554  0.15196079015731812)
(X_555  0.06372549384832382)
(X_556  0.16764706373214722)
(X_557  0.06372549384832382)
(X_558  0.15980392694473267)
(X_559  0.1558823585510254)
(X_560  0.1558823585510254)
(X_561  0.05588235333561897)
(X_562  0.15980392694473267)
(X_563  0.15980392694473267)
(X_564  0.16372549533843994)
(X_565  0.1715686321258545)
(X_566  0.18333333730697632)
(X_567  0.19117647409439087)
(X_568  0.0833333432674408)
(X_569  0.07156863063573837)
(X_570  0.15980392694473267)
(X_571  0.05588235333561897)
(X_572  0.05980392172932625)
(X_573  0.05980392172932625)
(X_574  0.05588235333561897)
(X_575  0.0519607849419117)
(X_576  0.04803921654820442)
(X_577  0.05980392172932625)
(X_578  0.06372549384832382)
(X_579  0.1558823585510254)
(X_580  0.14411765336990356)
(X_581  0.1401960849761963)
(X_582  0.14803922176361084)
(X_583  0.16372549533843994)
(X_584  0.15980392694473267)
(X_585  0.05588235333561897)
(X_586  0.0519607849419117)
(X_587  0.04803921654820442)
(X_588  0.03235294297337532)
(X_589  0.04019607976078987)
(X_590  0.04411764815449715)
(X_591  0.04019607976078987)
(X_592  0.13235294818878174)
(X_593  0.13235294818878174)
(X_594  0.1401960849761963)
(X_595  0.15196079015731812)
(X_596  0.1558823585510254)
(X_597  0.14803922176361084)
(X_598  0.036274511367082596)
(X_599  0.03235294297337532)
(X_600  0.03235294297337532)
(X_601  0.03235294297337532)
(X_602  0.028431374579668045)
(X_603  0.02450980618596077)
(X_604  0.03235294297337532)
(X_605  0.136274516582489)
(X_606  0.136274516582489)
(X_607  0.13235294818878174)
(X_608  0.12450980395078659)
(X_609  0.12450980395078659)
(X_610  0.13235294818878174)
(X_611  0.036274511367082596)
(X_612  0.036274511367082596)
(X_613  0.03235294297337532)
(X_614  0.028431374579668045)
(X_615  0.02450980618596077)
(X_616  0.12450980395078659)
(X_617  0.020588237792253494)
(X_618  0.01666666939854622)
(X_619  0.01666666939854622)
(X_620  0.12058823555707932)
(X_621  0.12450980395078659)
(X_622  0.12058823555707932)
(X_623  0.12058823555707932)
(X_624  0.13235294818878174)
(X_625  0.12450980395078659)
(X_626  0.11666666716337204)
(X_627  0.11666666716337204)
(X_628  0.020588237792253494)
(X_629  0.020588237792253494)
(X_630  0.01666666939854622)
(X_631  0.10882353037595749)
(X_632  0.11666666716337204)
(X_633  0.012745101936161518)
(X_634  0.004901961423456669)
(X_635  0.10490196198225021)
(X_636  0.11274509876966476)
(X_637  0.11666666716337204)
(X_638  0.11666666716337204)
(X_639  0.11274509876966476)
(X_640  0.12450980395078659)
(X_641  0.020588237792253494)
(X_642  0.11666666716337204)
(X_643  0.012745101936161518)
(X_644  0.020588237792253494)
(X_645  0.004901961423456669)
(X_646  0.09313725680112839)
(X_647  0.10490196198225021)
(X_648  0.12843137979507446)
(X_649  0.1401960849761963)
(X_650  0.028431374579668045)
(X_651  0.012745101936161518)
(X_652  0.12058823555707932)
(X_653  0.01666666939854622)
(X_654  0.012745101936161518)
(X_655  0.012745101936161518)
(X_656  0.01666666939854622)
(X_657  0.020588237792253494)
(X_658  0.01666666939854622)
(X_659  0.008823529817163944)
(X_660  0.03235294297337532)
(X_661  0.11666666716337204)
(X_662  0.10882353037595749)
(X_663  0.10882353037595749)
(X_664  0.12450980395078659)
(X_665  0.12843137979507446)
(X_666  0.02450980618596077)
(X_667  0.01666666939854622)
(X_668  0.03235294297337532)
(X_669  0.03235294297337532)
(X_670  0.02450980618596077)
(X_671  0.020588237792253494)
(X_672  0.10882353037595749)
(X_673  0.012745101936161518)
(X_674  0.012745101936161518)
(X_675  0.01666666939854622)
(X_676  0.01666666939854622)
(X_677  0.11274509876966476)
(X_678  0.11274509876966476)
(X_679  0.10882353037595749)
(X_680  0.004901961423456669)
(X_681  0.10490196198225021)
(X_682  0.10490196198225021)
(X_683  0.10490196198225021)
(X_684  0.10490196198225021)
(X_685  0.10490196198225021)
(X_686  0.004901961423456669)
(X_687  0.004901961423456669)
(X_688  0.10882353037595749)
(X_689  0.11274509876966476)
(X_690  0.012745101936161518)
(X_691  0.01666666939854622)
(X_692  0.11666666716337204)
(X_693  0.11274509876966476)
(X_694  0.012745101936161518)
(X_695  0.008823529817163944)
(X_696  0.01666666939854622)
(X_697  0.11666666716337204)
(X_698  0.11666666716337204)
(X_699  0.12058823555707932)
(X_700  0.10882353037595749)
(X_701  0.012745101936161518)
(X_702  0.012745101936161518)
(X_703  0.012745101936161518)
(X_704  0.012745101936161518)
(X_705  0.012745101936161518)
(X_706  0.012745101936161518)
(X_707  0.008823529817163944)
(X_708  0.004901961423456669)
(X_709  0.004901961423456669)
(X_710  0.10490196198225021)
(X_711  0.10490196198225021)
(X_712  0.10490196198225021)
(X_713  0.10490196198225021)
(X_714  0.004901961423456669)
(X_715  0.004901961423456669)
(X_716  0.008823529817163944)
(X_717  0.012745101936161518)
(X_718  0.012745101936161518)
(X_719  0.01666666939854622)
(X_720  0.11666666716337204)
(X_721  0.11274509876966476)
(X_722  0.012745101936161518)
(X_723  0.10882353037595749)
(X_724  0.10882353037595749)
(X_725  0.10882353037595749)
(X_726  0.10882353037595749)
(X_727  0.11274509876966476)
(X_728  0.11274509876966476)
(X_729  0.012745101936161518)
(X_730  0.11274509876966476)
(X_731  0.11274509876966476)
(X_732  0.11274509876966476)
(X_733  0.11274509876966476)
(X_734  0.012745101936161518)
(X_735  0.11274509876966476)
(X_736  0.10490196198225021)
(X_737  0.10490196198225021)
(X_738  0.10490196198225021)
(X_739  0.10490196198225021)
(X_740  0.10490196198225021)
(X_741  0.10490196198225021)
(X_742  0.10490196198225021)
(X_743  0.10490196198225021)
(X_744  0.10882353037595749)
(X_745  0.10882353037595749)
(X_746  0.11274509876966476)
(X_747  0.012745101936161518)
(X_748  0.012745101936161518)
(X_749  0.11274509876966476)
(X_750  0.008823529817163944)
(X_751  0.008823529817163944)
(X_752  0.10098039358854294)
(X_753  0.10098039358854294)
(X_754  0.10098039358854294)
(X_755  0.0009803927969187498)
(X_756  0.11274509876966476)
(X_757  0.008823529817163944)
(X_758  0.008823529817163944)
(X_759  0.008823529817163944)
(X_760  0.008823529817163944)
(X_761  0.10882353037595749)
(X_762  0.10882353037595749)
(X_763  0.11274509876966476)
(X_764  0.10490196198225021)
(X_765  0.10490196198225021)
(X_766  0.004901961423456669)
(X_767  0.004901961423456669)
(X_768  0.10490196198225021)
(X_769  0.004901961423456669)
(X_770  0.004901961423456669)
(X_771  0.004901961423456669)
(X_772  0.004901961423456669)
(X_773  0.008823529817163944)
(X_774  0.012745101936161518)
(X_775  0.012745101936161518)
(X_776  0.012745101936161518)
(X_777  0.012745101936161518)
(X_778  0.008823529817163944)
(X_779  0.004901961423456669)
(X_780  -0.0029411755967885256)
(X_781  -0.0029411755967885256)
(X_782  -0.0029411755967885256)
(X_783  0.0009803927969187498)
(Y_0 -37.81441116333008)
(Y_1 48.854644775390625)
(Y_2 -33.717857360839844)
(Y_3 24.30681800842285))