((X_0  1.0499999523162842)
(X_1  0.949999988079071)
(X_2  0.949999988079071)
(X_3  0.949999988079071)
(X_4  1.0499999523162842)
(X_5  1.0460784435272217)
(X_6  1.0421568155288696)
(X_7  0.9382352828979492)
(X_8  1.0499999523162842)
(X_9  1.0499999523162842)
(X_10  1.0499999523162842)
(X_11  0.949999988079071)
(X_12  0.949999988079071)
(X_13  1.0460784435272217)
(X_14  1.0421568155288696)
(X_15  0.9382352828979492)
(X_16  0.949999988079071)
(X_17  0.949999988079071)
(X_18  0.9382352828979492)
(X_19  0.9382352828979492)
(X_20  1.0460784435272217)
(X_21  1.0499999523162842)
(X_22  1.0499999523162842)
(X_23  0.9460784196853638)
(X_24  1.0499999523162842)
(X_25  1.0499999523162842)
(X_26  0.949999988079071)
(X_27  1.0499999523162842)
(X_28  1.0499999523162842)
(X_29  1.0499999523162842)
(X_30  0.949999988079071)
(X_31  0.949999988079071)
(X_32  0.949999988079071)
(X_33  0.949999988079071)
(X_34  0.949999988079071)
(X_35  1.0499999523162842)
(X_36  0.9382352828979492)
(X_37  0.9382352828979492)
(X_38  0.9421568512916565)
(X_39  0.9460784196853638)
(X_40  0.949999988079071)
(X_41  1.0499999523162842)
(X_42  1.0499999523162842)
(X_43  0.949999988079071)
(X_44  1.034313678741455)
(X_45  1.034313678741455)
(X_46  1.0421568155288696)
(X_47  0.949999988079071)
(X_48  1.0499999523162842)
(X_49  0.949999988079071)
(X_50  0.949999988079071)
(X_51  0.9421568512916565)
(X_52  1.0421568155288696)
(X_53  1.034313678741455)
(X_54  0.9303921461105347)
(X_55  1.034313678741455)
(X_56  0.5539215803146362)
(X_57  0.5578431487083435)
(X_58  0.5617647171020508)
(X_59  0.5656862854957581)
(X_60  0.5696078538894653)
(X_61  0.5696078538894653)
(X_62  0.5696078538894653)
(X_63  0.5696078538894653)
(X_64  0.6617647409439087)
(X_65  0.5617647171020508)
(X_66  0.5617647171020508)
(X_67  0.5656862854957581)
(X_68  0.5735294222831726)
(X_69  0.5852941274642944)
(X_70  0.593137264251709)
(X_71  0.6009804010391235)
(X_72  0.6049019694328308)
(X_73  0.6049019694328308)
(X_74  0.6127451062202454)
(X_75  0.6205882430076599)
(X_76  0.7245098352432251)
(X_77  0.7166666984558105)
(X_78  0.7049019932746887)
(X_79  0.6892157196998596)
(X_80  0.751960813999176)
(X_81  0.6598039269447327)
(X_82  0.6715686321258545)
(X_83  0.7715686559677124)
(X_84  0.12450980395078659)
(X_85  0.12843137979507446)
(X_86  0.13235294818878174)
(X_87  0.136274516582489)
(X_88  0.136274516582489)
(X_89  0.036274511367082596)
(X_90  0.036274511367082596)
(X_91  0.036274511367082596)
(X_92  0.15980392694473267)
(X_93  0.0519607849419117)
(X_94  0.04411764815449715)
(X_95  0.04019607976078987)
(X_96  0.136274516582489)
(X_97  0.14411765336990356)
(X_98  0.15196079015731812)
(X_99  0.1558823585510254)
(X_100  0.1558823585510254)
(X_101  0.15196079015731812)
(X_102  0.14803922176361084)
(X_103  0.14411765336990356)
(X_104  0.04803921654820442)
(X_105  0.0519607849419117)
(X_106  0.05588235333561897)
(X_107  0.05588235333561897)
(X_108  0.03235294297337532)
(X_109  0.04019607976078987)
(X_110  0.05588235333561897)
(X_111  0.16372549533843994)
(X_112  0.03235294297337532)
(X_113  0.13235294818878174)
(X_114  0.03235294297337532)
(X_115  0.03235294297337532)
(X_116  0.03235294297337532)
(X_117  0.028431374579668045)
(X_118  0.02450980618596077)
(X_119  0.020588237792253494)
(X_120  0.04803921654820442)
(X_121  0.04019607976078987)
(X_122  0.028431374579668045)
(X_123  0.01666666939854622)
(X_124  0.11274509876966476)
(X_125  0.11274509876966476)
(X_126  0.11666666716337204)
(X_127  0.12058823555707932)
(X_128  0.10490196198225021)
(X_129  0.10882353037595749)
(X_130  0.11666666716337204)
(X_131  0.12058823555707932)
(X_132  0.12450980395078659)
(X_133  0.12450980395078659)
(X_134  0.12843137979507446)
(X_135  0.13235294818878174)
(X_136  0.1401960849761963)
(X_137  0.03235294297337532)
(X_138  0.11274509876966476)
(X_139  0.09705882519483566)
(X_140  0.136274516582489)
(X_141  0.136274516582489)
(X_142  0.136274516582489)
(X_143  0.136274516582489)
(X_144  0.13235294818878174)
(X_145  0.028431374579668045)
(X_146  0.02450980618596077)
(X_147  0.12058823555707932)
(X_148  0.136274516582489)
(X_149  0.12843137979507446)
(X_150  0.02450980618596077)
(X_151  0.020588237792253494)
(X_152  0.11666666716337204)
(X_153  0.12058823555707932)
(X_154  0.12450980395078659)
(X_155  0.12450980395078659)
(X_156  0.02450980618596077)
(X_157  0.04019607976078987)
(X_158  0.15196079015731812)
(X_159  0.1558823585510254)
(X_160  0.14411765336990356)
(X_161  0.02450980618596077)
(X_162  0.012745101936161518)
(X_163  0.10490196198225021)
(X_164  0.10098039358854294)
(X_165  0.028431374579668045)
(X_166  0.05980392172932625)
(X_167  0.1715686321258545)
(X_168  0.11666666716337204)
(X_169  0.12058823555707932)
(X_170  0.12058823555707932)
(X_171  0.12058823555707932)
(X_172  0.12058823555707932)
(X_173  0.020588237792253494)
(X_174  0.01666666939854622)
(X_175  0.012745101936161518)
(X_176  0.020588237792253494)
(X_177  0.020588237792253494)
(X_178  0.020588237792253494)
(X_179  0.020588237792253494)
(X_180  0.12058823555707932)
(X_181  0.12058823555707932)
(X_182  0.12058823555707932)
(X_183  0.020588237792253494)
(X_184  0.10882353037595749)
(X_185  0.11666666716337204)
(X_186  0.12058823555707932)
(X_187  0.12058823555707932)
(X_188  0.11666666716337204)
(X_189  0.12058823555707932)
(X_190  0.136274516582489)
(X_191  0.14803922176361084)
(X_192  0.19117647409439087)
(X_193  0.2539215683937073)
(X_194  0.24411766231060028)
(X_195  0.31078431010246277)
(X_196  0.01666666939854622)
(X_197  0.12058823555707932)
(X_198  0.12450980395078659)
(X_199  0.028431374579668045)
(X_200  0.03235294297337532)
(X_201  0.13235294818878174)
(X_202  0.13235294818878174)
(X_203  0.13235294818878174)
(X_204  0.020588237792253494)
(X_205  0.020588237792253494)
(X_206  0.02450980618596077)
(X_207  0.02450980618596077)
(X_208  0.020588237792253494)
(X_209  0.01666666939854622)
(X_210  0.012745101936161518)
(X_211  0.10882353037595749)
(X_212  0.12450980395078659)
(X_213  0.12450980395078659)
(X_214  0.02450980618596077)
(X_215  0.13235294818878174)
(X_216  0.16764706373214722)
(X_217  0.2343137264251709)
(X_218  0.31666669249534607)
(X_219  0.3715686500072479)
(X_220  0.4421568810939789)
(X_221  0.3578431308269501)
(X_222  0.3735294044017792)
(X_223  0.4696078598499298)
(X_224  0.012745101936161518)
(X_225  0.020588237792253494)
(X_226  0.136274516582489)
(X_227  0.14411765336990356)
(X_228  0.04803921654820442)
(X_229  0.04019607976078987)
(X_230  0.03235294297337532)
(X_231  0.02450980618596077)
(X_232  0.12058823555707932)
(X_233  0.11274509876966476)
(X_234  0.11274509876966476)
(X_235  0.11666666716337204)
(X_236  0.036274511367082596)
(X_237  0.06372549384832382)
(X_238  0.09117648005485535)
(X_239  0.10686275362968445)
(X_240  0.15000000596046448)
(X_241  0.30490198731422424)
(X_242  0.3637255132198334)
(X_243  0.40294119715690613)
(X_244  0.4421568810939789)
(X_245  0.47745099663734436)
(X_246  0.48137256503105164)
(X_247  0.3578431308269501)
(X_248  0.31470587849617004)
(X_249  0.3068627417087555)
(X_250  0.29509803652763367)
(X_251  0.38333335518836975)
(X_252  0.028431374579668045)
(X_253  0.020588237792253494)
(X_254  0.004901961423456669)
(X_255  0.09313725680112839)
(X_256  0.08921568840742111)
(X_257  0.09313725680112839)
(X_258  0.10098039358854294)
(X_259  0.10882353037595749)
(X_260  0.09117648005485535)
(X_261  0.14215686917304993)
(X_262  0.3127451241016388)
(X_263  0.3754902184009552)
(X_264  0.41470590233802795)
(X_265  0.3225490152835846)
(X_266  0.41470590233802795)
(X_267  0.3029411733150482)
(X_268  0.3029411733150482)
(X_269  0.3225490152835846)
(X_270  0.4264706075191498)
(X_271  0.31078431010246277)
(X_272  0.3068627417087555)
(X_273  0.31078431010246277)
(X_274  0.39901962876319885)
(X_275  0.3794117867946625)
(X_276  0.38333335518836975)
(X_277  0.2754901945590973)
(X_278  0.2558823525905609)
(X_279  0.240196093916893)
(X_280  0.10882353037595749)
(X_281  0.12058823555707932)
(X_282  0.04411764815449715)
(X_283  0.0833333432674408)
(X_284  0.13823530077934265)
(X_285  0.30098041892051697)
(X_286  0.3558823764324188)
(X_287  0.387254923582077)
(X_288  0.27941176295280457)
(X_289  0.3029411733150482)
(X_290  0.33039215207099915)
(X_291  0.3382352888584137)
(X_292  0.32647058367729187)
(X_293  0.31470587849617004)
(X_294  0.3068627417087555)
(X_295  0.3029411733150482)
(X_296  0.4107843339443207)
(X_297  0.3186274468898773)
(X_298  0.31470587849617004)
(X_299  0.29509803652763367)
(X_300  0.38333335518836975)
(X_301  0.3794117867946625)
(X_302  0.36764708161354065)
(X_303  0.24803923070430756)
(X_304  0.20490197837352753)
(X_305  0.19705882668495178)
(X_306  0.1931372582912445)
(X_307  0.18921568989753723)
(X_308  0.38333335518836975)
(X_309  0.387254923582077)
(X_310  0.3950980603694916)
(X_311  0.3029411733150482)
(X_312  0.3068627417087555)
(X_313  0.31078431010246277)
(X_314  0.31078431010246277)
(X_315  0.31078431010246277)
(X_316  0.3343137204647064)
(X_317  0.4264706075191498)
(X_318  0.4068627655506134)
(X_319  0.36764708161354065)
(X_320  0.23235295712947845)
(X_321  0.22058825194835663)
(X_322  0.23235295712947845)
(X_323  0.24803923070430756)
(X_324  0.21666668355464935)
(X_325  0.23627452552318573)
(X_326  0.26372548937797546)
(X_327  0.27941176295280457)
(X_328  0.387254923582077)
(X_329  0.387254923582077)
(X_330  0.3715686500072479)
(X_331  0.3558823764324188)
(X_332  0.21274511516094208)
(X_333  0.21274511516094208)
(X_334  0.21274511516094208)
(X_335  0.21274511516094208)
(X_336  0.3343137204647064)
(X_337  0.43431374430656433)
(X_338  0.43039217591285706)
(X_339  0.4264706075191498)
(X_340  0.41470590233802795)
(X_341  0.39901962876319885)
(X_342  0.28333333134651184)
(X_343  0.2754901945590973)
(X_344  0.1931372582912445)
(X_345  0.21666668355464935)
(X_346  0.24803923070430756)
(X_347  0.27156862616539)
(X_348  0.27941176295280457)
(X_349  0.27941176295280457)
(X_350  0.2872548997402191)
(X_351  0.3911764919757843)
(X_352  0.49313727021217346)
(X_353  0.5009803771972656)
(X_354  0.5127450823783875)
(X_355  0.5284313559532166)
(X_356  0.5245097875595093)
(X_357  0.5088235139846802)
(X_358  0.4892157018184662)
(X_359  0.48137256503105164)
(X_360  0.48137256503105164)
(X_361  0.37745097279548645)
(X_362  0.3656862676143646)
(X_363  0.3578431308269501)
(X_364  0.31078431010246277)
(X_365  0.29509803652763367)
(X_366  0.2754901945590973)
(X_367  0.35196080803871155)
(X_368  0.33627453446388245)
(X_369  0.3284313976764679)
(X_370  0.2245098203420639)
(X_371  0.2245098203420639)
(X_372  0.3578431308269501)
(X_373  0.3696078360080719)
(X_374  0.4892157018184662)
(X_375  0.5088235139846802)
(X_376  0.4166666567325592)
(X_377  0.4166666567325592)
(X_378  0.40882351994514465)
(X_379  0.4049019515514374)
(X_380  0.4382353127002716)
(X_381  0.41862747073173523)
(X_382  0.39901962876319885)
(X_383  0.387254923582077)
(X_384  0.27156862616539)
(X_385  0.25196078419685364)
(X_386  0.25196078419685364)
(X_387  0.2598039209842682)
(X_388  0.36764708161354065)
(X_389  0.36764708161354065)
(X_390  0.26372548937797546)
(X_391  0.2558823525905609)
(X_392  0.29313725233078003)
(X_393  0.30490198731422424)
(X_394  0.3284313976764679)
(X_395  0.3598039448261261)
(X_396  0.39901962876319885)
(X_397  0.4382353127002716)
(X_398  0.4696078598499298)
(X_399  0.4892157018184662)
(X_400  0.46568629145622253)
(X_401  0.4264706075191498)
(X_402  0.3794117867946625)
(X_403  0.3480392396450043)
(X_404  0.33627453446388245)
(X_405  0.23235295712947845)
(X_406  0.22058825194835663)
(X_407  0.21274511516094208)
(X_408  0.2088235467672348)
(X_409  0.18921568989753723)
(X_410  0.27352941036224365)
(X_411  0.2813725471496582)
(X_412  0.2774509787559509)
(X_413  0.16960784792900085)
(X_414  0.18137255311012268)
(X_415  0.30098041892051697)
(X_416  0.21274511516094208)
(X_417  0.21666668355464935)
(X_418  0.2245098203420639)
(X_419  0.23235295712947845)
(X_420  0.3696078360080719)
(X_421  0.37745097279548645)
(X_422  0.385294109582901)
(X_423  0.3813725411891937)
(X_424  0.3656862676143646)
(X_425  0.3343137204647064)
(X_426  0.39901962876319885)
(X_427  0.3754902184009552)
(X_428  0.3480392396450043)
(X_429  0.31666669249534607)
(X_430  0.18137255311012268)
(X_431  0.16960784792900085)
(X_432  0.1774509847164154)
(X_433  0.18529412150382996)
(X_434  0.16960784792900085)
(X_435  0.15392157435417175)
(X_436  0.2343137264251709)
(X_437  0.23039215803146362)
(X_438  0.24607843160629272)
(X_439  0.2813725471496582)
(X_440  0.2970588207244873)
(X_441  0.2852941155433655)
(X_442  0.18921568989753723)
(X_443  0.2088235467672348)
(X_444  0.16568627953529358)
(X_445  0.16568627953529358)
(X_446  0.16960784792900085)
(X_447  0.2696078419685364)
(X_448  0.387254923582077)
(X_449  0.26764705777168274)
(X_450  0.240196093916893)
(X_451  0.2245098203420639)
(X_452  0.22058825194835663)
(X_453  0.2088235467672348)
(X_454  0.2813725471496582)
(X_455  0.25784313678741455)
(X_456  0.27352941036224365)
(X_457  0.2656862735748291)
(X_458  0.25)
(X_459  0.23823529481887817)
(X_460  0.1303921639919281)
(X_461  0.22647058963775635)
(X_462  0.1303921639919281)
(X_463  0.13431373238563538)
(X_464  0.13823530077934265)
(X_465  0.13431373238563538)
(X_466  0.23039215803146362)
(X_467  0.22647058963775635)
(X_468  0.22254902124404907)
(X_469  0.22254902124404907)
(X_470  0.22254902124404907)
(X_471  0.22647058963775635)
(X_472  0.23823529481887817)
(X_473  0.23039215803146362)
(X_474  0.2186274528503418)
(X_475  0.21078431606292725)
(X_476  0.23627452552318573)
(X_477  0.21666668355464935)
(X_478  0.29313725233078003)
(X_479  0.2852941155433655)
(X_480  0.18921568989753723)
(X_481  0.18137255311012268)
(X_482  0.15784314274787903)
(X_483  0.23823529481887817)
(X_484  0.24215686321258545)
(X_485  0.2343137264251709)
(X_486  0.12254902720451355)
(X_487  0.11078432202339172)
(X_488  0.10686275362968445)
(X_489  0.10294118523597717)
(X_490  0.10686275362968445)
(X_491  0.10686275362968445)
(X_492  0.0990196168422699)
(X_493  0.09509804844856262)
(X_494  0.09117648005485535)
(X_495  0.1872549057006836)
(X_496  0.1872549057006836)
(X_497  0.1872549057006836)
(X_498  0.1872549057006836)
(X_499  0.08725491166114807)
(X_500  0.19901961088180542)
(X_501  0.09509804844856262)
(X_502  0.0833333432674408)
(X_503  0.07156863063573837)
(X_504  0.15784314274787903)
(X_505  0.1460784375667572)
(X_506  0.23039215803146362)
(X_507  0.1303921639919281)
(X_508  0.13431373238563538)
(X_509  0.1303921639919281)
(X_510  0.2186274528503418)
(X_511  0.2029411792755127)
(X_512  0.0990196168422699)
(X_513  0.09509804844856262)
(X_514  0.18333333730697632)
(X_515  0.07549020648002625)
(X_516  0.0676470622420311)
(X_517  0.0676470622420311)
(X_518  0.0676470622420311)
(X_519  0.07156863063573837)
(X_520  0.05588235333561897)
(X_521  0.05588235333561897)
(X_522  0.0519607849419117)
(X_523  0.04803921654820442)
(X_524  0.04803921654820442)
(X_525  0.14803922176361084)
(X_526  0.14803922176361084)
(X_527  0.15196079015731812)
(X_528  0.05980392172932625)
(X_529  0.05588235333561897)
(X_530  0.04803921654820442)
(X_531  0.036274511367082596)
(X_532  0.19509804248809814)
(X_533  0.1872549057006836)
(X_534  0.17549020051956177)
(X_535  0.17549020051956177)
(X_536  0.17941176891326904)
(X_537  0.07941177487373352)
(X_538  0.07156863063573837)
(X_539  0.16372549533843994)
(X_540  0.05980392172932625)
(X_541  0.05588235333561897)
(X_542  0.14803922176361084)
(X_543  0.04411764815449715)
(X_544  0.04019607976078987)
(X_545  0.036274511367082596)
(X_546  0.036274511367082596)
(X_547  0.04019607976078987)
(X_548  0.136274516582489)
(X_549  0.036274511367082596)
(X_550  0.03235294297337532)
(X_551  0.028431374579668045)
(X_552  0.12843137979507446)
(X_553  0.13235294818878174)
(X_554  0.13235294818878174)
(X_555  0.036274511367082596)
(X_556  0.1401960849761963)
(X_557  0.136274516582489)
(X_558  0.13235294818878174)
(X_559  0.12450980395078659)
(X_560  0.1558823585510254)
(X_561  0.04803921654820442)
(X_562  0.04411764815449715)
(X_563  0.04019607976078987)
(X_564  0.04019607976078987)
(X_565  0.04019607976078987)
(X_566  0.03235294297337532)
(X_567  0.028431374579668045)
(X_568  0.03235294297337532)
(X_569  0.028431374579668045)
(X_570  0.12450980395078659)
(X_571  0.020588237792253494)
(X_572  0.020588237792253494)
(X_573  0.020588237792253494)
(X_574  0.020588237792253494)
(X_575  0.020588237792253494)
(X_576  0.02450980618596077)
(X_577  0.020588237792253494)
(X_578  0.020588237792253494)
(X_579  0.11666666716337204)
(X_580  0.11666666716337204)
(X_581  0.12058823555707932)
(X_582  0.12450980395078659)
(X_583  0.12450980395078659)
(X_584  0.12843137979507446)
(X_585  0.02450980618596077)
(X_586  0.020588237792253494)
(X_587  0.01666666939854622)
(X_588  0.12843137979507446)
(X_589  0.028431374579668045)
(X_590  0.02450980618596077)
(X_591  0.02450980618596077)
(X_592  0.020588237792253494)
(X_593  0.11666666716337204)
(X_594  0.11274509876966476)
(X_595  0.11274509876966476)
(X_596  0.11274509876966476)
(X_597  0.012745101936161518)
(X_598  0.012745101936161518)
(X_599  0.008823529817163944)
(X_600  0.008823529817163944)
(X_601  0.008823529817163944)
(X_602  0.008823529817163944)
(X_603  0.008823529817163944)
(X_604  0.10490196198225021)
(X_605  0.10490196198225021)
(X_606  0.10098039358854294)
(X_607  0.10098039358854294)
(X_608  0.10490196198225021)
(X_609  0.10490196198225021)
(X_610  0.10882353037595749)
(X_611  0.11274509876966476)
(X_612  0.012745101936161518)
(X_613  0.008823529817163944)
(X_614  0.10882353037595749)
(X_615  0.10882353037595749)
(X_616  0.10882353037595749)
(X_617  0.11274509876966476)
(X_618  0.012745101936161518)
(X_619  0.012745101936161518)
(X_620  0.10882353037595749)
(X_621  0.10490196198225021)
(X_622  0.10882353037595749)
(X_623  0.008823529817163944)
(X_624  0.09705882519483566)
(X_625  0.10098039358854294)
(X_626  0.10098039358854294)
(X_627  0.004901961423456669)
(X_628  0.004901961423456669)
(X_629  0.004901961423456669)
(X_630  0.0009803927969187498)
(X_631  0.0009803927969187498)
(X_632  -0.0029411755967885256)
(X_633  -0.006862743757665157)
(X_634  0.09313725680112839)
(X_635  -0.006862743757665157)
(X_636  0.09313725680112839)
(X_637  0.09705882519483566)
(X_638  0.10098039358854294)
(X_639  0.10490196198225021)
(X_640  0.0009803927969187498)
(X_641  0.0009803927969187498)
(X_642  0.10098039358854294)
(X_643  0.10098039358854294)
(X_644  0.09313725680112839)
(X_645  -0.0029411755967885256)
(X_646  0.10490196198225021)
(X_647  0.10490196198225021)
(X_648  0.10490196198225021)
(X_649  0.10490196198225021)
(X_650  0.10882353037595749)
(X_651  0.11274509876966476)
(X_652  -0.010784312151372433)
(X_653  -0.006862743757665157)
(X_654  -0.0029411755967885256)
(X_655  -0.0029411755967885256)
(X_656  0.0009803927969187498)
(X_657  0.0009803927969187498)
(X_658  -0.0029411755967885256)
(X_659  -0.0029411755967885256)
(X_660  0.09313725680112839)
(X_661  0.09313725680112839)
(X_662  0.09313725680112839)
(X_663  0.09313725680112839)
(X_664  -0.0029411755967885256)
(X_665  0.10098039358854294)
(X_666  0.10490196198225021)
(X_667  0.004901961423456669)
(X_668  0.0009803927969187498)
(X_669  0.0009803927969187498)
(X_670  0.10490196198225021)
(X_671  0.004901961423456669)
(X_672  0.09705882519483566)
(X_673  -0.0029411755967885256)
(X_674  -0.0029411755967885256)
(X_675  -0.0029411755967885256)
(X_676  -0.0029411755967885256)
(X_677  0.09705882519483566)
(X_678  0.09705882519483566)
(X_679  0.09705882519483566)
(X_680  -0.006862743757665157)
(X_681  -0.006862743757665157)
(X_682  -0.006862743757665157)
(X_683  -0.006862743757665157)
(X_684  0.09313725680112839)
(X_685  -0.006862743757665157)
(X_686  -0.006862743757665157)
(X_687  -0.006862743757665157)
(X_688  0.09705882519483566)
(X_689  0.09313725680112839)
(X_690  -0.006862743757665157)
(X_691  -0.010784312151372433)
(X_692  0.08921568840742111)
(X_693  0.09313725680112839)
(X_694  -0.006862743757665157)
(X_695  0.09705882519483566)
(X_696  0.09313725680112839)
(X_697  0.09313725680112839)
(X_698  0.09313725680112839)
(X_699  -0.006862743757665157)
(X_700  0.09313725680112839)
(X_701  -0.006862743757665157)
(X_702  -0.006862743757665157)
(X_703  0.09313725680112839)
(X_704  -0.006862743757665157)
(X_705  -0.006862743757665157)
(X_706  -0.006862743757665157)
(X_707  -0.006862743757665157)
(X_708  -0.006862743757665157)
(X_709  -0.006862743757665157)
(X_710  -0.006862743757665157)
(X_711  -0.006862743757665157)
(X_712  0.09313725680112839)
(X_713  -0.006862743757665157)
(X_714  -0.006862743757665157)
(X_715  -0.006862743757665157)
(X_716  0.09705882519483566)
(X_717  0.09313725680112839)
(X_718  -0.006862743757665157)
(X_719  -0.010784312151372433)
(X_720  -0.010784312151372433)
(X_721  -0.006862743757665157)
(X_722  0.09313725680112839)
(X_723  0.09705882519483566)
(X_724  0.09313725680112839)
(X_725  0.09313725680112839)
(X_726  0.09313725680112839)
(X_727  0.09313725680112839)
(X_728  0.08921568840742111)
(X_729  -0.010784312151372433)
(X_730  0.08921568840742111)
(X_731  0.08921568840742111)
(X_732  0.08921568840742111)
(X_733  0.08921568840742111)
(X_734  0.08921568840742111)
(X_735  0.08921568840742111)
(X_736  -0.006862743757665157)
(X_737  -0.006862743757665157)
(X_738  -0.006862743757665157)
(X_739  -0.006862743757665157)
(X_740  -0.006862743757665157)
(X_741  -0.006862743757665157)
(X_742  -0.006862743757665157)
(X_743  -0.006862743757665157)
(X_744  -0.006862743757665157)
(X_745  -0.006862743757665157)
(X_746  -0.010784312151372433)
(X_747  -0.010784312151372433)
(X_748  0.08921568840742111)
(X_749  0.08921568840742111)
(X_750  -0.006862743757665157)
(X_751  0.09313725680112839)
(X_752  0.09313725680112839)
(X_753  0.09313725680112839)
(X_754  0.09313725680112839)
(X_755  0.09313725680112839)
(X_756  0.08529412001371384)
(X_757  0.08529412001371384)
(X_758  0.08529412001371384)
(X_759  0.08529412001371384)
(X_760  -0.014705880545079708)
(X_761  -0.014705880545079708)
(X_762  -0.014705880545079708)
(X_763  -0.014705880545079708)
(X_764  -0.006862743757665157)
(X_765  -0.006862743757665157)
(X_766  -0.006862743757665157)
(X_767  -0.006862743757665157)
(X_768  -0.006862743757665157)
(X_769  -0.006862743757665157)
(X_770  -0.006862743757665157)
(X_771  -0.006862743757665157)
(X_772  -0.006862743757665157)
(X_773  -0.006862743757665157)
(X_774  -0.010784312151372433)
(X_775  -0.014705880545079708)
(X_776  -0.014705880545079708)
(X_777  -0.010784312151372433)
(X_778  -0.006862743757665157)
(X_779  -0.006862743757665157)
(X_780  -0.010784312151372433)
(X_781  -0.010784312151372433)
(X_782  -0.010784312151372433)
(X_783  -0.010784312151372433)
(Y_0 -16.20059585571289)
(Y_1 14.182533264160156)
(Y_2 -12.468658447265625)
(Y_3 15.928951263427734))