((X_0  1.022549033164978)
(X_1  0.9421568512916565)
(X_2  0.9460784196853638)
(X_3  1.0421568155288696)
(X_4  1.0460784435272217)
(X_5  0.949999988079071)
(X_6  0.949999988079071)
(X_7  0.9460784196853638)
(X_8  1.0382353067398071)
(X_9  1.0382353067398071)
(X_10  1.0460784435272217)
(X_11  1.0499999523162842)
(X_12  1.0499999523162842)
(X_13  1.0499999523162842)
(X_14  1.0499999523162842)
(X_15  0.9848683476448059)
(X_16  0.949999988079071)
(X_17  0.9460784196853638)
(X_18  0.9460784196853638)
(X_19  0.9460784196853638)
(X_20  1.0460784435272217)
(X_21  1.0460784435272217)
(X_22  1.0460784435272217)
(X_23  1.0460784435272217)
(X_24  1.0499999523162842)
(X_25  1.0499999523162842)
(X_26  0.949999988079071)
(X_27  0.949999988079071)
(X_28  0.865686297416687)
(X_29  0.8774510025978088)
(X_30  0.7852941155433655)
(X_31  0.8162409663200378)
(X_32  0.8280056715011597)
(X_33  0.820588231086731)
(X_34  0.8323529362678528)
(X_35  0.9284313917160034)
(X_36  0.9441176652908325)
(X_37  0.9519608020782471)
(X_38  0.8598039150238037)
(X_39  0.8715686202049255)
(X_40  0.8833333253860474)
(X_41  0.9911764860153198)
(X_42  0.9990196228027344)
(X_43  1.0029411315917969)
(X_44  0.9950980544090271)
(X_45  0.9990196228027344)
(X_46  0.906862735748291)
(X_47  0.9147058725357056)
(X_48  0.9264705777168274)
(X_49  0.9343137145042419)
(X_50  0.9421568512916565)
(X_51  0.9460784196853638)
(X_52  1.034313678741455)
(X_53  1.0382353067398071)
(X_54  0.9460784196853638)
(X_55  1.0499999523162842)
(X_56  0.1303921639919281)
(X_57  0.13823530077934265)
(X_58  0.13823530077934265)
(X_59  0.1303921639919281)
(X_60  0.1460784375667572)
(X_61  0.1774509847164154)
(X_62  0.19705882668495178)
(X_63  0.19705882668495178)
(X_64  0.18137255311012268)
(X_65  0.18529412150382996)
(X_66  0.29313725233078003)
(X_67  0.30490198731422424)
(X_68  0.28179827332496643)
(X_69  0.22843138873577118)
(X_70  0.23627452552318573)
(X_71  0.240196093916893)
(X_72  0.29901960492134094)
(X_73  0.3029411733150482)
(X_74  0.31078431010246277)
(X_75  0.32647058367729187)
(X_76  0.4382353127002716)
(X_77  0.45000001788139343)
(X_78  0.457843154668808)
(X_79  0.46568629145622253)
(X_80  0.5284313559532166)
(X_81  0.5323529243469238)
(X_82  0.44019606709480286)
(X_83  0.5480391979217529)
(X_84  0.2029411792755127)
(X_85  0.21078431606292725)
(X_86  0.1417311429977417)
(X_87  0.12996643781661987)
(X_88  0.0990196168422699)
(X_89  0.11862745881080627)
(X_90  0.12647059559822083)
(X_91  0.12254902720451355)
(X_92  0.10686275362968445)
(X_93  0.10686275362968445)
(X_94  0.10686275362968445)
(X_95  0.10686275362968445)
(X_96  0.20686274766921997)
(X_97  0.21078431606292725)
(X_98  0.21470588445663452)
(X_99  0.21470588445663452)
(X_100  0.17941176891326904)
(X_101  0.18333333730697632)
(X_102  0.08725491166114807)
(X_103  0.09117648005485535)
(X_104  0.09509804844856262)
(X_105  0.10294118523597717)
(X_106  0.10686275362968445)
(X_107  0.10686275362968445)
(X_108  0.0833333432674408)
(X_109  0.0833333432674408)
(X_110  0.09117648005485535)
(X_111  0.19509804248809814)
(X_112  0.07549020648002625)
(X_113  0.1872549057006836)
(X_114  0.08725491166114807)
(X_115  0.07549020648002625)
(X_116  0.07156863063573837)
(X_117  0.07941177487373352)
(X_118  0.07549020648002625)
(X_119  0.05980392172932625)
(X_120  0.10686275362968445)
(X_121  0.10294118523597717)
(X_122  0.09509804844856262)
(X_123  0.12212330847978592)
(X_124  0.18333333730697632)
(X_125  0.0833333432674408)
(X_126  0.0833333432674408)
(X_127  0.0833333432674408)
(X_128  0.19509804248809814)
(X_129  0.19509804248809814)
(X_130  0.19509804248809814)
(X_131  0.19509804248809814)
(X_132  0.19509804248809814)
(X_133  0.19509804248809814)
(X_134  0.09509804844856262)
(X_135  0.19509804248809814)
(X_136  0.11078432202339172)
(X_137  0.11078432202339172)
(X_138  0.114705890417099)
(X_139  0.21470588445663452)
(X_140  0.17549020051956177)
(X_141  0.19117647409439087)
(X_142  0.19901961088180542)
(X_143  0.1872549057006836)
(X_144  0.08725491166114807)
(X_145  0.09509804844856262)
(X_146  0.08725491166114807)
(X_147  0.10643703490495682)
(X_148  0.21078431606292725)
(X_149  0.20686274766921997)
(X_150  0.16415122151374817)
(X_151  0.09509804844856262)
(X_152  0.19117647409439087)
(X_153  0.19117647409439087)
(X_154  0.19509804248809814)
(X_155  0.0990196168422699)
(X_156  0.09509804844856262)
(X_157  0.09509804844856262)
(X_158  0.19509804248809814)
(X_159  0.19509804248809814)
(X_160  0.19901961088180542)
(X_161  0.0990196168422699)
(X_162  0.0990196168422699)
(X_163  0.19901961088180542)
(X_164  0.10686275362968445)
(X_165  0.10686275362968445)
(X_166  0.10686275362968445)
(X_167  0.20686274766921997)
(X_168  0.0833333432674408)
(X_169  0.09509804844856262)
(X_170  0.09509804844856262)
(X_171  0.17941176891326904)
(X_172  0.17941176891326904)
(X_173  0.19117647409439087)
(X_174  0.09509804844856262)
(X_175  0.0833333432674408)
(X_176  0.1872549057006836)
(X_177  0.18333333730697632)
(X_178  0.17549020051956177)
(X_179  0.16764706373214722)
(X_180  0.16764706373214722)
(X_181  0.1715686321258545)
(X_182  0.07549020648002625)
(X_183  0.07941177487373352)
(X_184  0.07549020648002625)
(X_185  0.17941176891326904)
(X_186  0.17941176891326904)
(X_187  0.17941176891326904)
(X_188  0.17941176891326904)
(X_189  0.07941177487373352)
(X_190  0.07941177487373352)
(X_191  0.17941176891326904)
(X_192  0.19117647409439087)
(X_193  0.19117647409439087)
(X_194  0.09509804844856262)
(X_195  0.09509804844856262)
(X_196  0.0833333432674408)
(X_197  0.1872549057006836)
(X_198  0.14062181115150452)
(X_199  0.0519607849419117)
(X_200  0.04803921654820442)
(X_201  0.16372549533843994)
(X_202  0.1715686321258545)
(X_203  0.16372549533843994)
(X_204  0.10294118523597717)
(X_205  0.09509804844856262)
(X_206  0.18333333730697632)
(X_207  0.1715686321258545)
(X_208  0.10251546651124954)
(X_209  0.0676470622420311)
(X_210  0.07156863063573837)
(X_211  0.07549020648002625)
(X_212  0.1872549057006836)
(X_213  0.1872549057006836)
(X_214  0.0833333432674408)
(X_215  0.1445433795452118)
(X_216  0.07549020648002625)
(X_217  0.1715686321258545)
(X_218  0.07156863063573837)
(X_219  0.0676470622420311)
(X_220  0.0676470622420311)
(X_221  0.07156863063573837)
(X_222  0.07549020648002625)
(X_223  0.17941176891326904)
(X_224  0.06372549384832382)
(X_225  0.07941177487373352)
(X_226  0.19509804248809814)
(X_227  0.19509804248809814)
(X_228  0.07941177487373352)
(X_229  0.0676470622420311)
(X_230  0.06372549384832382)
(X_231  0.0676470622420311)
(X_232  0.17941176891326904)
(X_233  0.1715686321258545)
(X_234  0.16372549533843994)
(X_235  0.16764706373214722)
(X_236  0.07549020648002625)
(X_237  0.08725491166114807)
(X_238  0.19117647409439087)
(X_239  0.09117648005485535)
(X_240  0.09509804844856262)
(X_241  0.1445433795452118)
(X_242  0.16764706373214722)
(X_243  0.1715686321258545)
(X_244  0.17941176891326904)
(X_245  0.1872549057006836)
(X_246  0.17941176891326904)
(X_247  0.07156863063573837)
(X_248  0.08725491166114807)
(X_249  0.1872549057006836)
(X_250  0.1260448694229126)
(X_251  0.19117647409439087)
(X_252  0.05980392172932625)
(X_253  0.07156863063573837)
(X_254  0.0833333432674408)
(X_255  0.19509804248809814)
(X_256  0.19509804248809814)
(X_257  0.19901961088180542)
(X_258  0.2029411792755127)
(X_259  0.10686275362968445)
(X_260  0.0990196168422699)
(X_261  0.09117648005485535)
(X_262  0.07941177487373352)
(X_263  0.14062181115150452)
(X_264  0.1445433795452118)
(X_265  0.18333333730697632)
(X_266  0.17941176891326904)
(X_267  0.1445433795452118)
(X_268  0.09509804844856262)
(X_269  0.19117647409439087)
(X_270  0.19509804248809814)
(X_271  0.2029411792755127)
(X_272  0.114705890417099)
(X_273  0.21078431606292725)
(X_274  0.19901961088180542)
(X_275  0.08725491166114807)
(X_276  0.08725491166114807)
(X_277  0.08725491166114807)
(X_278  0.09117648005485535)
(X_279  0.09509804844856262)
(X_280  0.21470588445663452)
(X_281  0.21078431606292725)
(X_282  0.0990196168422699)
(X_283  0.09509804844856262)
(X_284  0.09117648005485535)
(X_285  0.1872549057006836)
(X_286  0.17941176891326904)
(X_287  0.1715686321258545)
(X_288  0.0833333432674408)
(X_289  0.07549020648002625)
(X_290  0.07156863063573837)
(X_291  0.07941177487373352)
(X_292  0.08725491166114807)
(X_293  0.0990196168422699)
(X_294  0.0990196168422699)
(X_295  0.0990196168422699)
(X_296  0.07941177487373352)
(X_297  0.07156863063573837)
(X_298  0.16764706373214722)
(X_299  0.1715686321258545)
(X_300  0.17549020051956177)
(X_301  0.17941176891326904)
(X_302  0.17549020051956177)
(X_303  0.0676470622420311)
(X_304  0.07156863063573837)
(X_305  0.07549020648002625)
(X_306  0.07941177487373352)
(X_307  0.0833333432674408)
(X_308  0.08725491166114807)
(X_309  0.07549020648002625)
(X_310  0.0676470622420311)
(X_311  0.07549020648002625)
(X_312  0.09117648005485535)
(X_313  0.13780957460403442)
(X_314  0.10294118523597717)
(X_315  0.09509804844856262)
(X_316  0.18333333730697632)
(X_317  0.17549020051956177)
(X_318  0.16764706373214722)
(X_319  0.16372549533843994)
(X_320  0.06372549384832382)
(X_321  0.06372549384832382)
(X_322  0.05588235333561897)
(X_323  0.0519607849419117)
(X_324  0.12647059559822083)
(X_325  0.11078432202339172)
(X_326  0.09117648005485535)
(X_327  0.17941176891326904)
(X_328  0.18333333730697632)
(X_329  0.19509804248809814)
(X_330  0.114705890417099)
(X_331  0.22647058963775635)
(X_332  0.07549020648002625)
(X_333  0.07549020648002625)
(X_334  0.07941177487373352)
(X_335  0.07941177487373352)
(X_336  0.10294118523597717)
(X_337  0.1872549057006836)
(X_338  0.1715686321258545)
(X_339  0.16372549533843994)
(X_340  0.16764706373214722)
(X_341  0.16764706373214722)
(X_342  0.1558823585510254)
(X_343  0.04411764815449715)
(X_344  0.1558823585510254)
(X_345  0.15980392694473267)
(X_346  0.1715686321258545)
(X_347  0.19509804248809814)
(X_348  0.12647059559822083)
(X_349  0.1460784375667572)
(X_350  0.15784314274787903)
(X_351  0.15784314274787903)
(X_352  0.22254902124404907)
(X_353  0.21078431606292725)
(X_354  0.19509804248809814)
(X_355  0.11035860329866409)
(X_356  0.16372549533843994)
(X_357  0.16372549533843994)
(X_358  0.16764706373214722)
(X_359  0.17549020051956177)
(X_360  0.19901961088180542)
(X_361  0.19901961088180542)
(X_362  0.0990196168422699)
(X_363  0.0990196168422699)
(X_364  0.3343137204647064)
(X_365  0.3225490152835846)
(X_366  0.4068627655506134)
(X_367  0.3950980603694916)
(X_368  0.387254923582077)
(X_369  0.3715686500072479)
(X_370  0.2598039209842682)
(X_371  0.24803923070430756)
(X_372  0.27941176295280457)
(X_373  0.28333333134651184)
(X_374  0.39901962876319885)
(X_375  0.4264706075191498)
(X_376  0.3539215624332428)
(X_377  0.37745097279548645)
(X_378  0.385294109582901)
(X_379  0.385294109582901)
(X_380  0.45588237047195435)
(X_381  0.5362744927406311)
(X_382  0.49313727021217346)
(X_383  0.4225490391254425)
(X_384  0.33235296607017517)
(X_385  0.15000000596046448)
(X_386  0.0833333432674408)
(X_387  0.08682919293642044)
(X_388  0.1715686321258545)
(X_389  0.1715686321258545)
(X_390  0.07156863063573837)
(X_391  0.0676470622420311)
(X_392  0.36764708161354065)
(X_393  0.3794117867946625)
(X_394  0.29901960492134094)
(X_395  0.3798374831676483)
(X_396  0.4225490391254425)
(X_397  0.43039217591285706)
(X_398  0.4382353127002716)
(X_399  0.34607842564582825)
(X_400  0.3343137204647064)
(X_401  0.4264706075191498)
(X_402  0.41862747073173523)
(X_403  0.31470587849617004)
(X_404  0.31078431010246277)
(X_405  0.29901960492134094)
(X_406  0.28333333134651184)
(X_407  0.3715686500072479)
(X_408  0.3911764919757843)
(X_409  0.3680727779865265)
(X_410  0.4225490391254425)
(X_411  0.43039217591285706)
(X_412  0.43039217591285706)
(X_413  0.3382352888584137)
(X_414  0.45000001788139343)
(X_415  0.46176472306251526)
(X_416  0.3950980603694916)
(X_417  0.29509803652763367)
(X_418  0.29901960492134094)
(X_419  0.29901960492134094)
(X_420  0.43431374430656433)
(X_421  0.40728846192359924)
(X_422  0.34607842564582825)
(X_423  0.3955237567424774)
(X_424  0.29901960492134094)
(X_425  0.3715686500072479)
(X_426  0.3558823764324188)
(X_427  0.3558823764324188)
(X_428  0.2754901945590973)
(X_429  0.3911764919757843)
(X_430  0.3225490152835846)
(X_431  0.3656862676143646)
(X_432  0.41274508833885193)
(X_433  0.551960825920105)
(X_434  0.47156864404678345)
(X_435  0.4754902124404907)
(X_436  0.5401960611343384)
(X_437  0.5166666507720947)
(X_438  0.3696078360080719)
(X_439  0.31470587849617004)
(X_440  0.3025154769420624)
(X_441  0.282907634973526)
(X_442  0.2598039209842682)
(X_443  0.2754901945590973)
(X_444  0.29509803652763367)
(X_445  0.29901960492134094)
(X_446  0.3068627417087555)
(X_447  0.31470587849617004)
(X_448  0.49313727021217346)
(X_449  0.49313727021217346)
(X_450  0.49313727021217346)
(X_451  0.4280056655406952)
(X_452  0.3970588147640228)
(X_453  0.40882351994514465)
(X_454  0.5362744927406311)
(X_455  0.5558823943138123)
(X_456  0.4480392038822174)
(X_457  0.5323529243469238)
(X_458  0.49313727021217346)
(X_459  0.33039215207099915)
(X_460  0.332778662443161)
(X_461  0.3284313976764679)
(X_462  0.3245098292827606)
(X_463  0.23627452552318573)
(X_464  0.27941176295280457)
(X_465  0.3029411733150482)
(X_466  0.34607842564582825)
(X_467  0.48137256503105164)
(X_468  0.48137256503105164)
(X_469  0.4264706075191498)
(X_470  0.33627453446388245)
(X_471  0.2656862735748291)
(X_472  0.2970588207244873)
(X_473  0.3088235557079315)
(X_474  0.3245098292827606)
(X_475  0.33627453446388245)
(X_476  0.29901960492134094)
(X_477  0.2872548997402191)
(X_478  0.27941176295280457)
(X_479  0.27941176295280457)
(X_480  0.2872548997402191)
(X_481  0.2872548997402191)
(X_482  0.27941176295280457)
(X_483  0.27156862616539)
(X_484  0.3558823764324188)
(X_485  0.35196080803871155)
(X_486  0.3401961028575897)
(X_487  0.20098040997982025)
(X_488  0.15784314274787903)
(X_489  0.1303921639919281)
(X_490  0.12647059559822083)
(X_491  0.1303921639919281)
(X_492  0.0990196168422699)
(X_493  0.11862745881080627)
(X_494  0.16960784792900085)
(X_495  0.24411766231060028)
(X_496  0.3186274468898773)
(X_497  0.46568629145622253)
(X_498  0.3813725411891937)
(X_499  0.37745097279548645)
(X_500  0.457843154668808)
(X_501  0.3696078360080719)
(X_502  0.385294109582901)
(X_503  0.3970588147640228)
(X_504  0.22843138873577118)
(X_505  0.2739551365375519)
(X_506  0.30098041892051697)
(X_507  0.3088235557079315)
(X_508  0.2857198417186737)
(X_509  0.21666668355464935)
(X_510  0.2201625108718872)
(X_511  0.188789963722229)
(X_512  0.18529412150382996)
(X_513  0.2970588207244873)
(X_514  0.30490198731422424)
(X_515  0.22800564765930176)
(X_516  0.16960784792900085)
(X_517  0.1460784375667572)
(X_518  0.13823530077934265)
(X_519  0.14215686917304993)
(X_520  0.13823530077934265)
(X_521  0.1303921639919281)
(X_522  0.13431373238563538)
(X_523  0.1617647111415863)
(X_524  0.2088235467672348)
(X_525  0.3558823764324188)
(X_526  0.387254923582077)
(X_527  0.39901962876319885)
(X_528  0.3598039448261261)
(X_529  0.26764705777168274)
(X_530  0.28333333134651184)
(X_531  0.29509803652763367)
(X_532  0.25784313678741455)
(X_533  0.25)
(X_534  0.25)
(X_535  0.2656862735748291)
(X_536  0.2813725471496582)
(X_537  0.18137255311012268)
(X_538  0.15784314274787903)
(X_539  0.20336690545082092)
(X_540  0.1460784375667572)
(X_541  0.25784313678741455)
(X_542  0.2696078419685364)
(X_543  0.2656862735748291)
(X_544  0.2539215683937073)
(X_545  0.13823530077934265)
(X_546  0.1303921639919281)
(X_547  0.12647059559822083)
(X_548  0.23039215803146362)
(X_549  0.12647059559822083)
(X_550  0.12647059559822083)
(X_551  0.14215686917304993)
(X_552  0.2617647051811218)
(X_553  0.2813725471496582)
(X_554  0.2852941155433655)
(X_555  0.18529412150382996)
(X_556  0.31666669249534607)
(X_557  0.2245098203420639)
(X_558  0.33627453446388245)
(X_559  0.3480392396450043)
(X_560  0.0676470622420311)
(X_561  0.07156863063573837)
(X_562  0.0833333432674408)
(X_563  0.09117648005485535)
(X_564  0.09509804844856262)
(X_565  0.0990196168422699)
(X_566  0.10686275362968445)
(X_567  0.114705890417099)
(X_568  0.0990196168422699)
(X_569  0.10294118523597717)
(X_570  0.20686274766921997)
(X_571  0.10294118523597717)
(X_572  0.09509804844856262)
(X_573  0.1260448694229126)
(X_574  0.19117647409439087)
(X_575  0.09117648005485535)
(X_576  0.17549020051956177)
(X_577  0.0833333432674408)
(X_578  0.10294118523597717)
(X_579  0.12647059559822083)
(X_580  0.1460784375667572)
(X_581  0.15784314274787903)
(X_582  0.15392157435417175)
(X_583  0.25)
(X_584  0.17702525854110718)
(X_585  0.15000000596046448)
(X_586  0.25784313678741455)
(X_587  0.20055466890335083)
(X_588  0.1401960849761963)
(X_589  0.04803921654820442)
(X_590  0.15196079015731812)
(X_591  0.04803921654820442)
(X_592  0.04411764815449715)
(X_593  0.04803921654820442)
(X_594  0.0676470622420311)
(X_595  0.0833333432674408)
(X_596  0.16764706373214722)
(X_597  0.0676470622420311)
(X_598  0.0676470622420311)
(X_599  0.0676470622420311)
(X_600  0.07156863063573837)
(X_601  0.07941177487373352)
(X_602  0.18333333730697632)
(X_603  0.1872549057006836)
(X_604  0.19509804248809814)
(X_605  0.19901961088180542)
(X_606  0.19901961088180542)
(X_607  0.19901961088180542)
(X_608  0.2029411792755127)
(X_609  0.10294118523597717)
(X_610  0.10294118523597717)
(X_611  0.10294118523597717)
(X_612  0.11862745881080627)
(X_613  0.12254902720451355)
(X_614  0.22647058963775635)
(X_615  0.23039215803146362)
(X_616  0.15980392694473267)
(X_617  0.1558823585510254)
(X_618  0.04803921654820442)
(X_619  0.04803921654820442)
(X_620  0.0519607849419117)
(X_621  0.12101395428180695)
(X_622  0.05588235333561897)
(X_623  0.1558823585510254)
(X_624  0.12450980395078659)
(X_625  0.12450980395078659)
(X_626  0.12450980395078659)
(X_627  0.12843137979507446)
(X_628  0.036274511367082596)
(X_629  0.04019607976078987)
(X_630  0.04019607976078987)
(X_631  0.04019607976078987)
(X_632  0.08290762454271317)
(X_633  0.05588235333561897)
(X_634  0.05980392172932625)
(X_635  0.06372549384832382)
(X_636  0.07156863063573837)
(X_637  0.17941176891326904)
(X_638  0.19117647409439087)
(X_639  0.0990196168422699)
(X_640  0.1131708174943924)
(X_641  0.14803922176361084)
(X_642  0.15196079015731812)
(X_643  0.15196079015731812)
(X_644  0.1558823585510254)
(X_645  0.036274511367082596)
(X_646  0.12450980395078659)
(X_647  0.13235294818878174)
(X_648  0.15196079015731812)
(X_649  0.05588235333561897)
(X_650  0.1401960849761963)
(X_651  0.12058823555707932)
(X_652  0.1401960849761963)
(X_653  0.04019607976078987)
(X_654  0.04411764815449715)
(X_655  0.04803921654820442)
(X_656  0.0519607849419117)
(X_657  0.04803921654820442)
(X_658  0.036274511367082596)
(X_659  0.028431374579668045)
(X_660  0.1401960849761963)
(X_661  0.14803922176361084)
(X_662  0.15980392694473267)
(X_663  0.16372549533843994)
(X_664  0.05588235333561897)
(X_665  0.14803922176361084)
(X_666  0.1401960849761963)
(X_667  0.04019607976078987)
(X_668  0.0519607849419117)
(X_669  0.0519607849419117)
(X_670  0.04803921654820442)
(X_671  0.04803921654820442)
(X_672  0.136274516582489)
(X_673  0.036274511367082596)
(X_674  0.036274511367082596)
(X_675  0.036274511367082596)
(X_676  0.036274511367082596)
(X_677  0.136274516582489)
(X_678  0.136274516582489)
(X_679  0.136274516582489)
(X_680  0.04019607976078987)
(X_681  0.136274516582489)
(X_682  0.136274516582489)
(X_683  0.13235294818878174)
(X_684  0.13235294818878174)
(X_685  0.036274511367082596)
(X_686  0.036274511367082596)
(X_687  0.04019607976078987)
(X_688  0.1401960849761963)
(X_689  0.04019607976078987)
(X_690  0.04019607976078987)
(X_691  0.1401960849761963)
(X_692  0.1401960849761963)
(X_693  0.1401960849761963)
(X_694  0.04019607976078987)
(X_695  0.04019607976078987)
(X_696  0.1558823585510254)
(X_697  0.1558823585510254)
(X_698  0.1558823585510254)
(X_699  0.15196079015731812)
(X_700  0.136274516582489)
(X_701  0.036274511367082596)
(X_702  0.10140611231327057)
(X_703  0.136274516582489)
(X_704  0.136274516582489)
(X_705  0.036274511367082596)
(X_706  0.036274511367082596)
(X_707  0.036274511367082596)
(X_708  0.04019607976078987)
(X_709  0.036274511367082596)
(X_710  0.10140611231327057)
(X_711  0.13235294818878174)
(X_712  0.13235294818878174)
(X_713  0.136274516582489)
(X_714  0.036274511367082596)
(X_715  0.04019607976078987)
(X_716  0.136274516582489)
(X_717  0.136274516582489)
(X_718  0.036274511367082596)
(X_719  0.036274511367082596)
(X_720  0.136274516582489)
(X_721  0.036274511367082596)
(X_722  0.036274511367082596)
(X_723  0.036274511367082596)
(X_724  0.14803922176361084)
(X_725  0.04803921654820442)
(X_726  0.14803922176361084)
(X_727  0.14411765336990356)
(X_728  0.136274516582489)
(X_729  0.036274511367082596)
(X_730  0.10140611231327057)
(X_731  0.136274516582489)
(X_732  0.136274516582489)
(X_733  0.136274516582489)
(X_734  0.10140611231327057)
(X_735  0.136274516582489)
(X_736  0.1401960849761963)
(X_737  0.136274516582489)
(X_738  0.036274511367082596)
(X_739  0.03235294297337532)
(X_740  0.13235294818878174)
(X_741  0.136274516582489)
(X_742  0.036274511367082596)
(X_743  0.04019607976078987)
(X_744  0.03235294297337532)
(X_745  0.03235294297337532)
(X_746  0.03235294297337532)
(X_747  0.03235294297337532)
(X_748  0.03235294297337532)
(X_749  0.03235294297337532)
(X_750  0.03235294297337532)
(X_751  0.03235294297337532)
(X_752  0.1401960849761963)
(X_753  0.136274516582489)
(X_754  0.10140611231327057)
(X_755  0.136274516582489)
(X_756  0.136274516582489)
(X_757  0.036274511367082596)
(X_758  0.036274511367082596)
(X_759  0.036274511367082596)
(X_760  0.036274511367082596)
(X_761  0.136274516582489)
(X_762  0.136274516582489)
(X_763  0.10140611231327057)
(X_764  0.1401960849761963)
(X_765  0.136274516582489)
(X_766  0.10140611231327057)
(X_767  0.03235294297337532)
(X_768  0.03235294297337532)
(X_769  0.036274511367082596)
(X_770  0.036274511367082596)
(X_771  0.04019607976078987)
(X_772  0.03235294297337532)
(X_773  0.03235294297337532)
(X_774  0.03235294297337532)
(X_775  0.03235294297337532)
(X_776  0.13235294818878174)
(X_777  0.13235294818878174)
(X_778  0.0974845439195633)
(X_779  0.0974845439195633)
(X_780  0.036274511367082596)
(X_781  0.03235294297337532)
(X_782  0.03235294297337532)
(X_783  0.03235294297337532)
(Y_0 -14.627091407775879)
(Y_1 15.35686206817627)
(Y_2 -10.119044303894043)
(Y_3 10.392423629760742))