((X_0  1.006862759590149)
(X_1  0.8872548937797546)
(X_2  0.863725483417511)
(X_3  0.8401960730552673)
(X_4  0.9245098233222961)
(X_5  0.8049019575119019)
(X_6  0.7774509787559509)
(X_7  0.7578431367874146)
(X_8  0.7186274528503418)
(X_9  0.6990196108818054)
(X_10  0.6715686321258545)
(X_11  0.6401960849761963)
(X_12  0.6049019694328308)
(X_13  0.6539216041564941)
(X_14  0.5990196466445923)
(X_15  0.4598039388656616)
(X_16  0.40882351994514465)
(X_17  0.3735294044017792)
(X_18  0.33039215207099915)
(X_19  0.2911764681339264)
(X_20  0.3558823764324188)
(X_21  0.3127451241016388)
(X_22  0.25784313678741455)
(X_23  0.11862745881080627)
(X_24  0.16764706373214722)
(X_25  0.16372549533843994)
(X_26  0.0519607849419117)
(X_27  0.14411765336990356)
(X_28  0.3480392396450043)
(X_29  0.23235295712947845)
(X_30  0.21274511516094208)
(X_31  0.20098040997982025)
(X_32  0.1931372582912445)
(X_33  0.18137255311012268)
(X_34  0.1617647111415863)
(X_35  0.25)
(X_36  0.22254902124404907)
(X_37  0.21470588445663452)
(X_38  0.0990196168422699)
(X_39  0.08725491166114807)
(X_40  0.07941177487373352)
(X_41  0.17549020051956177)
(X_42  0.17549020051956177)
(X_43  0.07156863063573837)
(X_44  0.16764706373214722)
(X_45  0.16372549533843994)
(X_46  0.05980392172932625)
(X_47  0.0676470622420311)
(X_48  0.07549020648002625)
(X_49  0.0676470622420311)
(X_50  0.04803921654820442)
(X_51  0.028431374579668045)
(X_52  0.14803922176361084)
(X_53  0.14803922176361084)
(X_54  0.14411765336990356)
(X_55  0.14803922176361084)
(X_56  0.16764706373214722)
(X_57  0.05980392172932625)
(X_58  0.0519607849419117)
(X_59  0.04803921654820442)
(X_60  0.0519607849419117)
(X_61  0.04803921654820442)
(X_62  0.04019607976078987)
(X_63  0.03235294297337532)
(X_64  0.04019607976078987)
(X_65  0.0519607849419117)
(X_66  0.06372549384832382)
(X_67  0.06372549384832382)
(X_68  0.05588235333561897)
(X_69  0.04019607976078987)
(X_70  0.028431374579668045)
(X_71  0.02450980618596077)
(X_72  0.01666666939854622)
(X_73  0.028431374579668045)
(X_74  0.04411764815449715)
(X_75  0.06372549384832382)
(X_76  0.1715686321258545)
(X_77  0.17549020051956177)
(X_78  0.1715686321258545)
(X_79  0.16372549533843994)
(X_80  0.136274516582489)
(X_81  0.136274516582489)
(X_82  0.04411764815449715)
(X_83  0.14803922176361084)
(X_84  0.1401960849761963)
(X_85  0.1401960849761963)
(X_86  0.1401960849761963)
(X_87  0.14411765336990356)
(X_88  0.04803921654820442)
(X_89  0.04803921654820442)
(X_90  0.04803921654820442)
(X_91  0.04803921654820442)
(X_92  0.12450980395078659)
(X_93  0.02450980618596077)
(X_94  0.028431374579668045)
(X_95  0.1401960849761963)
(X_96  0.15196079015731812)
(X_97  0.1558823585510254)
(X_98  0.1558823585510254)
(X_99  0.15196079015731812)
(X_100  0.14411765336990356)
(X_101  0.15196079015731812)
(X_102  0.15980392694473267)
(X_103  0.05980392172932625)
(X_104  0.0519607849419117)
(X_105  0.04411764815449715)
(X_106  0.04411764815449715)
(X_107  0.04411764815449715)
(X_108  0.036274511367082596)
(X_109  0.04019607976078987)
(X_110  0.04411764815449715)
(X_111  0.14803922176361084)
(X_112  0.04411764815449715)
(X_113  0.04803921654820442)
(X_114  0.0519607849419117)
(X_115  0.0519607849419117)
(X_116  0.0519607849419117)
(X_117  0.05588235333561897)
(X_118  0.05980392172932625)
(X_119  0.05980392172932625)
(X_120  0.17549020051956177)
(X_121  0.04019607976078987)
(X_122  -0.0029411755967885256)
(X_123  -0.014705880545079708)
(X_124  0.09705882519483566)
(X_125  0.01666666939854622)
(X_126  0.02450980618596077)
(X_127  0.020588237792253494)
(X_128  0.12058823555707932)
(X_129  0.12450980395078659)
(X_130  0.12450980395078659)
(X_131  0.12450980395078659)
(X_132  0.12058823555707932)
(X_133  0.12843137979507446)
(X_134  0.1401960849761963)
(X_135  0.14803922176361084)
(X_136  0.02450980618596077)
(X_137  0.028431374579668045)
(X_138  0.036274511367082596)
(X_139  0.1401960849761963)
(X_140  0.12058823555707932)
(X_141  0.12843137979507446)
(X_142  0.13235294818878174)
(X_143  0.03235294297337532)
(X_144  0.028431374579668045)
(X_145  0.02450980618596077)
(X_146  0.03235294297337532)
(X_147  0.136274516582489)
(X_148  0.12450980395078659)
(X_149  0.13235294818878174)
(X_150  0.04411764815449715)
(X_151  0.0676470622420311)
(X_152  0.18333333730697632)
(X_153  0.16764706373214722)
(X_154  0.13235294818878174)
(X_155  -0.0029411755967885256)
(X_156  0.03235294297337532)
(X_157  0.028431374579668045)
(X_158  0.12843137979507446)
(X_159  0.12843137979507446)
(X_160  0.13235294818878174)
(X_161  0.04019607976078987)
(X_162  0.04803921654820442)
(X_163  0.15196079015731812)
(X_164  0.11666666716337204)
(X_165  0.020588237792253494)
(X_166  0.02450980618596077)
(X_167  0.12843137979507446)
(X_168  0.14411765336990356)
(X_169  0.15196079015731812)
(X_170  0.15980392694473267)
(X_171  0.1558823585510254)
(X_172  0.14803922176361084)
(X_173  0.14411765336990356)
(X_174  0.15196079015731812)
(X_175  0.05980392172932625)
(X_176  0.10882353037595749)
(X_177  0.18333333730697632)
(X_178  0.2813725471496582)
(X_179  0.3598039448261261)
(X_180  0.3794117867946625)
(X_181  0.3558823764324188)
(X_182  0.21274511516094208)
(X_183  0.18529412150382996)
(X_184  0.2029411792755127)
(X_185  0.19117647409439087)
(X_186  0.17941176891326904)
(X_187  0.17549020051956177)
(X_188  0.1715686321258545)
(X_189  0.05980392172932625)
(X_190  0.036274511367082596)
(X_191  0.11666666716337204)
(X_192  0.13235294818878174)
(X_193  0.13235294818878174)
(X_194  0.028431374579668045)
(X_195  0.03235294297337532)
(X_196  0.020588237792253494)
(X_197  0.13235294818878174)
(X_198  0.1401960849761963)
(X_199  0.036274511367082596)
(X_200  0.12843137979507446)
(X_201  0.12843137979507446)
(X_202  0.136274516582489)
(X_203  0.14803922176361084)
(X_204  0.21666668355464935)
(X_205  0.3715686500072479)
(X_206  0.3225490152835846)
(X_207  0.4225490391254425)
(X_208  0.2754901945590973)
(X_209  0.23235295712947845)
(X_210  0.22058825194835663)
(X_211  0.22843138873577118)
(X_212  0.4107843339443207)
(X_213  0.39901962876319885)
(X_214  0.387254923582077)
(X_215  0.38333335518836975)
(X_216  0.3754902184009552)
(X_217  0.3480392396450043)
(X_218  0.30098041892051697)
(X_219  0.2617647051811218)
(X_220  0.15980392694473267)
(X_221  0.05588235333561897)
(X_222  0.04411764815449715)
(X_223  0.136274516582489)
(X_224  0.020588237792253494)
(X_225  0.036274511367082596)
(X_226  0.136274516582489)
(X_227  0.11274509876966476)
(X_228  0.0009803927969187498)
(X_229  0.05588235333561897)
(X_230  0.16960784792900085)
(X_231  0.26764705777168274)
(X_232  0.3284313976764679)
(X_233  0.4362744987010956)
(X_234  0.4598039388656616)
(X_235  0.46764707565307617)
(X_236  0.39313724637031555)
(X_237  0.22058825194835663)
(X_238  0.20490197837352753)
(X_239  0.2088235467672348)
(X_240  0.23627452552318573)
(X_241  0.24803923070430756)
(X_242  0.3637255132198334)
(X_243  0.38333335518836975)
(X_244  0.40294119715690613)
(X_245  0.4225490391254425)
(X_246  0.44607844948768616)
(X_247  0.36176469922065735)
(X_248  0.3029411733150482)
(X_249  0.2558823525905609)
(X_250  0.1617647111415863)
(X_251  0.17549020051956177)
(X_252  0.028431374579668045)
(X_253  0.028431374579668045)
(X_254  0.04411764815449715)
(X_255  0.09509804844856262)
(X_256  0.2617647051811218)
(X_257  0.3245098292827606)
(X_258  0.3598039448261261)
(X_259  0.27156862616539)
(X_260  0.3499999940395355)
(X_261  0.42450979351997375)
(X_262  0.49705883860588074)
(X_263  0.5088235139846802)
(X_264  0.5284313559532166)
(X_265  0.43039217591285706)
(X_266  0.31666669249534607)
(X_267  0.1460784375667572)
(X_268  0.1617647111415863)
(X_269  0.2774509787559509)
(X_270  0.30490198731422424)
(X_271  0.23235295712947845)
(X_272  0.25196078419685364)
(X_273  0.36764708161354065)
(X_274  0.3754902184009552)
(X_275  0.28333333134651184)
(X_276  0.3950980603694916)
(X_277  0.2911764681339264)
(X_278  0.2872548997402191)
(X_279  0.27156862616539)
(X_280  0.2970588207244873)
(X_281  0.2852941155433655)
(X_282  0.18921568989753723)
(X_283  0.22843138873577118)
(X_284  0.2754901945590973)
(X_285  0.3911764919757843)
(X_286  0.3637255132198334)
(X_287  0.3284313976764679)
(X_288  0.3578431308269501)
(X_289  0.3029411733150482)
(X_290  0.25196078419685364)
(X_291  0.33627453446388245)
(X_292  0.4264706075191498)
(X_293  0.34607842564582825)
(X_294  0.2088235467672348)
(X_295  0.13823530077934265)
(X_296  0.25)
(X_297  0.15784314274787903)
(X_298  0.16960784792900085)
(X_299  0.18529412150382996)
(X_300  0.30098041892051697)
(X_301  0.3127451241016388)
(X_302  0.32058826088905334)
(X_303  0.2245098203420639)
(X_304  0.30490198731422424)
(X_305  0.29313725233078003)
(X_306  0.22058825194835663)
(X_307  0.36764708161354065)
(X_308  0.387254923582077)
(X_309  0.39901962876319885)
(X_310  0.39901962876319885)
(X_311  0.38333335518836975)
(X_312  0.35196080803871155)
(X_313  0.33235296607017517)
(X_314  0.23235295712947845)
(X_315  0.23627452552318573)
(X_316  0.3225490152835846)
(X_317  0.23235295712947845)
(X_318  0.3088235557079315)
(X_319  0.25)
(X_320  0.33235296607017517)
(X_321  0.3578431308269501)
(X_322  0.3068627417087555)
(X_323  0.3225490152835846)
(X_324  0.27156862616539)
(X_325  0.2558823525905609)
(X_326  0.240196093916893)
(X_327  0.33235296607017517)
(X_328  0.33627453446388245)
(X_329  0.344117671251297)
(X_330  0.35196080803871155)
(X_331  0.3598039448261261)
(X_332  0.28333333134651184)
(X_333  0.2245098203420639)
(X_334  0.18137255311012268)
(X_335  0.18921568989753723)
(X_336  0.22058825194835663)
(X_337  0.3480392396450043)
(X_338  0.36764708161354065)
(X_339  0.3637255132198334)
(X_340  0.3480392396450043)
(X_341  0.3558823764324188)
(X_342  0.39901962876319885)
(X_343  0.3382352888584137)
(X_344  0.24803923070430756)
(X_345  0.17352941632270813)
(X_346  0.18137255311012268)
(X_347  0.11078432202339172)
(X_348  0.1617647111415863)
(X_349  0.32647058367729187)
(X_350  0.3539215624332428)
(X_351  0.5049019455909729)
(X_352  0.5245097875595093)
(X_353  0.5127450823783875)
(X_354  0.5049019455909729)
(X_355  0.5009803771972656)
(X_356  0.5009803771972656)
(X_357  0.49705883860588074)
(X_358  0.48137256503105164)
(X_359  0.3696078360080719)
(X_360  0.4892157018184662)
(X_361  0.44607844948768616)
(X_362  0.2598039209842682)
(X_363  0.2813725471496582)
(X_364  0.26764705777168274)
(X_365  0.26372548937797546)
(X_366  0.3715686500072479)
(X_367  0.3911764919757843)
(X_368  0.4225490391254425)
(X_369  0.4382353127002716)
(X_370  0.34215685725212097)
(X_371  0.3343137204647064)
(X_372  0.15000000596046448)
(X_373  0.10294118523597717)
(X_374  0.20686274766921997)
(X_375  0.07549020648002625)
(X_376  0.10686275362968445)
(X_377  0.240196093916893)
(X_378  0.2911764681339264)
(X_379  0.2754901945590973)
(X_380  0.3637255132198334)
(X_381  0.3754902184009552)
(X_382  0.39901962876319885)
(X_383  0.4225490391254425)
(X_384  0.33039215207099915)
(X_385  0.3029411733150482)
(X_386  0.3558823764324188)
(X_387  0.31666669249534607)
(X_388  0.3754902184009552)
(X_389  0.4107843339443207)
(X_390  0.29509803652763367)
(X_391  0.21274511516094208)
(X_392  0.44607844948768616)
(X_393  0.41862747073173523)
(X_394  0.29509803652763367)
(X_395  0.2872548997402191)
(X_396  0.3911764919757843)
(X_397  0.3715686500072479)
(X_398  0.3245098292827606)
(X_399  0.18529412150382996)
(X_400  0.11078432202339172)
(X_401  0.21078431606292725)
(X_402  0.19901961088180542)
(X_403  0.2029411792755127)
(X_404  0.0990196168422699)
(X_405  0.2852941155433655)
(X_406  0.27941176295280457)
(X_407  0.21274511516094208)
(X_408  0.3284313976764679)
(X_409  0.240196093916893)
(X_410  0.3598039448261261)
(X_411  0.387254923582077)
(X_412  0.3950980603694916)
(X_413  0.26764705777168274)
(X_414  0.21666668355464935)
(X_415  0.27352941036224365)
(X_416  0.25784313678741455)
(X_417  0.30490198731422424)
(X_418  0.24803923070430756)
(X_419  0.25196078419685364)
(X_420  0.38333335518836975)
(X_421  0.26372548937797546)
(X_422  0.23235295712947845)
(X_423  0.19705882668495178)
(X_424  0.15392157435417175)
(X_425  0.11078432202339172)
(X_426  0.1715686321258545)
(X_427  0.15196079015731812)
(X_428  0.15196079015731812)
(X_429  0.20686274766921997)
(X_430  0.08725491166114807)
(X_431  0.09509804844856262)
(X_432  0.04803921654820442)
(X_433  0.20686274766921997)
(X_434  0.27941176295280457)
(X_435  0.21666668355464935)
(X_436  0.3088235557079315)
(X_437  0.30098041892051697)
(X_438  0.29313725233078003)
(X_439  0.2970588207244873)
(X_440  0.30490198731422424)
(X_441  0.2852941155433655)
(X_442  0.25)
(X_443  0.12254902720451355)
(X_444  0.12254902720451355)
(X_445  0.11078432202339172)
(X_446  0.1460784375667572)
(X_447  0.31666669249534607)
(X_448  0.3088235557079315)
(X_449  0.2245098203420639)
(X_450  0.2245098203420639)
(X_451  0.19705882668495178)
(X_452  0.16960784792900085)
(X_453  0.13823530077934265)
(X_454  0.19509804248809814)
(X_455  0.1558823585510254)
(X_456  0.12843137979507446)
(X_457  0.16372549533843994)
(X_458  0.17549020051956177)
(X_459  0.06372549384832382)
(X_460  0.09509804844856262)
(X_461  0.2617647051811218)
(X_462  0.29313725233078003)
(X_463  0.18137255311012268)
(X_464  0.21274511516094208)
(X_465  0.20098040997982025)
(X_466  0.1931372582912445)
(X_467  0.2970588207244873)
(X_468  0.30098041892051697)
(X_469  0.28921568393707275)
(X_470  0.2617647051811218)
(X_471  0.2343137264251709)
(X_472  0.17549020051956177)
(X_473  0.18333333730697632)
(X_474  0.2029411792755127)
(X_475  0.2186274528503418)
(X_476  0.12647059559822083)
(X_477  0.1460784375667572)
(X_478  0.2539215683937073)
(X_479  0.14215686917304993)
(X_480  0.12647059559822083)
(X_481  0.10686275362968445)
(X_482  0.07941177487373352)
(X_483  0.14803922176361084)
(X_484  0.12058823555707932)
(X_485  0.14411765336990356)
(X_486  0.04803921654820442)
(X_487  0.028431374579668045)
(X_488  0.04411764815449715)
(X_489  0.09509804844856262)
(X_490  0.114705890417099)
(X_491  0.0990196168422699)
(X_492  0.12254902720451355)
(X_493  0.114705890417099)
(X_494  0.11078432202339172)
(X_495  0.21470588445663452)
(X_496  0.22647058963775635)
(X_497  0.2186274528503418)
(X_498  0.19117647409439087)
(X_499  0.0676470622420311)
(X_500  0.16372549533843994)
(X_501  0.07156863063573837)
(X_502  0.08725491166114807)
(X_503  0.10294118523597717)
(X_504  0.07549020648002625)
(X_505  0.09509804844856262)
(X_506  0.11078432202339172)
(X_507  0.10294118523597717)
(X_508  0.0990196168422699)
(X_509  0.19117647409439087)
(X_510  0.1715686321258545)
(X_511  0.14411765336990356)
(X_512  0.02450980618596077)
(X_513  0.14411765336990356)
(X_514  0.1401960849761963)
(X_515  0.01666666939854622)
(X_516  0.02450980618596077)
(X_517  0.05588235333561897)
(X_518  0.0676470622420311)
(X_519  0.05588235333561897)
(X_520  0.06372549384832382)
(X_521  0.05980392172932625)
(X_522  0.05588235333561897)
(X_523  0.06372549384832382)
(X_524  0.07549020648002625)
(X_525  0.1715686321258545)
(X_526  0.15196079015731812)
(X_527  0.136274516582489)
(X_528  0.04411764815449715)
(X_529  0.05588235333561897)
(X_530  0.0676470622420311)
(X_531  0.07941177487373352)
(X_532  0.15980392694473267)
(X_533  0.17941176891326904)
(X_534  0.1872549057006836)
(X_535  0.17941176891326904)
(X_536  0.1715686321258545)
(X_537  0.0676470622420311)
(X_538  0.0519607849419117)
(X_539  0.028431374579668045)
(X_540  0.020588237792253494)
(X_541  0.13235294818878174)
(X_542  0.13235294818878174)
(X_543  0.01666666939854622)
(X_544  0.02450980618596077)
(X_545  0.0519607849419117)
(X_546  0.05980392172932625)
(X_547  0.0519607849419117)
(X_548  0.15196079015731812)
(X_549  0.14803922176361084)
(X_550  0.04803921654820442)
(X_551  0.0519607849419117)
(X_552  0.15980392694473267)
(X_553  0.1558823585510254)
(X_554  0.1401960849761963)
(X_555  0.028431374579668045)
(X_556  0.12843137979507446)
(X_557  0.03235294297337532)
(X_558  0.14411765336990356)
(X_559  0.1558823585510254)
(X_560  0.12450980395078659)
(X_561  0.04019607976078987)
(X_562  0.14411765336990356)
(X_563  0.036274511367082596)
(X_564  0.028431374579668045)
(X_565  0.028431374579668045)
(X_566  0.01666666939854622)
(X_567  -0.0029411755967885256)
(X_568  0.10490196198225021)
(X_569  0.11274509876966476)
(X_570  0.11274509876966476)
(X_571  0.004901961423456669)
(X_572  0.012745101936161518)
(X_573  0.028431374579668045)
(X_574  0.036274511367082596)
(X_575  0.03235294297337532)
(X_576  0.036274511367082596)
(X_577  0.03235294297337532)
(X_578  0.03235294297337532)
(X_579  0.13235294818878174)
(X_580  0.03235294297337532)
(X_581  0.028431374579668045)
(X_582  0.11666666716337204)
(X_583  0.10882353037595749)
(X_584  0.11274509876966476)
(X_585  0.01666666939854622)
(X_586  0.02450980618596077)
(X_587  0.13235294818878174)
(X_588  0.09705882519483566)
(X_589  0.012745101936161518)
(X_590  0.01666666939854622)
(X_591  0.008823529817163944)
(X_592  0.008823529817163944)
(X_593  0.01666666939854622)
(X_594  0.11274509876966476)
(X_595  0.09705882519483566)
(X_596  0.11274509876966476)
(X_597  0.11274509876966476)
(X_598  0.008823529817163944)
(X_599  0.008823529817163944)
(X_600  0.008823529817163944)
(X_601  0.012745101936161518)
(X_602  0.012745101936161518)
(X_603  0.012745101936161518)
(X_604  0.12058823555707932)
(X_605  0.12058823555707932)
(X_606  0.11666666716337204)
(X_607  0.11666666716337204)
(X_608  0.11274509876966476)
(X_609  0.008823529817163944)
(X_610  0.10098039358854294)
(X_611  0.09705882519483566)
(X_612  0.004901961423456669)
(X_613  0.008823529817163944)
(X_614  0.11274509876966476)
(X_615  0.11666666716337204)
(X_616  0.09705882519483566)
(X_617  0.11274509876966476)
(X_618  0.012745101936161518)
(X_619  0.004901961423456669)
(X_620  0.008823529817163944)
(X_621  0.12058823555707932)
(X_622  0.11666666716337204)
(X_623  0.10490196198225021)
(X_624  0.12058823555707932)
(X_625  0.11666666716337204)
(X_626  0.11274509876966476)
(X_627  0.012745101936161518)
(X_628  0.012745101936161518)
(X_629  0.008823529817163944)
(X_630  0.008823529817163944)
(X_631  0.012745101936161518)
(X_632  0.10490196198225021)
(X_633  0.10882353037595749)
(X_634  0.11274509876966476)
(X_635  0.008823529817163944)
(X_636  0.008823529817163944)
(X_637  0.10490196198225021)
(X_638  0.10490196198225021)
(X_639  0.10882353037595749)
(X_640  0.0009803927969187498)
(X_641  0.004901961423456669)
(X_642  0.10490196198225021)
(X_643  0.10882353037595749)
(X_644  -0.0029411755967885256)
(X_645  0.008823529817163944)
(X_646  0.10882353037595749)
(X_647  0.09705882519483566)
(X_648  0.09313725680112839)
(X_649  0.004901961423456669)
(X_650  0.10098039358854294)
(X_651  0.08921568840742111)
(X_652  0.09705882519483566)
(X_653  -0.006862743757665157)
(X_654  -0.006862743757665157)
(X_655  0.0009803927969187498)
(X_656  0.004901961423456669)
(X_657  0.0009803927969187498)
(X_658  0.0009803927969187498)
(X_659  0.008823529817163944)
(X_660  0.08529412001371384)
(X_661  0.08921568840742111)
(X_662  0.09705882519483566)
(X_663  0.09705882519483566)
(X_664  -0.0029411755967885256)
(X_665  0.10098039358854294)
(X_666  0.10490196198225021)
(X_667  0.012745101936161518)
(X_668  0.10098039358854294)
(X_669  0.004901961423456669)
(X_670  0.004901961423456669)
(X_671  0.004901961423456669)
(X_672  0.09705882519483566)
(X_673  -0.0029411755967885256)
(X_674  -0.0029411755967885256)
(X_675  -0.0029411755967885256)
(X_676  -0.0029411755967885256)
(X_677  0.09705882519483566)
(X_678  0.09705882519483566)
(X_679  0.09705882519483566)
(X_680  0.0009803927969187498)
(X_681  0.09705882519483566)
(X_682  -0.006862743757665157)
(X_683  -0.0029411755967885256)
(X_684  0.004901961423456669)
(X_685  0.008823529817163944)
(X_686  0.008823529817163944)
(X_687  0.0009803927969187498)
(X_688  0.10490196198225021)
(X_689  0.004901961423456669)
(X_690  0.004901961423456669)
(X_691  0.0009803927969187498)
(X_692  0.10098039358854294)
(X_693  0.10098039358854294)
(X_694  -0.0029411755967885256)
(X_695  0.09705882519483566)
(X_696  0.10098039358854294)
(X_697  0.10098039358854294)
(X_698  0.10490196198225021)
(X_699  0.10490196198225021)
(X_700  0.09705882519483566)
(X_701  -0.0029411755967885256)
(X_702  0.09705882519483566)
(X_703  0.09705882519483566)
(X_704  -0.0029411755967885256)
(X_705  -0.0029411755967885256)
(X_706  -0.0029411755967885256)
(X_707  -0.0029411755967885256)
(X_708  -0.0029411755967885256)
(X_709  -0.006862743757665157)
(X_710  -0.010784312151372433)
(X_711  -0.006862743757665157)
(X_712  0.0009803927969187498)
(X_713  0.004901961423456669)
(X_714  0.004901961423456669)
(X_715  -0.0029411755967885256)
(X_716  0.10098039358854294)
(X_717  0.0009803927969187498)
(X_718  0.0009803927969187498)
(X_719  -0.0029411755967885256)
(X_720  0.09705882519483566)
(X_721  0.09705882519483566)
(X_722  0.09313725680112839)
(X_723  0.09313725680112839)
(X_724  0.08529412001371384)
(X_725  0.08921568840742111)
(X_726  0.08921568840742111)
(X_727  0.09313725680112839)
(X_728  0.09705882519483566)
(X_729  -0.0029411755967885256)
(X_730  0.09705882519483566)
(X_731  0.09705882519483566)
(X_732  0.09705882519483566)
(X_733  0.09705882519483566)
(X_734  0.09705882519483566)
(X_735  0.09705882519483566)
(X_736  0.09313725680112839)
(X_737  0.08921568840742111)
(X_738  -0.014705880545079708)
(X_739  -0.010784312151372433)
(X_740  -0.0029411755967885256)
(X_741  0.0009803927969187498)
(X_742  -0.0029411755967885256)
(X_743  -0.006862743757665157)
(X_744  -0.0029411755967885256)
(X_745  -0.0029411755967885256)
(X_746  -0.006862743757665157)
(X_747  -0.006862743757665157)
(X_748  -0.006862743757665157)
(X_749  0.08921568840742111)
(X_750  0.08921568840742111)
(X_751  0.08921568840742111)
(X_752  0.08137255162000656)
(X_753  0.08529412001371384)
(X_754  0.08529412001371384)
(X_755  0.08921568840742111)
(X_756  0.09313725680112839)
(X_757  0.09313725680112839)
(X_758  0.09313725680112839)
(X_759  0.09313725680112839)
(X_760  -0.006862743757665157)
(X_761  0.09313725680112839)
(X_762  -0.006862743757665157)
(X_763  -0.006862743757665157)
(X_764  -0.006862743757665157)
(X_765  -0.010784312151372433)
(X_766  -0.014705880545079708)
(X_767  -0.014705880545079708)
(X_768  -0.006862743757665157)
(X_769  -0.0029411755967885256)
(X_770  -0.006862743757665157)
(X_771  -0.014705880545079708)
(X_772  -0.010784312151372433)
(X_773  -0.010784312151372433)
(X_774  -0.010784312151372433)
(X_775  -0.014705880545079708)
(X_776  0.08529412001371384)
(X_777  0.08529412001371384)
(X_778  0.08137255162000656)
(X_779  0.08137255162000656)
(X_780  -0.006862743757665157)
(X_781  0.09313725680112839)
(X_782  0.09705882519483566)
(X_783  0.10098039358854294)
(Y_0 -28.201129913330078)
(Y_1 42.54544448852539)
(Y_2 -26.333715438842773)
(Y_3 13.384588241577148))