((X_0  0.036274511367082596)
(X_1  0.03235294297337532)
(X_2  0.028431374579668045)
(X_3  0.03235294297337532)
(X_4  0.04019607976078987)
(X_5  0.04411764815449715)
(X_6  0.136274516582489)
(X_7  0.12843137979507446)
(X_8  0.136274516582489)
(X_9  0.1401960849761963)
(X_10  0.14411765336990356)
(X_11  0.14803922176361084)
(X_12  0.15196079015731812)
(X_13  0.1558823585510254)
(X_14  0.05980392172932625)
(X_15  0.06372549384832382)
(X_16  0.05980392172932625)
(X_17  0.06372549384832382)
(X_18  0.0676470622420311)
(X_19  0.07156863063573837)
(X_20  0.07549020648002625)
(X_21  0.0833333432674408)
(X_22  0.1872549057006836)
(X_23  0.1872549057006836)
(X_24  0.11078432202339172)
(X_25  0.11078432202339172)
(X_26  0.11078432202339172)
(X_27  0.11078432202339172)
(X_28  0.136274516582489)
(X_29  0.12450980395078659)
(X_30  0.012745101936161518)
(X_31  0.10882353037595749)
(X_32  0.012745101936161518)
(X_33  0.02450980618596077)
(X_34  0.036274511367082596)
(X_35  0.04411764815449715)
(X_36  0.136274516582489)
(X_37  0.136274516582489)
(X_38  0.136274516582489)
(X_39  0.136274516582489)
(X_40  0.136274516582489)
(X_41  0.1401960849761963)
(X_42  0.1401960849761963)
(X_43  0.1401960849761963)
(X_44  0.13235294818878174)
(X_45  0.136274516582489)
(X_46  0.036274511367082596)
(X_47  0.04411764815449715)
(X_48  0.04803921654820442)
(X_49  0.0519607849419117)
(X_50  0.05588235333561897)
(X_51  0.15980392694473267)
(X_52  0.04019607976078987)
(X_53  0.04019607976078987)
(X_54  0.04019607976078987)
(X_55  0.1401960849761963)
(X_56  0.036274511367082596)
(X_57  0.036274511367082596)
(X_58  0.13235294818878174)
(X_59  0.12450980395078659)
(X_60  0.12058823555707932)
(X_61  0.12450980395078659)
(X_62  0.036274511367082596)
(X_63  0.04803921654820442)
(X_64  0.028431374579668045)
(X_65  0.028431374579668045)
(X_66  0.12450980395078659)
(X_67  0.12450980395078659)
(X_68  0.12058823555707932)
(X_69  0.12058823555707932)
(X_70  0.11666666716337204)
(X_71  0.11666666716337204)
(X_72  0.10882353037595749)
(X_73  0.012745101936161518)
(X_74  0.01666666939854622)
(X_75  0.020588237792253494)
(X_76  0.02450980618596077)
(X_77  0.028431374579668045)
(X_78  0.13235294818878174)
(X_79  0.03235294297337532)
(X_80  0.11274509876966476)
(X_81  0.11274509876966476)
(X_82  0.11274509876966476)
(X_83  0.11274509876966476)
(X_84  0.0009803927969187498)
(X_85  0.012745101936161518)
(X_86  0.028431374579668045)
(X_87  0.028431374579668045)
(X_88  0.12058823555707932)
(X_89  0.10882353037595749)
(X_90  0.10098039358854294)
(X_91  0.10098039358854294)
(X_92  0.12058823555707932)
(X_93  0.11666666716337204)
(X_94  0.11666666716337204)
(X_95  0.11666666716337204)
(X_96  0.11274509876966476)
(X_97  0.11274509876966476)
(X_98  0.11274509876966476)
(X_99  0.012745101936161518)
(X_100  0.11274509876966476)
(X_101  0.11274509876966476)
(X_102  0.01666666939854622)
(X_103  0.020588237792253494)
(X_104  0.02450980618596077)
(X_105  0.12843137979507446)
(X_106  0.12843137979507446)
(X_107  0.13235294818878174)
(X_108  0.028431374579668045)
(X_109  0.028431374579668045)
(X_110  0.028431374579668045)
(X_111  0.028431374579668045)
(X_112  0.12450980395078659)
(X_113  0.13235294818878174)
(X_114  0.136274516582489)
(X_115  0.04019607976078987)
(X_116  0.036274511367082596)
(X_117  0.028431374579668045)
(X_118  0.12843137979507446)
(X_119  0.028431374579668045)
(X_120  0.012745101936161518)
(X_121  0.012745101936161518)
(X_122  0.012745101936161518)
(X_123  0.01666666939854622)
(X_124  0.11666666716337204)
(X_125  0.11666666716337204)
(X_126  0.12058823555707932)
(X_127  0.12058823555707932)
(X_128  0.01666666939854622)
(X_129  0.020588237792253494)
(X_130  0.12058823555707932)
(X_131  0.02450980618596077)
(X_132  0.028431374579668045)
(X_133  0.028431374579668045)
(X_134  0.03235294297337532)
(X_135  0.03235294297337532)
(X_136  0.12450980395078659)
(X_137  0.12450980395078659)
(X_138  0.12450980395078659)
(X_139  0.12450980395078659)
(X_140  0.1558823585510254)
(X_141  0.136274516582489)
(X_142  0.11666666716337204)
(X_143  0.10882353037595749)
(X_144  0.11274509876966476)
(X_145  0.12058823555707932)
(X_146  0.028431374579668045)
(X_147  0.028431374579668045)
(X_148  0.11274509876966476)
(X_149  0.11274509876966476)
(X_150  0.01666666939854622)
(X_151  0.11666666716337204)
(X_152  0.12058823555707932)
(X_153  0.12058823555707932)
(X_154  0.02450980618596077)
(X_155  0.02450980618596077)
(X_156  0.11666666716337204)
(X_157  0.11666666716337204)
(X_158  0.12058823555707932)
(X_159  0.12058823555707932)
(X_160  0.12450980395078659)
(X_161  0.12450980395078659)
(X_162  0.12843137979507446)
(X_163  0.12843137979507446)
(X_164  0.11666666716337204)
(X_165  0.11666666716337204)
(X_166  0.11666666716337204)
(X_167  0.11666666716337204)
(X_168  0.11862745881080627)
(X_169  0.09117648005485535)
(X_170  0.06372549384832382)
(X_171  0.05588235333561897)
(X_172  0.0519607849419117)
(X_173  0.04019607976078987)
(X_174  0.008823529817163944)
(X_175  0.08137255162000656)
(X_176  0.020588237792253494)
(X_177  0.12058823555707932)
(X_178  0.12058823555707932)
(X_179  0.12058823555707932)
(X_180  0.11666666716337204)
(X_181  0.11666666716337204)
(X_182  0.01666666939854622)
(X_183  0.11666666716337204)
(X_184  0.01666666939854622)
(X_185  0.020588237792253494)
(X_186  0.020588237792253494)
(X_187  0.020588237792253494)
(X_188  0.020588237792253494)
(X_189  0.02450980618596077)
(X_190  0.12450980395078659)
(X_191  0.12450980395078659)
(X_192  0.12450980395078659)
(X_193  0.12450980395078659)
(X_194  0.12450980395078659)
(X_195  0.12450980395078659)
(X_196  0.41862747073173523)
(X_197  0.39901962876319885)
(X_198  0.387254923582077)
(X_199  0.38333335518836975)
(X_200  0.36764708161354065)
(X_201  0.21666668355464935)
(X_202  0.1303921639919281)
(X_203  0.06372549384832382)
(X_204  0.028431374579668045)
(X_205  0.028431374579668045)
(X_206  0.02450980618596077)
(X_207  0.020588237792253494)
(X_208  0.012745101936161518)
(X_209  0.008823529817163944)
(X_210  0.004901961423456669)
(X_211  0.10490196198225021)
(X_212  0.12450980395078659)
(X_213  0.12450980395078659)
(X_214  0.12450980395078659)
(X_215  0.02450980618596077)
(X_216  0.02450980618596077)
(X_217  0.12843137979507446)
(X_218  0.12843137979507446)
(X_219  0.12843137979507446)
(X_220  0.136274516582489)
(X_221  0.136274516582489)
(X_222  0.036274511367082596)
(X_223  0.036274511367082596)
(X_224  0.24411766231060028)
(X_225  0.3558823764324188)
(X_226  0.2754901945590973)
(X_227  0.29901960492134094)
(X_228  0.31470587849617004)
(X_229  0.31078431010246277)
(X_230  0.29901960492134094)
(X_231  0.38333335518836975)
(X_232  0.29313725233078003)
(X_233  0.24607843160629272)
(X_234  0.18333333730697632)
(X_235  0.13235294818878174)
(X_236  0.10882353037595749)
(X_237  0.11274509876966476)
(X_238  0.12843137979507446)
(X_239  0.1401960849761963)
(X_240  0.0009803927969187498)
(X_241  0.012745101936161518)
(X_242  0.036274511367082596)
(X_243  0.05980392172932625)
(X_244  0.09509804844856262)
(X_245  0.13431373238563538)
(X_246  0.1774509847164154)
(X_247  0.20490197837352753)
(X_248  0.33235296607017517)
(X_249  0.24803923070430756)
(X_250  0.2754901945590973)
(X_251  0.40294119715690613)
(X_252  0.32058826088905334)
(X_253  0.2970588207244873)
(X_254  0.2656862735748291)
(X_255  0.25784313678741455)
(X_256  0.27352941036224365)
(X_257  0.30098041892051697)
(X_258  0.3284313976764679)
(X_259  0.240196093916893)
(X_260  0.33627453446388245)
(X_261  0.3127451241016388)
(X_262  0.2774509787559509)
(X_263  0.25)
(X_264  0.22647058963775635)
(X_265  0.21078431606292725)
(X_266  0.19509804248809814)
(X_267  0.08725491166114807)
(X_268  0.16568627953529358)
(X_269  0.1931372582912445)
(X_270  0.23235295712947845)
(X_271  0.27156862616539)
(X_272  0.29901960492134094)
(X_273  0.31470587849617004)
(X_274  0.33039215207099915)
(X_275  0.3382352888584137)
(X_276  0.29901960492134094)
(X_277  0.3029411733150482)
(X_278  0.41470590233802795)
(X_279  0.4225490391254425)
(X_280  0.44019606709480286)
(X_281  0.40882351994514465)
(X_282  0.36176469922065735)
(X_283  0.32647058367729187)
(X_284  0.29509803652763367)
(X_285  0.35196080803871155)
(X_286  0.30490198731422424)
(X_287  0.16568627953529358)
(X_288  0.30098041892051697)
(X_289  0.29313725233078003)
(X_290  0.2852941155433655)
(X_291  0.2813725471496582)
(X_292  0.2774509787559509)
(X_293  0.2696078419685364)
(X_294  0.15784314274787903)
(X_295  0.24607843160629272)
(X_296  0.25784313678741455)
(X_297  0.2813725471496582)
(X_298  0.3127451241016388)
(X_299  0.33235296607017517)
(X_300  0.240196093916893)
(X_301  0.33627453446388245)
(X_302  0.23235295712947845)
(X_303  0.22843138873577118)
(X_304  0.3754902184009552)
(X_305  0.3794117867946625)
(X_306  0.28333333134651184)
(X_307  0.28333333134651184)
(X_308  0.3696078360080719)
(X_309  0.3813725411891937)
(X_310  0.4166666567325592)
(X_311  0.47156864404678345)
(X_312  0.5186274647712708)
(X_313  0.5303921699523926)
(X_314  0.5068627595901489)
(X_315  0.4754902124404907)
(X_316  0.4754902124404907)
(X_317  0.44411763548851013)
(X_318  0.39313724637031555)
(X_319  0.3499999940395355)
(X_320  0.31470587849617004)
(X_321  0.3950980603694916)
(X_322  0.3794117867946625)
(X_323  0.36764708161354065)
(X_324  0.24803923070430756)
(X_325  0.35196080803871155)
(X_326  0.35196080803871155)
(X_327  0.344117671251297)
(X_328  0.23235295712947845)
(X_329  0.2245098203420639)
(X_330  0.2245098203420639)
(X_331  0.22843138873577118)
(X_332  0.30098041892051697)
(X_333  0.30098041892051697)
(X_334  0.19705882668495178)
(X_335  0.19705882668495178)
(X_336  0.3127451241016388)
(X_337  0.29313725233078003)
(X_338  0.17352941632270813)
(X_339  0.2813725471496582)
(X_340  0.3127451241016388)
(X_341  0.3401961028575897)
(X_342  0.25196078419685364)
(X_343  0.2558823525905609)
(X_344  0.4421568810939789)
(X_345  0.43039217591285706)
(X_346  0.3225490152835846)
(X_347  0.33039215207099915)
(X_348  0.457843154668808)
(X_349  0.49705883860588074)
(X_350  0.5284313559532166)
(X_351  0.5441176295280457)
(X_352  0.44019606709480286)
(X_353  0.4480392038822174)
(X_354  0.45196080207824707)
(X_355  0.45196080207824707)
(X_356  0.44411763548851013)
(X_357  0.44411763548851013)
(X_358  0.44411763548851013)
(X_359  0.551960825920105)
(X_360  0.595098078250885)
(X_361  0.5911765098571777)
(X_362  0.5794118046760559)
(X_363  0.5715686678886414)
(X_364  0.12254902720451355)
(X_365  0.10294118523597717)
(X_366  0.0833333432674408)
(X_367  0.0833333432674408)
(X_368  0.2029411792755127)
(X_369  0.23823529481887817)
(X_370  0.2774509787559509)
(X_371  0.2970588207244873)
(X_372  0.15392157435417175)
(X_373  0.15000000596046448)
(X_374  0.15000000596046448)
(X_375  0.15392157435417175)
(X_376  0.2617647051811218)
(X_377  0.2617647051811218)
(X_378  0.25784313678741455)
(X_379  0.25)
(X_380  0.2852941155433655)
(X_381  0.21274511516094208)
(X_382  0.24411766231060028)
(X_383  0.3715686500072479)
(X_384  0.38333335518836975)
(X_385  0.28333333134651184)
(X_386  0.28333333134651184)
(X_387  0.28333333134651184)
(X_388  0.40294119715690613)
(X_389  0.40294119715690613)
(X_390  0.39901962876319885)
(X_391  0.3950980603694916)
(X_392  0.09117648005485535)
(X_393  0.0990196168422699)
(X_394  0.20686274766921997)
(X_395  0.2029411792755127)
(X_396  0.19117647409439087)
(X_397  0.18333333730697632)
(X_398  0.1872549057006836)
(X_399  0.19117647409439087)
(X_400  0.136274516582489)
(X_401  0.14803922176361084)
(X_402  0.16764706373214722)
(X_403  0.19117647409439087)
(X_404  0.114705890417099)
(X_405  0.12254902720451355)
(X_406  0.21470588445663452)
(X_407  0.2029411792755127)
(X_408  0.07549020648002625)
(X_409  0.09509804844856262)
(X_410  0.12254902720451355)
(X_411  0.14215686917304993)
(X_412  0.15000000596046448)
(X_413  0.25)
(X_414  0.25)
(X_415  0.2539215683937073)
(X_416  0.114705890417099)
(X_417  0.11862745881080627)
(X_418  0.22647058963775635)
(X_419  0.23039215803146362)
(X_420  0.05980392172932625)
(X_421  0.0676470622420311)
(X_422  0.1715686321258545)
(X_423  0.1558823585510254)
(X_424  0.13235294818878174)
(X_425  0.12058823555707932)
(X_426  0.13235294818878174)
(X_427  0.04411764815449715)
(X_428  0.05980392172932625)
(X_429  0.1558823585510254)
(X_430  0.1558823585510254)
(X_431  0.16372549533843994)
(X_432  0.1715686321258545)
(X_433  0.1715686321258545)
(X_434  0.16372549533843994)
(X_435  0.05588235333561897)
(X_436  0.07941177487373352)
(X_437  0.07549020648002625)
(X_438  0.06372549384832382)
(X_439  0.0519607849419117)
(X_440  0.04019607976078987)
(X_441  0.04019607976078987)
(X_442  0.0519607849419117)
(X_443  0.06372549384832382)
(X_444  0.16372549533843994)
(X_445  0.16372549533843994)
(X_446  0.16372549533843994)
(X_447  0.16372549533843994)
(X_448  0.04019607976078987)
(X_449  0.1401960849761963)
(X_450  0.136274516582489)
(X_451  0.136274516582489)
(X_452  0.03235294297337532)
(X_453  0.028431374579668045)
(X_454  0.028431374579668045)
(X_455  0.028431374579668045)
(X_456  0.04803921654820442)
(X_457  0.04803921654820442)
(X_458  0.14803922176361084)
(X_459  0.14803922176361084)
(X_460  0.14803922176361084)
(X_461  0.04803921654820442)
(X_462  0.14803922176361084)
(X_463  0.14803922176361084)
(X_464  0.13235294818878174)
(X_465  0.13235294818878174)
(X_466  0.03235294297337532)
(X_467  0.03235294297337532)
(X_468  0.03235294297337532)
(X_469  0.03235294297337532)
(X_470  0.03235294297337532)
(X_471  0.03235294297337532)
(X_472  0.036274511367082596)
(X_473  0.03235294297337532)
(X_474  0.03235294297337532)
(X_475  0.12843137979507446)
(X_476  0.03235294297337532)
(X_477  0.028431374579668045)
(X_478  0.028431374579668045)
(X_479  0.028431374579668045)
(X_480  0.028431374579668045)
(X_481  0.028431374579668045)
(X_482  0.02450980618596077)
(X_483  0.02450980618596077)
(X_484  0.03235294297337532)
(X_485  0.03235294297337532)
(X_486  0.03235294297337532)
(X_487  0.13235294818878174)
(X_488  0.13235294818878174)
(X_489  0.13235294818878174)
(X_490  0.13235294818878174)
(X_491  0.13235294818878174)
(X_492  0.12843137979507446)
(X_493  0.12843137979507446)
(X_494  0.028431374579668045)
(X_495  0.028431374579668045)
(X_496  0.12843137979507446)
(X_497  0.12843137979507446)
(X_498  0.028431374579668045)
(X_499  0.028431374579668045)
(X_500  0.02450980618596077)
(X_501  0.020588237792253494)
(X_502  0.020588237792253494)
(X_503  0.11666666716337204)
(X_504  0.01666666939854622)
(X_505  0.11666666716337204)
(X_506  0.11666666716337204)
(X_507  0.11666666716337204)
(X_508  0.12058823555707932)
(X_509  0.020588237792253494)
(X_510  0.020588237792253494)
(X_511  0.020588237792253494)
(X_512  0.11274509876966476)
(X_513  0.012745101936161518)
(X_514  0.012745101936161518)
(X_515  0.11274509876966476)
(X_516  0.11274509876966476)
(X_517  0.11274509876966476)
(X_518  0.012745101936161518)
(X_519  0.11274509876966476)
(X_520  0.12450980395078659)
(X_521  0.12450980395078659)
(X_522  0.12450980395078659)
(X_523  0.02450980618596077)
(X_524  0.02450980618596077)
(X_525  0.02450980618596077)
(X_526  0.02450980618596077)
(X_527  0.02450980618596077)
(X_528  0.01666666939854622)
(X_529  0.01666666939854622)
(X_530  0.012745101936161518)
(X_531  0.11274509876966476)
(X_532  0.0009803927969187498)
(X_533  0.10490196198225021)
(X_534  0.004901961423456669)
(X_535  0.008823529817163944)
(X_536  0.008823529817163944)
(X_537  0.012745101936161518)
(X_538  0.012745101936161518)
(X_539  0.01666666939854622)
(X_540  0.10098039358854294)
(X_541  0.0009803927969187498)
(X_542  0.10098039358854294)
(X_543  0.10098039358854294)
(X_544  0.10098039358854294)
(X_545  0.0009803927969187498)
(X_546  0.0009803927969187498)
(X_547  0.0009803927969187498)
(X_548  0.012745101936161518)
(X_549  0.11274509876966476)
(X_550  0.012745101936161518)
(X_551  0.012745101936161518)
(X_552  0.012745101936161518)
(X_553  0.012745101936161518)
(X_554  0.012745101936161518)
(X_555  0.012745101936161518)
(X_556  0.11666666716337204)
(X_557  0.11666666716337204)
(X_558  0.11666666716337204)
(X_559  0.11274509876966476)
(X_560  -0.006862743757665157)
(X_561  -0.006862743757665157)
(X_562  -0.0029411755967885256)
(X_563  -0.0029411755967885256)
(X_564  0.0009803927969187498)
(X_565  0.004901961423456669)
(X_566  0.004901961423456669)
(X_567  0.004901961423456669)
(X_568  0.09705882519483566)
(X_569  -0.0029411755967885256)
(X_570  -0.0029411755967885256)
(X_571  -0.0029411755967885256)
(X_572  0.09705882519483566)
(X_573  0.09705882519483566)
(X_574  -0.0029411755967885256)
(X_575  -0.0029411755967885256)
(X_576  0.10490196198225021)
(X_577  0.10490196198225021)
(X_578  0.004901961423456669)
(X_579  0.004901961423456669)
(X_580  0.004901961423456669)
(X_581  0.004901961423456669)
(X_582  0.004901961423456669)
(X_583  0.004901961423456669)
(X_584  0.008823529817163944)
(X_585  0.10882353037595749)
(X_586  0.008823529817163944)
(X_587  0.10490196198225021)
(X_588  0.09313725680112839)
(X_589  0.09313725680112839)
(X_590  0.09313725680112839)
(X_591  -0.006862743757665157)
(X_592  -0.0029411755967885256)
(X_593  -0.0029411755967885256)
(X_594  -0.0029411755967885256)
(X_595  -0.0029411755967885256)
(X_596  -0.0029411755967885256)
(X_597  -0.0029411755967885256)
(X_598  -0.0029411755967885256)
(X_599  0.09705882519483566)
(X_600  0.09705882519483566)
(X_601  0.09705882519483566)
(X_602  0.09705882519483566)
(X_603  0.09705882519483566)
(X_604  0.09313725680112839)
(X_605  -0.006862743757665157)
(X_606  -0.006862743757665157)
(X_607  -0.006862743757665157)
(X_608  0.09313725680112839)
(X_609  -0.006862743757665157)
(X_610  -0.006862743757665157)
(X_611  -0.006862743757665157)
(X_612  -0.006862743757665157)
(X_613  0.09313725680112839)
(X_614  0.09313725680112839)
(X_615  0.09313725680112839)
(X_616  -0.0029411755967885256)
(X_617  0.09705882519483566)
(X_618  0.09313725680112839)
(X_619  0.09313725680112839)
(X_620  0.09313725680112839)
(X_621  -0.006862743757665157)
(X_622  -0.006862743757665157)
(X_623  -0.010784312151372433)
(X_624  0.09313725680112839)
(X_625  0.09313725680112839)
(X_626  0.09313725680112839)
(X_627  0.09313725680112839)
(X_628  0.09313725680112839)
(X_629  0.09313725680112839)
(X_630  0.09313725680112839)
(X_631  0.09313725680112839)
(X_632  0.08921568840742111)
(X_633  0.08921568840742111)
(X_634  0.08921568840742111)
(X_635  0.08921568840742111)
(X_636  0.08921568840742111)
(X_637  0.08921568840742111)
(X_638  0.08921568840742111)
(X_639  0.08921568840742111)
(X_640  0.08529412001371384)
(X_641  0.08529412001371384)
(X_642  0.08529412001371384)
(X_643  0.08529412001371384)
(X_644  0.10098039358854294)
(X_645  0.09705882519483566)
(X_646  -0.0029411755967885256)
(X_647  -0.006862743757665157)
(X_648  -0.006862743757665157)
(X_649  -0.010784312151372433)
(X_650  0.08921568840742111)
(X_651  -0.014705880545079708)
(X_652  -0.010784312151372433)
(X_653  -0.010784312151372433)
(X_654  -0.010784312151372433)
(X_655  -0.010784312151372433)
(X_656  0.08921568840742111)
(X_657  0.08921568840742111)
(X_658  0.08921568840742111)
(X_659  0.08921568840742111)
(X_660  0.08529412001371384)
(X_661  0.08529412001371384)
(X_662  -0.014705880545079708)
(X_663  -0.014705880545079708)
(X_664  -0.014705880545079708)
(X_665  -0.014705880545079708)
(X_666  -0.014705880545079708)
(X_667  -0.014705880545079708)
(X_668  -0.006862743757665157)
(X_669  -0.006862743757665157)
(X_670  -0.006862743757665157)
(X_671  0.09313725680112839)
(X_672  -0.006862743757665157)
(X_673  0.08529412001371384)
(X_674  0.08137255162000656)
(X_675  0.08137255162000656)
(X_676  0.08921568840742111)
(X_677  0.08921568840742111)
(X_678  0.08529412001371384)
(X_679  0.07745098322629929)
(X_680  0.08529412001371384)
(X_681  0.08529412001371384)
(X_682  0.08529412001371384)
(X_683  -0.014705880545079708)
(X_684  -0.014705880545079708)
(X_685  0.08529412001371384)
(X_686  0.08529412001371384)
(X_687  0.08529412001371384)
(X_688  0.08137255162000656)
(X_689  0.08529412001371384)
(X_690  0.08529412001371384)
(X_691  0.08921568840742111)
(X_692  0.08921568840742111)
(X_693  0.08529412001371384)
(X_694  0.08529412001371384)
(X_695  0.08137255162000656)
(X_696  0.08529412001371384)
(X_697  -0.014705880545079708)
(X_698  -0.014705880545079708)
(X_699  -0.014705880545079708)
(X_700  0.09313725680112839)
(X_701  0.08921568840742111)
(X_702  0.08137255162000656)
(X_703  0.08137255162000656)
(X_704  0.08529412001371384)
(X_705  -0.010784312151372433)
(X_706  -0.014705880545079708)
(X_707  -0.022549020126461983)
(X_708  -0.014705880545079708)
(X_709  -0.014705880545079708)
(X_710  -0.014705880545079708)
(X_711  -0.014705880545079708)
(X_712  -0.014705880545079708)
(X_713  -0.014705880545079708)
(X_714  -0.014705880545079708)
(X_715  0.08529412001371384)
(X_716  -0.018627449870109558)
(X_717  -0.014705880545079708)
(X_718  -0.014705880545079708)
(X_719  -0.010784312151372433)
(X_720  -0.010784312151372433)
(X_721  -0.014705880545079708)
(X_722  -0.014705880545079708)
(X_723  -0.018627449870109558)
(X_724  -0.014705880545079708)
(X_725  -0.014705880545079708)
(X_726  -0.014705880545079708)
(X_727  -0.014705880545079708)
(X_728  0.09705882519483566)
(X_729  0.08921568840742111)
(X_730  0.08137255162000656)
(X_731  0.08137255162000656)
(X_732  0.08529412001371384)
(X_733  0.08529412001371384)
(X_734  0.08529412001371384)
(X_735  0.07745098322629929)
(X_736  -0.014705880545079708)
(X_737  -0.014705880545079708)
(X_738  -0.014705880545079708)
(X_739  -0.014705880545079708)
(X_740  -0.014705880545079708)
(X_741  -0.014705880545079708)
(X_742  -0.014705880545079708)
(X_743  -0.014705880545079708)
(X_744  -0.018627449870109558)
(X_745  -0.018627449870109558)
(X_746  -0.014705880545079708)
(X_747  -0.014705880545079708)
(X_748  -0.014705880545079708)
(X_749  0.08529412001371384)
(X_750  0.08137255162000656)
(X_751  0.08137255162000656)
(X_752  0.08529412001371384)
(X_753  0.08529412001371384)
(X_754  0.08529412001371384)
(X_755  0.08529412001371384)
(X_756  0.0009803927969187498)
(X_757  -0.006862743757665157)
(X_758  -0.018627449870109558)
(X_759  0.07745098322629929)
(X_760  0.08137255162000656)
(X_761  0.08529412001371384)
(X_762  0.08137255162000656)
(X_763  0.07745098322629929)
(X_764  0.08529412001371384)
(X_765  -0.014705880545079708)
(X_766  0.08529412001371384)
(X_767  0.08529412001371384)
(X_768  0.08529412001371384)
(X_769  0.08529412001371384)
(X_770  0.08529412001371384)
(X_771  0.08529412001371384)
(X_772  0.07745098322629929)
(X_773  -0.018627449870109558)
(X_774  -0.014705880545079708)
(X_775  -0.014705880545079708)
(X_776  -0.014705880545079708)
(X_777  0.08529412001371384)
(X_778  0.08137255162000656)
(X_779  0.07745098322629929)
(X_780  0.08137255162000656)
(X_781  -0.018627449870109558)
(X_782  -0.018627449870109558)
(X_783  0.08137255162000656)
(Y_0 37.57345962524414)
(Y_1 -9.89520263671875)
(Y_2 10.5684175491333)
(Y_3 -38.88526153564453))