((X_0  1.0421568155288696)
(X_1  0.9421568512916565)
(X_2  0.9421568512916565)
(X_3  0.9421568512916565)
(X_4  1.0421568155288696)
(X_5  1.0421568155288696)
(X_6  0.9421568512916565)
(X_7  0.9382352828979492)
(X_8  1.0499999523162842)
(X_9  1.0499999523162842)
(X_10  1.0499999523162842)
(X_11  1.0499999523162842)
(X_12  1.0499999523162842)
(X_13  1.0499999523162842)
(X_14  1.0499999523162842)
(X_15  0.949999988079071)
(X_16  0.9460784196853638)
(X_17  0.9460784196853638)
(X_18  0.9460784196853638)
(X_19  0.949999988079071)
(X_20  1.0499999523162842)
(X_21  1.0499999523162842)
(X_22  1.0499999523162842)
(X_23  0.949999988079071)
(X_24  1.0460784435272217)
(X_25  1.0460784435272217)
(X_26  1.0499999523162842)
(X_27  1.0499999523162842)
(X_28  1.0460784435272217)
(X_29  1.0499999523162842)
(X_30  0.949999988079071)
(X_31  0.949999988079071)
(X_32  0.949999988079071)
(X_33  0.949999988079071)
(X_34  0.949999988079071)
(X_35  1.0499999523162842)
(X_36  1.0382353067398071)
(X_37  1.0460784435272217)
(X_38  0.949999988079071)
(X_39  0.949999988079071)
(X_40  0.949999988079071)
(X_41  0.9421568512916565)
(X_42  1.0421568155288696)
(X_43  0.9421568512916565)
(X_44  0.949999988079071)
(X_45  1.0499999523162842)
(X_46  1.0421568155288696)
(X_47  0.9343137145042419)
(X_48  0.9303921461105347)
(X_49  0.9264705777168274)
(X_50  0.9225490093231201)
(X_51  0.9225490093231201)
(X_52  1.0499999523162842)
(X_53  1.0499999523162842)
(X_54  0.949999988079071)
(X_55  1.0499999523162842)
(X_56  0.8696078658103943)
(X_57  0.7735294103622437)
(X_58  0.7813725471496582)
(X_59  0.7892156839370728)
(X_60  0.8009803891181946)
(X_61  0.8127450942993164)
(X_62  0.820588231086731)
(X_63  0.8245097994804382)
(X_64  0.8480392098426819)
(X_65  0.8676470518112183)
(X_66  0.8911764621734619)
(X_67  0.9147058725357056)
(X_68  1.022549033164978)
(X_69  0.9264705777168274)
(X_70  0.9343137145042419)
(X_71  1.0382353067398071)
(X_72  0.9303921461105347)
(X_73  0.9303921461105347)
(X_74  0.9343137145042419)
(X_75  0.9421568512916565)
(X_76  0.949999988079071)
(X_77  1.0499999523162842)
(X_78  1.0499999523162842)
(X_79  1.0499999523162842)
(X_80  1.034313678741455)
(X_81  1.034313678741455)
(X_82  0.9382352828979492)
(X_83  1.0460784435272217)
(X_84  0.23039215803146362)
(X_85  0.2343137264251709)
(X_86  0.14215686917304993)
(X_87  0.15392157435417175)
(X_88  0.16568627953529358)
(X_89  0.1774509847164154)
(X_90  0.18921568989753723)
(X_91  0.1931372582912445)
(X_92  0.2088235467672348)
(X_93  0.22843138873577118)
(X_94  0.25196078419685364)
(X_95  0.27156862616539)
(X_96  0.38333335518836975)
(X_97  0.3950980603694916)
(X_98  0.4107843339443207)
(X_99  0.41862747073173523)
(X_100  0.46568629145622253)
(X_101  0.4735294282436371)
(X_102  0.4852941334247589)
(X_103  0.4009803831577301)
(X_104  0.4205882251262665)
(X_105  0.44019606709480286)
(X_106  0.4598039388656616)
(X_107  0.46764707565307617)
(X_108  0.5656862854957581)
(X_109  0.5696078538894653)
(X_110  0.5735294222831726)
(X_111  0.5813725590705872)
(X_112  0.05980392172932625)
(X_113  0.16372549533843994)
(X_114  0.0676470622420311)
(X_115  0.07549020648002625)
(X_116  0.0833333432674408)
(X_117  0.09117648005485535)
(X_118  0.09509804844856262)
(X_119  0.0990196168422699)
(X_120  0.08725491166114807)
(X_121  0.08725491166114807)
(X_122  0.08725491166114807)
(X_123  0.07941177487373352)
(X_124  0.07156863063573837)
(X_125  0.07549020648002625)
(X_126  0.0833333432674408)
(X_127  0.09509804844856262)
(X_128  0.17549020051956177)
(X_129  0.17549020051956177)
(X_130  0.17549020051956177)
(X_131  0.17941176891326904)
(X_132  0.18333333730697632)
(X_133  0.19117647409439087)
(X_134  0.19901961088180542)
(X_135  0.2029411792755127)
(X_136  0.19117647409439087)
(X_137  0.09117648005485535)
(X_138  0.18333333730697632)
(X_139  0.17549020051956177)
(X_140  0.17549020051956177)
(X_141  0.17549020051956177)
(X_142  0.17549020051956177)
(X_143  0.17941176891326904)
(X_144  0.0833333432674408)
(X_145  0.0833333432674408)
(X_146  0.0833333432674408)
(X_147  0.1872549057006836)
(X_148  0.19117647409439087)
(X_149  0.1872549057006836)
(X_150  0.17941176891326904)
(X_151  0.0676470622420311)
(X_152  0.15980392694473267)
(X_153  0.16372549533843994)
(X_154  0.17549020051956177)
(X_155  0.1872549057006836)
(X_156  0.08725491166114807)
(X_157  0.1872549057006836)
(X_158  0.18333333730697632)
(X_159  0.17941176891326904)
(X_160  0.17941176891326904)
(X_161  0.07941177487373352)
(X_162  0.0833333432674408)
(X_163  0.18333333730697632)
(X_164  0.0990196168422699)
(X_165  0.0990196168422699)
(X_166  0.09509804844856262)
(X_167  0.1872549057006836)
(X_168  0.0833333432674408)
(X_169  0.18333333730697632)
(X_170  0.18333333730697632)
(X_171  0.1872549057006836)
(X_172  0.08725491166114807)
(X_173  0.08725491166114807)
(X_174  0.08725491166114807)
(X_175  0.08725491166114807)
(X_176  0.17549020051956177)
(X_177  0.17941176891326904)
(X_178  0.17941176891326904)
(X_179  0.17941176891326904)
(X_180  0.17941176891326904)
(X_181  0.08725491166114807)
(X_182  0.10294118523597717)
(X_183  0.114705890417099)
(X_184  0.17549020051956177)
(X_185  0.17941176891326904)
(X_186  0.17941176891326904)
(X_187  0.18333333730697632)
(X_188  0.1872549057006836)
(X_189  0.19509804248809814)
(X_190  0.2029411792755127)
(X_191  0.20686274766921997)
(X_192  0.16764706373214722)
(X_193  0.16764706373214722)
(X_194  0.07156863063573837)
(X_195  0.07549020648002625)
(X_196  0.0676470622420311)
(X_197  0.16764706373214722)
(X_198  0.16764706373214722)
(X_199  0.1715686321258545)
(X_200  0.07156863063573837)
(X_201  0.07156863063573837)
(X_202  0.07156863063573837)
(X_203  0.07156863063573837)
(X_204  0.06372549384832382)
(X_205  0.1715686321258545)
(X_206  0.17549020051956177)
(X_207  0.17549020051956177)
(X_208  0.0676470622420311)
(X_209  0.06372549384832382)
(X_210  0.0676470622420311)
(X_211  0.07156863063573837)
(X_212  0.1715686321258545)
(X_213  0.1715686321258545)
(X_214  0.1715686321258545)
(X_215  0.16764706373214722)
(X_216  0.1715686321258545)
(X_217  0.17549020051956177)
(X_218  0.17941176891326904)
(X_219  0.18333333730697632)
(X_220  0.1715686321258545)
(X_221  0.1715686321258545)
(X_222  0.16764706373214722)
(X_223  0.16372549533843994)
(X_224  0.0676470622420311)
(X_225  0.07156863063573837)
(X_226  0.17549020051956177)
(X_227  0.17941176891326904)
(X_228  0.07549020648002625)
(X_229  0.0676470622420311)
(X_230  0.05588235333561897)
(X_231  0.14803922176361084)
(X_232  0.16372549533843994)
(X_233  0.16372549533843994)
(X_234  0.15980392694473267)
(X_235  0.15980392694473267)
(X_236  0.15980392694473267)
(X_237  0.06372549384832382)
(X_238  0.07156863063573837)
(X_239  0.07549020648002625)
(X_240  0.07941177487373352)
(X_241  0.17549020051956177)
(X_242  0.17549020051956177)
(X_243  0.1715686321258545)
(X_244  0.1715686321258545)
(X_245  0.17549020051956177)
(X_246  0.17549020051956177)
(X_247  0.07941177487373352)
(X_248  0.06372549384832382)
(X_249  0.16372549533843994)
(X_250  0.16372549533843994)
(X_251  0.06372549384832382)
(X_252  0.06372549384832382)
(X_253  0.0676470622420311)
(X_254  0.0676470622420311)
(X_255  0.16372549533843994)
(X_256  0.15980392694473267)
(X_257  0.16372549533843994)
(X_258  0.18333333730697632)
(X_259  0.19509804248809814)
(X_260  0.0519607849419117)
(X_261  0.0519607849419117)
(X_262  0.0519607849419117)
(X_263  0.15196079015731812)
(X_264  0.1558823585510254)
(X_265  0.15196079015731812)
(X_266  0.1401960849761963)
(X_267  0.13235294818878174)
(X_268  0.0676470622420311)
(X_269  0.16764706373214722)
(X_270  0.16372549533843994)
(X_271  0.05980392172932625)
(X_272  0.05980392172932625)
(X_273  0.16372549533843994)
(X_274  0.16764706373214722)
(X_275  0.16764706373214722)
(X_276  0.15980392694473267)
(X_277  0.15980392694473267)
(X_278  0.05980392172932625)
(X_279  0.05980392172932625)
(X_280  0.0676470622420311)
(X_281  0.1715686321258545)
(X_282  0.07156863063573837)
(X_283  0.06372549384832382)
(X_284  0.0519607849419117)
(X_285  0.1558823585510254)
(X_286  0.17549020051956177)
(X_287  0.19117647409439087)
(X_288  0.05980392172932625)
(X_289  0.05980392172932625)
(X_290  0.06372549384832382)
(X_291  0.07941177487373352)
(X_292  0.09509804844856262)
(X_293  0.09117648005485535)
(X_294  0.07549020648002625)
(X_295  0.05980392172932625)
(X_296  0.05980392172932625)
(X_297  0.05588235333561897)
(X_298  0.0519607849419117)
(X_299  0.0519607849419117)
(X_300  0.0519607849419117)
(X_301  0.15196079015731812)
(X_302  0.1558823585510254)
(X_303  0.05980392172932625)
(X_304  0.05588235333561897)
(X_305  0.05588235333561897)
(X_306  0.05588235333561897)
(X_307  0.05588235333561897)
(X_308  0.05980392172932625)
(X_309  0.05588235333561897)
(X_310  0.05588235333561897)
(X_311  0.05588235333561897)
(X_312  0.05980392172932625)
(X_313  0.05980392172932625)
(X_314  0.05980392172932625)
(X_315  0.1558823585510254)
(X_316  0.14411765336990356)
(X_317  0.136274516582489)
(X_318  0.036274511367082596)
(X_319  0.14803922176361084)
(X_320  0.16372549533843994)
(X_321  0.06372549384832382)
(X_322  0.04803921654820442)
(X_323  0.03235294297337532)
(X_324  0.05980392172932625)
(X_325  0.05588235333561897)
(X_326  0.05588235333561897)
(X_327  0.0519607849419117)
(X_328  0.0519607849419117)
(X_329  0.1558823585510254)
(X_330  0.1558823585510254)
(X_331  0.15980392694473267)
(X_332  0.15196079015731812)
(X_333  0.15196079015731812)
(X_334  0.0519607849419117)
(X_335  0.0519607849419117)
(X_336  0.09509804844856262)
(X_337  0.16764706373214722)
(X_338  0.136274516582489)
(X_339  0.13235294818878174)
(X_340  0.14803922176361084)
(X_341  0.15980392694473267)
(X_342  0.05588235333561897)
(X_343  0.04411764815449715)
(X_344  0.16764706373214722)
(X_345  0.1558823585510254)
(X_346  0.04411764815449715)
(X_347  0.04019607976078987)
(X_348  0.04803921654820442)
(X_349  0.04803921654820442)
(X_350  0.04019607976078987)
(X_351  0.12843137979507446)
(X_352  0.16764706373214722)
(X_353  0.06372549384832382)
(X_354  0.06372549384832382)
(X_355  0.05980392172932625)
(X_356  0.05980392172932625)
(X_357  0.16372549533843994)
(X_358  0.16372549533843994)
(X_359  0.16764706373214722)
(X_360  0.15196079015731812)
(X_361  0.15196079015731812)
(X_362  0.0519607849419117)
(X_363  0.0519607849419117)
(X_364  0.23235295712947845)
(X_365  0.2774509787559509)
(X_366  0.2029411792755127)
(X_367  0.15980392694473267)
(X_368  0.15196079015731812)
(X_369  0.15980392694473267)
(X_370  0.05980392172932625)
(X_371  0.05588235333561897)
(X_372  0.06372549384832382)
(X_373  0.06372549384832382)
(X_374  0.15980392694473267)
(X_375  0.15980392694473267)
(X_376  0.15980392694473267)
(X_377  0.0676470622420311)
(X_378  0.07549020648002625)
(X_379  0.07941177487373352)
(X_380  0.16764706373214722)
(X_381  0.16764706373214722)
(X_382  0.16372549533843994)
(X_383  0.15980392694473267)
(X_384  0.15980392694473267)
(X_385  0.06372549384832382)
(X_386  0.0676470622420311)
(X_387  0.0676470622420311)
(X_388  0.15196079015731812)
(X_389  0.15196079015731812)
(X_390  0.0519607849419117)
(X_391  0.0519607849419117)
(X_392  0.41862747073173523)
(X_393  0.2872548997402191)
(X_394  0.23627452552318573)
(X_395  0.2852941155433655)
(X_396  0.25)
(X_397  0.24215686321258545)
(X_398  0.24607843160629272)
(X_399  0.25784313678741455)
(X_400  0.09509804844856262)
(X_401  0.10686275362968445)
(X_402  0.10686275362968445)
(X_403  0.19117647409439087)
(X_404  0.16764706373214722)
(X_405  0.04803921654820442)
(X_406  0.0519607849419117)
(X_407  0.05588235333561897)
(X_408  0.15980392694473267)
(X_409  0.05588235333561897)
(X_410  0.15196079015731812)
(X_411  0.15196079015731812)
(X_412  0.15196079015731812)
(X_413  0.15196079015731812)
(X_414  0.1558823585510254)
(X_415  0.15980392694473267)
(X_416  0.05588235333561897)
(X_417  0.05588235333561897)
(X_418  0.05588235333561897)
(X_419  0.05588235333561897)
(X_420  0.3754902184009552)
(X_421  0.40294119715690613)
(X_422  0.4225490391254425)
(X_423  0.4107843339443207)
(X_424  0.28333333134651184)
(X_425  0.27156862616539)
(X_426  0.387254923582077)
(X_427  0.4107843339443207)
(X_428  0.387254923582077)
(X_429  0.3950980603694916)
(X_430  0.28333333134651184)
(X_431  0.22843138873577118)
(X_432  0.15392157435417175)
(X_433  0.08725491166114807)
(X_434  0.05588235333561897)
(X_435  0.04803921654820442)
(X_436  0.14803922176361084)
(X_437  0.14411765336990356)
(X_438  0.04411764815449715)
(X_439  0.1401960849761963)
(X_440  0.1401960849761963)
(X_441  0.04411764815449715)
(X_442  0.04411764815449715)
(X_443  0.04803921654820442)
(X_444  0.05588235333561897)
(X_445  0.05588235333561897)
(X_446  0.05588235333561897)
(X_447  0.1558823585510254)
(X_448  0.3911764919757843)
(X_449  0.28333333134651184)
(X_450  0.26372548937797546)
(X_451  0.24803923070430756)
(X_452  0.2558823525905609)
(X_453  0.27941176295280457)
(X_454  0.27941176295280457)
(X_455  0.2598039209842682)
(X_456  0.3754902184009552)
(X_457  0.40294119715690613)
(X_458  0.33235296607017517)
(X_459  0.3637255132198334)
(X_460  0.36764708161354065)
(X_461  0.21666668355464935)
(X_462  0.21274511516094208)
(X_463  0.114705890417099)
(X_464  0.07156863063573837)
(X_465  0.07156863063573837)
(X_466  0.05588235333561897)
(X_467  0.1401960849761963)
(X_468  0.14411765336990356)
(X_469  0.15980392694473267)
(X_470  0.15980392694473267)
(X_471  0.14803922176361084)
(X_472  0.14803922176361084)
(X_473  0.14411765336990356)
(X_474  0.14411765336990356)
(X_475  0.1401960849761963)
(X_476  0.29901960492134094)
(X_477  0.2872548997402191)
(X_478  0.3598039448261261)
(X_479  0.3245098292827606)
(X_480  0.20490197837352753)
(X_481  0.1931372582912445)
(X_482  0.1617647111415863)
(X_483  0.12254902720451355)
(X_484  0.12647059559822083)
(X_485  0.1460784375667572)
(X_486  0.12647059559822083)
(X_487  0.2245098203420639)
(X_488  0.3558823764324188)
(X_489  0.2970588207244873)
(X_490  0.20490197837352753)
(X_491  0.15784314274787903)
(X_492  0.1931372582912445)
(X_493  0.19705882668495178)
(X_494  0.2852941155433655)
(X_495  0.16568627953529358)
(X_496  0.2617647051811218)
(X_497  0.2617647051811218)
(X_498  0.24607843160629272)
(X_499  0.12254902720451355)
(X_500  0.17941176891326904)
(X_501  0.1715686321258545)
(X_502  0.15980392694473267)
(X_503  0.14411765336990356)
(X_504  0.46568629145622253)
(X_505  0.457843154668808)
(X_506  0.43431374430656433)
(X_507  0.39901962876319885)
(X_508  0.27156862616539)
(X_509  0.24411766231060028)
(X_510  0.1931372582912445)
(X_511  0.1460784375667572)
(X_512  0.20098040997982025)
(X_513  0.2970588207244873)
(X_514  0.30490198731422424)
(X_515  0.3029411733150482)
(X_516  0.31470587849617004)
(X_517  0.22843138873577118)
(X_518  0.22058825194835663)
(X_519  0.21666668355464935)
(X_520  0.2088235467672348)
(X_521  0.22058825194835663)
(X_522  0.22843138873577118)
(X_523  0.22843138873577118)
(X_524  0.240196093916893)
(X_525  0.3480392396450043)
(X_526  0.33235296607017517)
(X_527  0.3088235557079315)
(X_528  0.33627453446388245)
(X_529  0.23235295712947845)
(X_530  0.2245098203420639)
(X_531  0.22058825194835663)
(X_532  0.457843154668808)
(X_533  0.46176472306251526)
(X_534  0.46176472306251526)
(X_535  0.4539215862751007)
(X_536  0.457843154668808)
(X_537  0.3539215624332428)
(X_538  0.4264706075191498)
(X_539  0.3911764919757843)
(X_540  0.3029411733150482)
(X_541  0.2911764681339264)
(X_542  0.38333335518836975)
(X_543  0.3029411733150482)
(X_544  0.2754901945590973)
(X_545  0.20490197837352753)
(X_546  0.18137255311012268)
(X_547  0.18137255311012268)
(X_548  0.2539215683937073)
(X_549  0.16960784792900085)
(X_550  0.18137255311012268)
(X_551  0.18921568989753723)
(X_552  0.30490198731422424)
(X_553  0.32058826088905334)
(X_554  0.21666668355464935)
(X_555  0.19705882668495178)
(X_556  0.28921568393707275)
(X_557  0.18921568989753723)
(X_558  0.18921568989753723)
(X_559  0.18921568989753723)
(X_560  0.3401961028575897)
(X_561  0.35196080803871155)
(X_562  0.26372548937797546)
(X_563  0.28333333134651184)
(X_564  0.3186274468898773)
(X_565  0.3539215624332428)
(X_566  0.36176469922065735)
(X_567  0.34607842564582825)
(X_568  0.29901960492134094)
(X_569  0.4107843339443207)
(X_570  0.40294119715690613)
(X_571  0.344117671251297)
(X_572  0.2245098203420639)
(X_573  0.24411766231060028)
(X_574  0.24411766231060028)
(X_575  0.23627452552318573)
(X_576  0.2245098203420639)
(X_577  0.22843138873577118)
(X_578  0.32058826088905334)
(X_579  0.30490198731422424)
(X_580  0.30490198731422424)
(X_581  0.3088235557079315)
(X_582  0.2970588207244873)
(X_583  0.2774509787559509)
(X_584  0.16960784792900085)
(X_585  0.16960784792900085)
(X_586  0.2656862735748291)
(X_587  0.2617647051811218)
(X_588  0.27352941036224365)
(X_589  0.18529412150382996)
(X_590  0.1931372582912445)
(X_591  0.21274511516094208)
(X_592  0.2558823525905609)
(X_593  0.3029411733150482)
(X_594  0.4225490391254425)
(X_595  0.31078431010246277)
(X_596  0.387254923582077)
(X_597  0.29901960492134094)
(X_598  0.3068627417087555)
(X_599  0.2245098203420639)
(X_600  0.22843138873577118)
(X_601  0.3225490152835846)
(X_602  0.33039215207099915)
(X_603  0.3382352888584137)
(X_604  0.4421568810939789)
(X_605  0.34607842564582825)
(X_606  0.43431374430656433)
(X_607  0.41470590233802795)
(X_608  0.4068627655506134)
(X_609  0.31078431010246277)
(X_610  0.29901960492134094)
(X_611  0.2754901945590973)
(X_612  0.3068627417087555)
(X_613  0.31078431010246277)
(X_614  0.31470587849617004)
(X_615  0.41862747073173523)
(X_616  0.24607843160629272)
(X_617  0.2539215683937073)
(X_618  0.1617647111415863)
(X_619  0.17352941632270813)
(X_620  0.3088235557079315)
(X_621  0.3480392396450043)
(X_622  0.2558823525905609)
(X_623  0.240196093916893)
(X_624  0.21666668355464935)
(X_625  0.28921568393707275)
(X_626  0.3127451241016388)
(X_627  0.25)
(X_628  0.1617647111415863)
(X_629  0.24411766231060028)
(X_630  0.22843138873577118)
(X_631  0.2598039209842682)
(X_632  0.31470587849617004)
(X_633  0.32647058367729187)
(X_634  0.3343137204647064)
(X_635  0.3343137204647064)
(X_636  0.4421568810939789)
(X_637  0.4539215862751007)
(X_638  0.4421568810939789)
(X_639  0.41862747073173523)
(X_640  0.3911764919757843)
(X_641  0.39901962876319885)
(X_642  0.4068627655506134)
(X_643  0.41862747073173523)
(X_644  0.0833333432674408)
(X_645  0.09117648005485535)
(X_646  0.19901961088180542)
(X_647  0.21078431606292725)
(X_648  0.24215686321258545)
(X_649  0.2696078419685364)
(X_650  0.2696078419685364)
(X_651  0.25)
(X_652  0.2617647051811218)
(X_653  0.09509804844856262)
(X_654  0.1303921639919281)
(X_655  0.0990196168422699)
(X_656  0.11078432202339172)
(X_657  0.15392157435417175)
(X_658  0.11078432202339172)
(X_659  0.16568627953529358)
(X_660  0.2970588207244873)
(X_661  0.32058826088905334)
(X_662  0.33627453446388245)
(X_663  0.344117671251297)
(X_664  0.2558823525905609)
(X_665  0.3637255132198334)
(X_666  0.344117671251297)
(X_667  0.21666668355464935)
(X_668  0.2558823525905609)
(X_669  0.2598039209842682)
(X_670  0.2598039209842682)
(X_671  0.2558823525905609)
(X_672  0.04803921654820442)
(X_673  0.04803921654820442)
(X_674  0.04803921654820442)
(X_675  0.0519607849419117)
(X_676  0.05980392172932625)
(X_677  0.06372549384832382)
(X_678  0.07156863063573837)
(X_679  0.07549020648002625)
(X_680  0.0990196168422699)
(X_681  0.18333333730697632)
(X_682  0.06372549384832382)
(X_683  0.05588235333561897)
(X_684  0.0676470622420311)
(X_685  0.0990196168422699)
(X_686  0.13431373238563538)
(X_687  0.15784314274787903)
(X_688  0.2539215683937073)
(X_689  0.2343137264251709)
(X_690  0.12254902720451355)
(X_691  0.13431373238563538)
(X_692  0.2617647051811218)
(X_693  0.2774509787559509)
(X_694  0.2617647051811218)
(X_695  0.24215686321258545)
(X_696  0.2970588207244873)
(X_697  0.2970588207244873)
(X_698  0.1931372582912445)
(X_699  0.18921568989753723)
(X_700  0.12058823555707932)
(X_701  0.12058823555707932)
(X_702  0.12450980395078659)
(X_703  0.12843137979507446)
(X_704  0.03235294297337532)
(X_705  0.04019607976078987)
(X_706  0.04411764815449715)
(X_707  0.04803921654820442)
(X_708  0.0519607849419117)
(X_709  0.14411765336990356)
(X_710  0.136274516582489)
(X_711  0.136274516582489)
(X_712  0.14411765336990356)
(X_713  0.06372549384832382)
(X_714  0.0833333432674408)
(X_715  0.0990196168422699)
(X_716  0.19901961088180542)
(X_717  0.1872549057006836)
(X_718  0.07941177487373352)
(X_719  0.08725491166114807)
(X_720  0.10294118523597717)
(X_721  0.11078432202339172)
(X_722  0.10294118523597717)
(X_723  0.19117647409439087)
(X_724  0.2029411792755127)
(X_725  0.2029411792755127)
(X_726  0.0990196168422699)
(X_727  0.09509804844856262)
(X_728  0.10098039358854294)
(X_729  0.10490196198225021)
(X_730  0.10882353037595749)
(X_731  0.11274509876966476)
(X_732  0.11666666716337204)
(X_733  0.020588237792253494)
(X_734  0.12450980395078659)
(X_735  0.12450980395078659)
(X_736  0.008823529817163944)
(X_737  0.008823529817163944)
(X_738  0.012745101936161518)
(X_739  0.020588237792253494)
(X_740  0.02450980618596077)
(X_741  0.03235294297337532)
(X_742  0.04019607976078987)
(X_743  0.04019607976078987)
(X_744  0.04019607976078987)
(X_745  0.04019607976078987)
(X_746  0.1401960849761963)
(X_747  0.04019607976078987)
(X_748  0.04019607976078987)
(X_749  0.04411764815449715)
(X_750  0.04019607976078987)
(X_751  0.04019607976078987)
(X_752  0.13235294818878174)
(X_753  0.13235294818878174)
(X_754  0.13235294818878174)
(X_755  0.13235294818878174)
(X_756  0.10490196198225021)
(X_757  0.008823529817163944)
(X_758  0.11274509876966476)
(X_759  0.11666666716337204)
(X_760  0.020588237792253494)
(X_761  0.12450980395078659)
(X_762  0.12450980395078659)
(X_763  0.12450980395078659)
(X_764  0.10490196198225021)
(X_765  0.10882353037595749)
(X_766  0.11274509876966476)
(X_767  0.020588237792253494)
(X_768  0.02450980618596077)
(X_769  0.028431374579668045)
(X_770  0.028431374579668045)
(X_771  0.028431374579668045)
(X_772  0.020588237792253494)
(X_773  0.028431374579668045)
(X_774  0.036274511367082596)
(X_775  0.028431374579668045)
(X_776  0.11666666716337204)
(X_777  0.11274509876966476)
(X_778  0.11666666716337204)
(X_779  0.12450980395078659)
(X_780  0.020588237792253494)
(X_781  0.020588237792253494)
(X_782  0.02450980618596077)
(X_783  0.12450980395078659)
(Y_0 -7.712973594665527)
(Y_1 4.52295446395874)
(Y_2 -0.8433648347854614)
(Y_3 2.768113613128662))