((X_0  0.21078431606292725)
(X_1  0.08725491166114807)
(X_2  0.07941177487373352)
(X_3  0.10294118523597717)
(X_4  0.22647058963775635)
(X_5  0.22254902124404907)
(X_6  0.20686274766921997)
(X_7  0.19901961088180542)
(X_8  0.2186274528503418)
(X_9  0.21470588445663452)
(X_10  0.21078431606292725)
(X_11  0.20686274766921997)
(X_12  0.21470588445663452)
(X_13  0.22647058963775635)
(X_14  0.23823529481887817)
(X_15  0.1460784375667572)
(X_16  0.10294118523597717)
(X_17  0.12254902720451355)
(X_18  0.12254902720451355)
(X_19  0.0990196168422699)
(X_20  0.17941176891326904)
(X_21  0.19117647409439087)
(X_22  0.20686274766921997)
(X_23  0.11078432202339172)
(X_24  0.2186274528503418)
(X_25  0.19117647409439087)
(X_26  0.07941177487373352)
(X_27  0.19901961088180542)
(X_28  0.21078431606292725)
(X_29  0.1872549057006836)
(X_30  0.07549020648002625)
(X_31  0.09117648005485535)
(X_32  0.10294118523597717)
(X_33  0.0990196168422699)
(X_34  0.09117648005485535)
(X_35  0.19509804248809814)
(X_36  0.11078432202339172)
(X_37  0.11078432202339172)
(X_38  0.10294118523597717)
(X_39  0.0990196168422699)
(X_40  0.09509804844856262)
(X_41  0.19117647409439087)
(X_42  0.1872549057006836)
(X_43  0.08725491166114807)
(X_44  0.21470588445663452)
(X_45  0.2186274528503418)
(X_46  0.2029411792755127)
(X_47  0.17941176891326904)
(X_48  0.17549020051956177)
(X_49  0.0833333432674408)
(X_50  0.0833333432674408)
(X_51  0.07156863063573837)
(X_52  0.19509804248809814)
(X_53  0.17549020051956177)
(X_54  0.17941176891326904)
(X_55  0.21078431606292725)
(X_56  0.11078432202339172)
(X_57  0.09509804844856262)
(X_58  0.09117648005485535)
(X_59  0.0990196168422699)
(X_60  0.10294118523597717)
(X_61  0.0990196168422699)
(X_62  0.2029411792755127)
(X_63  0.11862745881080627)
(X_64  0.19117647409439087)
(X_65  0.09509804844856262)
(X_66  0.0990196168422699)
(X_67  0.10294118523597717)
(X_68  0.10294118523597717)
(X_69  0.0990196168422699)
(X_70  0.09509804844856262)
(X_71  0.09117648005485535)
(X_72  0.114705890417099)
(X_73  0.10686275362968445)
(X_74  0.0833333432674408)
(X_75  0.0676470622420311)
(X_76  0.17549020051956177)
(X_77  0.19117647409439087)
(X_78  0.17941176891326904)
(X_79  0.1558823585510254)
(X_80  0.19509804248809814)
(X_81  0.18333333730697632)
(X_82  0.07941177487373352)
(X_83  0.19901961088180542)
(X_84  0.17941176891326904)
(X_85  0.1715686321258545)
(X_86  0.17941176891326904)
(X_87  0.19117647409439087)
(X_88  0.1872549057006836)
(X_89  0.17549020051956177)
(X_90  0.18333333730697632)
(X_91  0.10294118523597717)
(X_92  0.16764706373214722)
(X_93  0.07156863063573837)
(X_94  0.07941177487373352)
(X_95  0.0833333432674408)
(X_96  0.08725491166114807)
(X_97  0.19117647409439087)
(X_98  0.1872549057006836)
(X_99  0.1872549057006836)
(X_100  0.19117647409439087)
(X_101  0.19509804248809814)
(X_102  0.18333333730697632)
(X_103  0.1715686321258545)
(X_104  0.07941177487373352)
(X_105  0.09509804844856262)
(X_106  0.09509804844856262)
(X_107  0.07549020648002625)
(X_108  0.09509804844856262)
(X_109  0.08725491166114807)
(X_110  0.0833333432674408)
(X_111  0.17941176891326904)
(X_112  0.09509804844856262)
(X_113  0.19509804248809814)
(X_114  0.2029411792755127)
(X_115  0.21470588445663452)
(X_116  0.20686274766921997)
(X_117  0.08725491166114807)
(X_118  0.0833333432674408)
(X_119  0.09509804844856262)
(X_120  0.09509804844856262)
(X_121  0.0990196168422699)
(X_122  0.0990196168422699)
(X_123  0.0990196168422699)
(X_124  0.19901961088180542)
(X_125  0.0990196168422699)
(X_126  0.09509804844856262)
(X_127  0.09509804844856262)
(X_128  0.1715686321258545)
(X_129  0.1872549057006836)
(X_130  0.19509804248809814)
(X_131  0.17941176891326904)
(X_132  0.16764706373214722)
(X_133  0.17941176891326904)
(X_134  0.08725491166114807)
(X_135  0.18333333730697632)
(X_136  0.0676470622420311)
(X_137  0.07549020648002625)
(X_138  0.17941176891326904)
(X_139  0.17941176891326904)
(X_140  0.1872549057006836)
(X_141  0.17941176891326904)
(X_142  0.17941176891326904)
(X_143  0.19117647409439087)
(X_144  0.08725491166114807)
(X_145  0.0676470622420311)
(X_146  0.05980392172932625)
(X_147  0.16764706373214722)
(X_148  0.1558823585510254)
(X_149  0.15980392694473267)
(X_150  0.1715686321258545)
(X_151  0.17941176891326904)
(X_152  0.18333333730697632)
(X_153  0.18333333730697632)
(X_154  0.17941176891326904)
(X_155  0.17549020051956177)
(X_156  0.06372549384832382)
(X_157  0.08725491166114807)
(X_158  0.19901961088180542)
(X_159  0.17549020051956177)
(X_160  0.1558823585510254)
(X_161  0.05588235333561897)
(X_162  0.06372549384832382)
(X_163  0.16372549533843994)
(X_164  0.1558823585510254)
(X_165  0.07549020648002625)
(X_166  0.0833333432674408)
(X_167  0.1715686321258545)
(X_168  0.17941176891326904)
(X_169  0.1558823585510254)
(X_170  0.14803922176361084)
(X_171  0.16764706373214722)
(X_172  0.1872549057006836)
(X_173  0.19509804248809814)
(X_174  0.0990196168422699)
(X_175  0.11078432202339172)
(X_176  0.07549020648002625)
(X_177  0.08725491166114807)
(X_178  0.10294118523597717)
(X_179  0.114705890417099)
(X_180  0.20686274766921997)
(X_181  0.18333333730697632)
(X_182  0.15980392694473267)
(X_183  0.04019607976078987)
(X_184  0.1715686321258545)
(X_185  0.18333333730697632)
(X_186  0.1872549057006836)
(X_187  0.1715686321258545)
(X_188  0.16372549533843994)
(X_189  0.0676470622420311)
(X_190  0.06372549384832382)
(X_191  0.1558823585510254)
(X_192  0.15980392694473267)
(X_193  0.17941176891326904)
(X_194  0.18333333730697632)
(X_195  0.05980392172932625)
(X_196  0.22058825194835663)
(X_197  0.28921568393707275)
(X_198  0.27352941036224365)
(X_199  0.20490197837352753)
(X_200  0.25196078419685364)
(X_201  0.2872548997402191)
(X_202  0.31078431010246277)
(X_203  0.33039215207099915)
(X_204  0.3225490152835846)
(X_205  0.3343137204647064)
(X_206  0.3382352888584137)
(X_207  0.32647058367729187)
(X_208  0.2872548997402191)
(X_209  0.22058825194835663)
(X_210  0.15784314274787903)
(X_211  0.114705890417099)
(X_212  0.17549020051956177)
(X_213  0.17941176891326904)
(X_214  0.1715686321258545)
(X_215  0.16764706373214722)
(X_216  0.18333333730697632)
(X_217  0.2029411792755127)
(X_218  0.19117647409439087)
(X_219  0.16764706373214722)
(X_220  0.14411765336990356)
(X_221  0.07156863063573837)
(X_222  0.07941177487373352)
(X_223  0.15980392694473267)
(X_224  0.5068627595901489)
(X_225  0.4480392038822174)
(X_226  0.5166666507720947)
(X_227  0.5323529243469238)
(X_228  0.44019606709480286)
(X_229  0.42450979351997375)
(X_230  0.42843136191368103)
(X_231  0.45196080207824707)
(X_232  0.5362744927406311)
(X_233  0.5245097875595093)
(X_234  0.5127450823783875)
(X_235  0.5127450823783875)
(X_236  0.4205882251262665)
(X_237  0.4205882251262665)
(X_238  0.4009803831577301)
(X_239  0.3813725411891937)
(X_240  0.3029411733150482)
(X_241  0.344117671251297)
(X_242  0.2696078419685364)
(X_243  0.2186274528503418)
(X_244  0.1872549057006836)
(X_245  0.1715686321258545)
(X_246  0.1715686321258545)
(X_247  0.18333333730697632)
(X_248  0.0676470622420311)
(X_249  0.07549020648002625)
(X_250  0.07156863063573837)
(X_251  0.1558823585510254)
(X_252  0.44019606709480286)
(X_253  0.4166666567325592)
(X_254  0.41274508833885193)
(X_255  0.5362744927406311)
(X_256  0.5323529243469238)
(X_257  0.49705883860588074)
(X_258  0.4852941334247589)
(X_259  0.5088235139846802)
(X_260  0.37745097279548645)
(X_261  0.3813725411891937)
(X_262  0.4735294282436371)
(X_263  0.46176472306251526)
(X_264  0.45000001788139343)
(X_265  0.46176472306251526)
(X_266  0.5009803771972656)
(X_267  0.4323529303073883)
(X_268  0.45196080207824707)
(X_269  0.5323529243469238)
(X_270  0.4892157018184662)
(X_271  0.33039215207099915)
(X_272  0.26764705777168274)
(X_273  0.20098040997982025)
(X_274  0.12647059559822083)
(X_275  0.17549020051956177)
(X_276  0.1715686321258545)
(X_277  0.08725491166114807)
(X_278  0.09117648005485535)
(X_279  0.0833333432674408)
(X_280  0.4735294282436371)
(X_281  0.46176472306251526)
(X_282  0.3735294044017792)
(X_283  0.385294109582901)
(X_284  0.3696078360080719)
(X_285  0.43039217591285706)
(X_286  0.4264706075191498)
(X_287  0.45000001788139343)
(X_288  0.3656862676143646)
(X_289  0.3656862676143646)
(X_290  0.3578431308269501)
(X_291  0.34215685725212097)
(X_292  0.33039215207099915)
(X_293  0.3343137204647064)
(X_294  0.3499999940395355)
(X_295  0.3696078360080719)
(X_296  0.4264706075191498)
(X_297  0.36176469922065735)
(X_298  0.39313724637031555)
(X_299  0.4009803831577301)
(X_300  0.5166666507720947)
(X_301  0.5284313559532166)
(X_302  0.5009803771972656)
(X_303  0.3578431308269501)
(X_304  0.14215686917304993)
(X_305  0.12647059559822083)
(X_306  0.08725491166114807)
(X_307  0.04019607976078987)
(X_308  0.5441176295280457)
(X_309  0.5245097875595093)
(X_310  0.520588219165802)
(X_311  0.4362744987010956)
(X_312  0.44411763548851013)
(X_313  0.44019606709480286)
(X_314  0.45588237047195435)
(X_315  0.479411780834198)
(X_316  0.4598039388656616)
(X_317  0.41274508833885193)
(X_318  0.46176472306251526)
(X_319  0.43431374430656433)
(X_320  0.4421568810939789)
(X_321  0.3499999940395355)
(X_322  0.34607842564582825)
(X_323  0.3382352888584137)
(X_324  0.29901960492134094)
(X_325  0.33039215207099915)
(X_326  0.34215685725212097)
(X_327  0.43431374430656433)
(X_328  0.4696078598499298)
(X_329  0.4362744987010956)
(X_330  0.5715686678886414)
(X_331  0.5598039627075195)
(X_332  0.46764707565307617)
(X_333  0.42843136191368103)
(X_334  0.3499999940395355)
(X_335  0.2558823525905609)
(X_336  0.42450979351997375)
(X_337  0.49705883860588074)
(X_338  0.4852941334247589)
(X_339  0.5127450823783875)
(X_340  0.551960825920105)
(X_341  0.5676470994949341)
(X_342  0.46764707565307617)
(X_343  0.4637255072593689)
(X_344  0.6029412150382996)
(X_345  0.5480391979217529)
(X_346  0.3735294044017792)
(X_347  0.3225490152835846)
(X_348  0.3068627417087555)
(X_349  0.3225490152835846)
(X_350  0.3499999940395355)
(X_351  0.46568629145622253)
(X_352  0.4539215862751007)
(X_353  0.46568629145622253)
(X_354  0.4421568810939789)
(X_355  0.40294119715690613)
(X_356  0.29509803652763367)
(X_357  0.4264706075191498)
(X_358  0.4421568810939789)
(X_359  0.43039217591285706)
(X_360  0.46176472306251526)
(X_361  0.39313724637031555)
(X_362  0.4166666567325592)
(X_363  0.4323529303073883)
(X_364  0.4637255072593689)
(X_365  0.4362744987010956)
(X_366  0.42450979351997375)
(X_367  0.5401960611343384)
(X_368  0.5637255311012268)
(X_369  0.5480391979217529)
(X_370  0.3970588147640228)
(X_371  0.3499999940395355)
(X_372  0.34607842564582825)
(X_373  0.3656862676143646)
(X_374  0.37745097279548645)
(X_375  0.4421568810939789)
(X_376  0.3794117867946625)
(X_377  0.23627452552318573)
(X_378  0.2245098203420639)
(X_379  0.23627452552318573)
(X_380  0.3284313976764679)
(X_381  0.3480392396450043)
(X_382  0.3754902184009552)
(X_383  0.2911764681339264)
(X_384  0.2911764681339264)
(X_385  0.28333333134651184)
(X_386  0.2754901945590973)
(X_387  0.27156862616539)
(X_388  0.4107843339443207)
(X_389  0.43039217591285706)
(X_390  0.4382353127002716)
(X_391  0.43039217591285706)
(X_392  0.3911764919757843)
(X_393  0.3754902184009552)
(X_394  0.3637255132198334)
(X_395  0.36764708161354065)
(X_396  0.3715686500072479)
(X_397  0.3480392396450043)
(X_398  0.29313725233078003)
(X_399  0.24215686321258545)
(X_400  0.2656862735748291)
(X_401  0.3127451241016388)
(X_402  0.3715686500072479)
(X_403  0.4068627655506134)
(X_404  0.3911764919757843)
(X_405  0.23235295712947845)
(X_406  0.16568627953529358)
(X_407  0.11862745881080627)
(X_408  0.1617647111415863)
(X_409  0.16568627953529358)
(X_410  0.30098041892051697)
(X_411  0.35196080803871155)
(X_412  0.3558823764324188)
(X_413  0.3245098292827606)
(X_414  0.31666669249534607)
(X_415  0.344117671251297)
(X_416  0.29509803652763367)
(X_417  0.2911764681339264)
(X_418  0.27156862616539)
(X_419  0.24411766231060028)
(X_420  0.11078432202339172)
(X_421  0.11078432202339172)
(X_422  0.114705890417099)
(X_423  0.11862745881080627)
(X_424  0.13823530077934265)
(X_425  0.15000000596046448)
(X_426  0.1460784375667572)
(X_427  0.2343137264251709)
(X_428  0.12647059559822083)
(X_429  0.10294118523597717)
(X_430  0.114705890417099)
(X_431  0.1931372582912445)
(X_432  0.2911764681339264)
(X_433  0.4225490391254425)
(X_434  0.27156862616539)
(X_435  0.20098040997982025)
(X_436  0.1774509847164154)
(X_437  0.24215686321258545)
(X_438  0.25)
(X_439  0.29313725233078003)
(X_440  0.30098041892051697)
(X_441  0.2813725471496582)
(X_442  0.21274511516094208)
(X_443  0.28333333134651184)
(X_444  0.3656862676143646)
(X_445  0.37745097279548645)
(X_446  0.3696078360080719)
(X_447  0.45000001788139343)
(X_448  0.15196079015731812)
(X_449  0.06372549384832382)
(X_450  0.0833333432674408)
(X_451  0.19901961088180542)
(X_452  0.10686275362968445)
(X_453  0.10294118523597717)
(X_454  0.19509804248809814)
(X_455  0.1872549057006836)
(X_456  0.1872549057006836)
(X_457  0.18333333730697632)
(X_458  0.18333333730697632)
(X_459  0.19901961088180542)
(X_460  0.23039215803146362)
(X_461  0.25784313678741455)
(X_462  0.2813725471496582)
(X_463  0.18921568989753723)
(X_464  0.24411766231060028)
(X_465  0.23627452552318573)
(X_466  0.3284313976764679)
(X_467  0.3088235557079315)
(X_468  0.2617647051811218)
(X_469  0.22254902124404907)
(X_470  0.23039215803146362)
(X_471  0.2656862735748291)
(X_472  0.3637255132198334)
(X_473  0.39901962876319885)
(X_474  0.4421568810939789)
(X_475  0.4696078598499298)
(X_476  0.04803921654820442)
(X_477  0.05588235333561897)
(X_478  0.16372549533843994)
(X_479  0.17549020051956177)
(X_480  0.07941177487373352)
(X_481  0.07156863063573837)
(X_482  0.0676470622420311)
(X_483  0.15980392694473267)
(X_484  0.16764706373214722)
(X_485  0.15980392694473267)
(X_486  0.15196079015731812)
(X_487  0.05588235333561897)
(X_488  0.07549020648002625)
(X_489  0.09117648005485535)
(X_490  0.10294118523597717)
(X_491  0.11078432202339172)
(X_492  0.1617647111415863)
(X_493  0.1617647111415863)
(X_494  0.16960784792900085)
(X_495  0.2696078419685364)
(X_496  0.24215686321258545)
(X_497  0.2186274528503418)
(X_498  0.23823529481887817)
(X_499  0.27352941036224365)
(X_500  0.2617647051811218)
(X_501  0.18137255311012268)
(X_502  0.20490197837352753)
(X_503  0.22058825194835663)
(X_504  0.04803921654820442)
(X_505  0.04803921654820442)
(X_506  0.15196079015731812)
(X_507  0.15196079015731812)
(X_508  0.0519607849419117)
(X_509  0.0519607849419117)
(X_510  0.04803921654820442)
(X_511  0.04411764815449715)
(X_512  0.06372549384832382)
(X_513  0.0519607849419117)
(X_514  0.04019607976078987)
(X_515  0.04019607976078987)
(X_516  0.04803921654820442)
(X_517  0.05980392172932625)
(X_518  0.06372549384832382)
(X_519  0.0676470622420311)
(X_520  0.07941177487373352)
(X_521  0.09117648005485535)
(X_522  0.11078432202339172)
(X_523  0.12254902720451355)
(X_524  0.11078432202339172)
(X_525  0.2029411792755127)
(X_526  0.22254902124404907)
(X_527  0.2539215683937073)
(X_528  0.15784314274787903)
(X_529  0.16568627953529358)
(X_530  0.16568627953529358)
(X_531  0.1617647111415863)
(X_532  0.14803922176361084)
(X_533  0.14803922176361084)
(X_534  0.14411765336990356)
(X_535  0.14411765336990356)
(X_536  0.14411765336990356)
(X_537  0.04803921654820442)
(X_538  0.04803921654820442)
(X_539  0.14803922176361084)
(X_540  0.0519607849419117)
(X_541  0.04411764815449715)
(X_542  0.136274516582489)
(X_543  0.04019607976078987)
(X_544  0.0519607849419117)
(X_545  0.06372549384832382)
(X_546  0.0676470622420311)
(X_547  0.0676470622420311)
(X_548  0.14803922176361084)
(X_549  0.16372549533843994)
(X_550  0.07941177487373352)
(X_551  0.1872549057006836)
(X_552  0.17941176891326904)
(X_553  0.17549020051956177)
(X_554  0.1872549057006836)
(X_555  0.10294118523597717)
(X_556  0.2186274528503418)
(X_557  0.21470588445663452)
(X_558  0.20686274766921997)
(X_559  0.19901961088180542)
(X_560  0.136274516582489)
(X_561  0.036274511367082596)
(X_562  0.036274511367082596)
(X_563  0.036274511367082596)
(X_564  0.036274511367082596)
(X_565  0.14411765336990356)
(X_566  0.04803921654820442)
(X_567  0.0519607849419117)
(X_568  0.036274511367082596)
(X_569  0.028431374579668045)
(X_570  0.02450980618596077)
(X_571  0.028431374579668045)
(X_572  0.04019607976078987)
(X_573  0.0519607849419117)
(X_574  0.05588235333561897)
(X_575  0.05588235333561897)
(X_576  0.04411764815449715)
(X_577  0.05980392172932625)
(X_578  0.0676470622420311)
(X_579  0.16764706373214722)
(X_580  0.1558823585510254)
(X_581  0.1558823585510254)
(X_582  0.16372549533843994)
(X_583  0.16764706373214722)
(X_584  0.16372549533843994)
(X_585  0.05980392172932625)
(X_586  0.05588235333561897)
(X_587  0.05588235333561897)
(X_588  0.12058823555707932)
(X_589  0.020588237792253494)
(X_590  0.020588237792253494)
(X_591  0.020588237792253494)
(X_592  0.02450980618596077)
(X_593  0.13235294818878174)
(X_594  0.136274516582489)
(X_595  0.1401960849761963)
(X_596  0.14803922176361084)
(X_597  0.1401960849761963)
(X_598  0.03235294297337532)
(X_599  0.03235294297337532)
(X_600  0.036274511367082596)
(X_601  0.04019607976078987)
(X_602  0.036274511367082596)
(X_603  0.03235294297337532)
(X_604  0.13235294818878174)
(X_605  0.14803922176361084)
(X_606  0.15196079015731812)
(X_607  0.14411765336990356)
(X_608  0.1401960849761963)
(X_609  0.15196079015731812)
(X_610  0.15980392694473267)
(X_611  0.1558823585510254)
(X_612  0.0676470622420311)
(X_613  0.06372549384832382)
(X_614  0.06372549384832382)
(X_615  0.16372549533843994)
(X_616  0.11666666716337204)
(X_617  0.11666666716337204)
(X_618  0.01666666939854622)
(X_619  0.020588237792253494)
(X_620  0.12058823555707932)
(X_621  0.12058823555707932)
(X_622  0.020588237792253494)
(X_623  0.020588237792253494)
(X_624  0.15196079015731812)
(X_625  0.14411765336990356)
(X_626  0.136274516582489)
(X_627  0.136274516582489)
(X_628  0.036274511367082596)
(X_629  0.036274511367082596)
(X_630  0.028431374579668045)
(X_631  0.12450980395078659)
(X_632  0.020588237792253494)
(X_633  0.036274511367082596)
(X_634  0.136274516582489)
(X_635  0.12058823555707932)
(X_636  0.12058823555707932)
(X_637  0.14411765336990356)
(X_638  0.15196079015731812)
(X_639  0.14411765336990356)
(X_640  0.15196079015731812)
(X_641  0.1401960849761963)
(X_642  0.13235294818878174)
(X_643  0.13235294818878174)
(X_644  0.12450980395078659)
(X_645  0.02450980618596077)
(X_646  0.12843137979507446)
(X_647  0.12450980395078659)
(X_648  0.12058823555707932)
(X_649  0.11666666716337204)
(X_650  0.11274509876966476)
(X_651  0.10882353037595749)
(X_652  0.028431374579668045)
(X_653  0.02450980618596077)
(X_654  0.01666666939854622)
(X_655  0.01666666939854622)
(X_656  0.020588237792253494)
(X_657  0.02450980618596077)
(X_658  0.01666666939854622)
(X_659  0.012745101936161518)
(X_660  0.11666666716337204)
(X_661  0.13235294818878174)
(X_662  0.12843137979507446)
(X_663  0.10490196198225021)
(X_664  0.004901961423456669)
(X_665  0.028431374579668045)
(X_666  0.04019607976078987)
(X_667  0.03235294297337532)
(X_668  0.0676470622420311)
(X_669  0.04803921654820442)
(X_670  0.028431374579668045)
(X_671  0.02450980618596077)
(X_672  0.13235294818878174)
(X_673  0.028431374579668045)
(X_674  0.01666666939854622)
(X_675  0.012745101936161518)
(X_676  0.012745101936161518)
(X_677  0.11666666716337204)
(X_678  0.12450980395078659)
(X_679  0.12843137979507446)
(X_680  0.02450980618596077)
(X_681  0.12450980395078659)
(X_682  0.12450980395078659)
(X_683  0.12058823555707932)
(X_684  0.12058823555707932)
(X_685  0.020588237792253494)
(X_686  0.01666666939854622)
(X_687  0.01666666939854622)
(X_688  0.12450980395078659)
(X_689  0.12450980395078659)
(X_690  0.02450980618596077)
(X_691  0.02450980618596077)
(X_692  0.12450980395078659)
(X_693  0.12450980395078659)
(X_694  0.028431374579668045)
(X_695  0.12843137979507446)
(X_696  0.12450980395078659)
(X_697  0.12450980395078659)
(X_698  0.12450980395078659)
(X_699  0.02450980618596077)
(X_700  0.12058823555707932)
(X_701  0.01666666939854622)
(X_702  0.10882353037595749)
(X_703  0.10490196198225021)
(X_704  0.004901961423456669)
(X_705  0.008823529817163944)
(X_706  0.01666666939854622)
(X_707  0.020588237792253494)
(X_708  0.020588237792253494)
(X_709  0.020588237792253494)
(X_710  0.020588237792253494)
(X_711  0.12058823555707932)
(X_712  0.11666666716337204)
(X_713  0.01666666939854622)
(X_714  0.012745101936161518)
(X_715  0.012745101936161518)
(X_716  0.01666666939854622)
(X_717  0.01666666939854622)
(X_718  0.01666666939854622)
(X_719  0.01666666939854622)
(X_720  0.01666666939854622)
(X_721  0.01666666939854622)
(X_722  0.01666666939854622)
(X_723  0.11666666716337204)
(X_724  0.12058823555707932)
(X_725  0.12058823555707932)
(X_726  0.12058823555707932)
(X_727  0.12058823555707932)
(X_728  0.10882353037595749)
(X_729  0.004901961423456669)
(X_730  0.10098039358854294)
(X_731  0.09705882519483566)
(X_732  0.09705882519483566)
(X_733  0.10098039358854294)
(X_734  0.10882353037595749)
(X_735  0.11274509876966476)
(X_736  0.01666666939854622)
(X_737  0.01666666939854622)
(X_738  0.01666666939854622)
(X_739  0.012745101936161518)
(X_740  0.012745101936161518)
(X_741  0.012745101936161518)
(X_742  0.008823529817163944)
(X_743  0.008823529817163944)
(X_744  0.008823529817163944)
(X_745  0.008823529817163944)
(X_746  0.008823529817163944)
(X_747  0.008823529817163944)
(X_748  0.008823529817163944)
(X_749  0.10882353037595749)
(X_750  0.008823529817163944)
(X_751  0.10882353037595749)
(X_752  0.11274509876966476)
(X_753  0.11274509876966476)
(X_754  0.11274509876966476)
(X_755  0.11274509876966476)
(X_756  0.10490196198225021)
(X_757  0.0009803927969187498)
(X_758  -0.0029411755967885256)
(X_759  -0.0029411755967885256)
(X_760  -0.0029411755967885256)
(X_761  0.10098039358854294)
(X_762  0.10490196198225021)
(X_763  0.10882353037595749)
(X_764  0.11274509876966476)
(X_765  0.11274509876966476)
(X_766  0.012745101936161518)
(X_767  0.008823529817163944)
(X_768  0.008823529817163944)
(X_769  0.004901961423456669)
(X_770  0.004901961423456669)
(X_771  0.004901961423456669)
(X_772  0.008823529817163944)
(X_773  0.008823529817163944)
(X_774  0.008823529817163944)
(X_775  0.008823529817163944)
(X_776  0.004901961423456669)
(X_777  0.004901961423456669)
(X_778  0.004901961423456669)
(X_779  0.004901961423456669)
(X_780  0.004901961423456669)
(X_781  0.004901961423456669)
(X_782  0.004901961423456669)
(X_783  0.004901961423456669)
(Y_0 -22.654949188232422)
(Y_1 33.615108489990234)
(Y_2 -16.5186824798584)
(Y_3 7.244674205780029))