((X_0  0.12843137979507446)
(X_1  0.0676470622420311)
(X_2  0.10294118523597717)
(X_3  0.19117647409439087)
(X_4  0.15196079015731812)
(X_5  0.13235294818878174)
(X_6  0.1558823585510254)
(X_7  0.08725491166114807)
(X_8  0.07941177487373352)
(X_9  0.1715686321258545)
(X_10  0.05980392172932625)
(X_11  0.05588235333561897)
(X_12  0.05980392172932625)
(X_13  0.15980392694473267)
(X_14  0.15980392694473267)
(X_15  0.05980392172932625)
(X_16  0.06372549384832382)
(X_17  0.07941177487373352)
(X_18  0.09117648005485535)
(X_19  0.09117648005485535)
(X_20  0.17549020051956177)
(X_21  0.16372549533843994)
(X_22  0.05980392172932625)
(X_23  0.06372549384832382)
(X_24  0.14803922176361084)
(X_25  0.1558823585510254)
(X_26  0.16372549533843994)
(X_27  0.17549020051956177)
(X_28  0.18333333730697632)
(X_29  0.15980392694473267)
(X_30  0.04803921654820442)
(X_31  0.0676470622420311)
(X_32  0.10294118523597717)
(X_33  0.114705890417099)
(X_34  0.08725491166114807)
(X_35  0.1558823585510254)
(X_36  0.04019607976078987)
(X_37  0.04411764815449715)
(X_38  0.0519607849419117)
(X_39  0.0676470622420311)
(X_40  0.07941177487373352)
(X_41  0.18333333730697632)
(X_42  0.18333333730697632)
(X_43  0.07941177487373352)
(X_44  0.1715686321258545)
(X_45  0.0833333432674408)
(X_46  0.09117648005485535)
(X_47  0.09117648005485535)
(X_48  0.07549020648002625)
(X_49  0.05980392172932625)
(X_50  0.05588235333561897)
(X_51  0.05588235333561897)
(X_52  0.16764706373214722)
(X_53  0.16372549533843994)
(X_54  0.16372549533843994)
(X_55  0.16372549533843994)
(X_56  0.1558823585510254)
(X_57  0.05980392172932625)
(X_58  0.06372549384832382)
(X_59  0.07156863063573837)
(X_60  0.07941177487373352)
(X_61  0.07941177487373352)
(X_62  0.07549020648002625)
(X_63  0.07156863063573837)
(X_64  0.16372549533843994)
(X_65  0.07156863063573837)
(X_66  0.07941177487373352)
(X_67  0.0833333432674408)
(X_68  0.0833333432674408)
(X_69  0.07549020648002625)
(X_70  0.0676470622420311)
(X_71  0.05980392172932625)
(X_72  0.07156863063573837)
(X_73  0.07941177487373352)
(X_74  0.08725491166114807)
(X_75  0.08725491166114807)
(X_76  0.17549020051956177)
(X_77  0.16764706373214722)
(X_78  0.16372549533843994)
(X_79  0.16372549533843994)
(X_80  0.17549020051956177)
(X_81  0.1715686321258545)
(X_82  0.05980392172932625)
(X_83  0.15196079015731812)
(X_84  0.14803922176361084)
(X_85  0.1715686321258545)
(X_86  0.09117648005485535)
(X_87  0.18333333730697632)
(X_88  0.1558823585510254)
(X_89  0.14803922176361084)
(X_90  0.16764706373214722)
(X_91  0.19117647409439087)
(X_92  0.136274516582489)
(X_93  0.04019607976078987)
(X_94  0.04411764815449715)
(X_95  0.04803921654820442)
(X_96  0.0519607849419117)
(X_97  0.06372549384832382)
(X_98  0.07549020648002625)
(X_99  0.1872549057006836)
(X_100  0.15980392694473267)
(X_101  0.16372549533843994)
(X_102  0.1715686321258545)
(X_103  0.1715686321258545)
(X_104  0.1715686321258545)
(X_105  0.0676470622420311)
(X_106  0.0676470622420311)
(X_107  0.0676470622420311)
(X_108  0.07156863063573837)
(X_109  0.0676470622420311)
(X_110  0.06372549384832382)
(X_111  0.1558823585510254)
(X_112  0.07549020648002625)
(X_113  0.06372549384832382)
(X_114  0.15196079015731812)
(X_115  0.15980392694473267)
(X_116  0.17549020051956177)
(X_117  0.0833333432674408)
(X_118  0.07549020648002625)
(X_119  0.06372549384832382)
(X_120  0.0676470622420311)
(X_121  0.05980392172932625)
(X_122  0.04411764815449715)
(X_123  0.028431374579668045)
(X_124  0.020588237792253494)
(X_125  0.036274511367082596)
(X_126  0.0676470622420311)
(X_127  0.09509804844856262)
(X_128  0.18333333730697632)
(X_129  0.17941176891326904)
(X_130  0.17549020051956177)
(X_131  0.1715686321258545)
(X_132  0.16764706373214722)
(X_133  0.16372549533843994)
(X_134  0.05588235333561897)
(X_135  0.15196079015731812)
(X_136  0.05588235333561897)
(X_137  0.05980392172932625)
(X_138  0.16372549533843994)
(X_139  0.16764706373214722)
(X_140  0.14411765336990356)
(X_141  0.16764706373214722)
(X_142  0.1872549057006836)
(X_143  0.1872549057006836)
(X_144  0.07156863063573837)
(X_145  0.0519607849419117)
(X_146  0.04803921654820442)
(X_147  0.15196079015731812)
(X_148  0.16764706373214722)
(X_149  0.17549020051956177)
(X_150  0.18333333730697632)
(X_151  0.19509804248809814)
(X_152  0.21470588445663452)
(X_153  0.25784313678741455)
(X_154  0.3127451241016388)
(X_155  0.35196080803871155)
(X_156  0.3892156779766083)
(X_157  0.3735294044017792)
(X_158  0.457843154668808)
(X_159  0.44607844948768616)
(X_160  0.43431374430656433)
(X_161  0.3186274468898773)
(X_162  0.3029411733150482)
(X_163  0.3911764919757843)
(X_164  0.3754902184009552)
(X_165  0.28333333134651184)
(X_166  0.2911764681339264)
(X_167  0.39901962876319885)
(X_168  0.25784313678741455)
(X_169  0.3127451241016388)
(X_170  0.26764705777168274)
(X_171  0.3558823764324188)
(X_172  0.28921568393707275)
(X_173  0.22254902124404907)
(X_174  0.09509804844856262)
(X_175  0.19901961088180542)
(X_176  0.14803922176361084)
(X_177  0.19117647409439087)
(X_178  0.15392157435417175)
(X_179  0.21666668355464935)
(X_180  0.3794117867946625)
(X_181  0.44607844948768616)
(X_182  0.5127450823783875)
(X_183  0.5558823943138123)
(X_184  0.5362744927406311)
(X_185  0.520588219165802)
(X_186  0.49705883860588074)
(X_187  0.4852941334247589)
(X_188  0.4735294282436371)
(X_189  0.36176469922065735)
(X_190  0.34215685725212097)
(X_191  0.43039217591285706)
(X_192  0.40294119715690613)
(X_193  0.4068627655506134)
(X_194  0.3068627417087555)
(X_195  0.3068627417087555)
(X_196  0.42450979351997375)
(X_197  0.5245097875595093)
(X_198  0.5323529243469238)
(X_199  0.44411763548851013)
(X_200  0.520588219165802)
(X_201  0.44607844948768616)
(X_202  0.33235296607017517)
(X_203  0.25)
(X_204  0.33627453446388245)
(X_205  0.3754902184009552)
(X_206  0.3186274468898773)
(X_207  0.34215685725212097)
(X_208  0.34215685725212097)
(X_209  0.3343137204647064)
(X_210  0.3343137204647064)
(X_211  0.3382352888584137)
(X_212  0.48137256503105164)
(X_213  0.46568629145622253)
(X_214  0.34607842564582825)
(X_215  0.4382353127002716)
(X_216  0.3382352888584137)
(X_217  0.43431374430656433)
(X_218  0.41862747073173523)
(X_219  0.4068627655506134)
(X_220  0.40294119715690613)
(X_221  0.29509803652763367)
(X_222  0.28333333134651184)
(X_223  0.3754902184009552)
(X_224  0.4009803831577301)
(X_225  0.40882351994514465)
(X_226  0.4049019515514374)
(X_227  0.49705883860588074)
(X_228  0.4049019515514374)
(X_229  0.41274508833885193)
(X_230  0.39313724637031555)
(X_231  0.3656862676143646)
(X_232  0.3068627417087555)
(X_233  0.26764705777168274)
(X_234  0.2872548997402191)
(X_235  0.26372548937797546)
(X_236  0.27941176295280457)
(X_237  0.3186274468898773)
(X_238  0.29509803652763367)
(X_239  0.3186274468898773)
(X_240  0.31470587849617004)
(X_241  0.3225490152835846)
(X_242  0.4107843339443207)
(X_243  0.38333335518836975)
(X_244  0.3754902184009552)
(X_245  0.387254923582077)
(X_246  0.38333335518836975)
(X_247  0.3598039448261261)
(X_248  0.2754901945590973)
(X_249  0.21666668355464935)
(X_250  0.1617647111415863)
(X_251  0.15000000596046448)
(X_252  0.31078431010246277)
(X_253  0.3225490152835846)
(X_254  0.32647058367729187)
(X_255  0.33039215207099915)
(X_256  0.4539215862751007)
(X_257  0.4735294282436371)
(X_258  0.4735294282436371)
(X_259  0.4539215862751007)
(X_260  0.3029411733150482)
(X_261  0.3068627417087555)
(X_262  0.4892157018184662)
(X_263  0.4166666567325592)
(X_264  0.4637255072593689)
(X_265  0.6303921937942505)
(X_266  0.6343137621879578)
(X_267  0.5813725590705872)
(X_268  0.5107843279838562)
(X_269  0.522549033164978)
(X_270  0.6225490570068359)
(X_271  0.5990196466445923)
(X_272  0.46764707565307617)
(X_273  0.5049019455909729)
(X_274  0.4068627655506134)
(X_275  0.32058826088905334)
(X_276  0.2539215683937073)
(X_277  0.21470588445663452)
(X_278  0.07941177487373352)
(X_279  0.0676470622420311)
(X_280  0.3754902184009552)
(X_281  0.41862747073173523)
(X_282  0.3696078360080719)
(X_283  0.42450979351997375)
(X_284  0.4833333492279053)
(X_285  0.6303921937942505)
(X_286  0.6421568989753723)
(X_287  0.6303921937942505)
(X_288  0.5421568751335144)
(X_289  0.550000011920929)
(X_290  0.6205882430076599)
(X_291  0.6127451062202454)
(X_292  0.6088235378265381)
(X_293  0.6245098114013672)
(X_294  0.593137264251709)
(X_295  0.6245098114013672)
(X_296  0.7362745404243469)
(X_297  0.6284313797950745)
(X_298  0.6127451062202454)
(X_299  0.6088235378265381)
(X_300  0.7127451300621033)
(X_301  0.6970588564872742)
(X_302  0.6343137621879578)
(X_303  0.47156864404678345)
(X_304  0.31078431010246277)
(X_305  0.29509803652763367)
(X_306  0.2872548997402191)
(X_307  0.2872548997402191)
(X_308  0.43039217591285706)
(X_309  0.49705883860588074)
(X_310  0.5872549414634705)
(X_311  0.5735294222831726)
(X_312  0.6441176533699036)
(X_313  0.6911764740943909)
(X_314  0.6950980424880981)
(X_315  0.6754902005195618)
(X_316  0.6284313797950745)
(X_317  0.7127451300621033)
(X_318  0.7558823823928833)
(X_319  0.7323529720306396)
(X_320  0.7245098352432251)
(X_321  0.6401960849761963)
(X_322  0.6049019694328308)
(X_323  0.7284314036369324)
(X_324  0.6401960849761963)
(X_325  0.6127451062202454)
(X_326  0.5774509906768799)
(X_327  0.6539216041564941)
(X_328  0.6500000357627869)
(X_329  0.6460784673690796)
(X_330  0.6264706254005432)
(X_331  0.6068627834320068)
(X_332  0.6343137621879578)
(X_333  0.5107843279838562)
(X_334  0.4990196228027344)
(X_335  0.5029411911964417)
(X_336  0.3892156779766083)
(X_337  0.5401960611343384)
(X_338  0.5990196466445923)
(X_339  0.6421568989753723)
(X_340  0.6813725829124451)
(X_341  0.7049019932746887)
(X_342  0.6009804010391235)
(X_343  0.5852941274642944)
(X_344  0.6539216041564941)
(X_345  0.6029412150382996)
(X_346  0.5107843279838562)
(X_347  0.48725491762161255)
(X_348  0.5147058963775635)
(X_349  0.5696078538894653)
(X_350  0.5539215803146362)
(X_351  0.6813725829124451)
(X_352  0.6225490570068359)
(X_353  0.6343137621879578)
(X_354  0.6421568989753723)
(X_355  0.5382353067398071)
(X_356  0.5068627595901489)
(X_357  0.5598039627075195)
(X_358  0.520588219165802)
(X_359  0.49705883860588074)
(X_360  0.47156864404678345)
(X_361  0.4205882251262665)
(X_362  0.37745097279548645)
(X_363  0.3656862676143646)
(X_364  0.39313724637031555)
(X_365  0.41274508833885193)
(X_366  0.4205882251262665)
(X_367  0.5127450823783875)
(X_368  0.520588219165802)
(X_369  0.4480392038822174)
(X_370  0.46764707565307617)
(X_371  0.47156864404678345)
(X_372  0.4950980544090271)
(X_373  0.41274508833885193)
(X_374  0.3813725411891937)
(X_375  0.43431374430656433)
(X_376  0.3539215624332428)
(X_377  0.40882351994514465)
(X_378  0.3892156779766083)
(X_379  0.41274508833885193)
(X_380  0.39313724637031555)
(X_381  0.5166666507720947)
(X_382  0.551960825920105)
(X_383  0.46764707565307617)
(X_384  0.4362744987010956)
(X_385  0.385294109582901)
(X_386  0.3578431308269501)
(X_387  0.3539215624332428)
(X_388  0.43039217591285706)
(X_389  0.3715686500072479)
(X_390  0.3245098292827606)
(X_391  0.32058826088905334)
(X_392  0.4225490391254425)
(X_393  0.4382353127002716)
(X_394  0.4382353127002716)
(X_395  0.4225490391254425)
(X_396  0.4264706075191498)
(X_397  0.46176472306251526)
(X_398  0.39313724637031555)
(X_399  0.40882351994514465)
(X_400  0.36176469922065735)
(X_401  0.29509803652763367)
(X_402  0.3794117867946625)
(X_403  0.33627453446388245)
(X_404  0.35196080803871155)
(X_405  0.4068627655506134)
(X_406  0.29509803652763367)
(X_407  0.32647058367729187)
(X_408  0.3343137204647064)
(X_409  0.3225490152835846)
(X_410  0.41470590233802795)
(X_411  0.4107843339443207)
(X_412  0.3794117867946625)
(X_413  0.33235296607017517)
(X_414  0.3088235557079315)
(X_415  0.3127451241016388)
(X_416  0.27156862616539)
(X_417  0.33627453446388245)
(X_418  0.21274511516094208)
(X_419  0.2245098203420639)
(X_420  0.23627452552318573)
(X_421  0.26372548937797546)
(X_422  0.27941176295280457)
(X_423  0.2754901945590973)
(X_424  0.2754901945590973)
(X_425  0.29509803652763367)
(X_426  0.31078431010246277)
(X_427  0.41470590233802795)
(X_428  0.3950980603694916)
(X_429  0.24803923070430756)
(X_430  0.25196078419685364)
(X_431  0.20490197837352753)
(X_432  0.20490197837352753)
(X_433  0.3401961028575897)
(X_434  0.22843138873577118)
(X_435  0.26372548937797546)
(X_436  0.36764708161354065)
(X_437  0.35196080803871155)
(X_438  0.3598039448261261)
(X_439  0.38333335518836975)
(X_440  0.38333335518836975)
(X_441  0.3480392396450043)
(X_442  0.21274511516094208)
(X_443  0.20490197837352753)
(X_444  0.2088235467672348)
(X_445  0.19705882668495178)
(X_446  0.1931372582912445)
(X_447  0.30098041892051697)
(X_448  0.23823529481887817)
(X_449  0.25)
(X_450  0.2696078419685364)
(X_451  0.2813725471496582)
(X_452  0.28921568393707275)
(X_453  0.2970588207244873)
(X_454  0.3088235557079315)
(X_455  0.32058826088905334)
(X_456  0.3127451241016388)
(X_457  0.29313725233078003)
(X_458  0.2774509787559509)
(X_459  0.2852941155433655)
(X_460  0.3127451241016388)
(X_461  0.33627453446388245)
(X_462  0.3401961028575897)
(X_463  0.23627452552318573)
(X_464  0.22058825194835663)
(X_465  0.2245098203420639)
(X_466  0.3245098292827606)
(X_467  0.32058826088905334)
(X_468  0.3088235557079315)
(X_469  0.28921568393707275)
(X_470  0.2696078419685364)
(X_471  0.25784313678741455)
(X_472  0.21470588445663452)
(X_473  0.22254902124404907)
(X_474  0.2343137264251709)
(X_475  0.24215686321258545)
(X_476  0.0833333432674408)
(X_477  0.10294118523597717)
(X_478  0.22647058963775635)
(X_479  0.2539215683937073)
(X_480  0.1774509847164154)
(X_481  0.19705882668495178)
(X_482  0.22058825194835663)
(X_483  0.23235295712947845)
(X_484  0.3088235557079315)
(X_485  0.2852941155433655)
(X_486  0.1617647111415863)
(X_487  0.15392157435417175)
(X_488  0.1617647111415863)
(X_489  0.16960784792900085)
(X_490  0.16568627953529358)
(X_491  0.15784314274787903)
(X_492  0.1303921639919281)
(X_493  0.13431373238563538)
(X_494  0.23823529481887817)
(X_495  0.23823529481887817)
(X_496  0.23039215803146362)
(X_497  0.2186274528503418)
(X_498  0.2029411792755127)
(X_499  0.09509804844856262)
(X_500  0.17549020051956177)
(X_501  0.0833333432674408)
(X_502  0.09117648005485535)
(X_503  0.0990196168422699)
(X_504  0.07941177487373352)
(X_505  0.09509804844856262)
(X_506  0.21078431606292725)
(X_507  0.22647058963775635)
(X_508  0.13431373238563538)
(X_509  0.24607843160629272)
(X_510  0.25784313678741455)
(X_511  0.2656862735748291)
(X_512  0.16568627953529358)
(X_513  0.1460784375667572)
(X_514  0.11862745881080627)
(X_515  0.10294118523597717)
(X_516  0.0990196168422699)
(X_517  0.0990196168422699)
(X_518  0.08725491166114807)
(X_519  0.07549020648002625)
(X_520  0.0676470622420311)
(X_521  0.07549020648002625)
(X_522  0.0833333432674408)
(X_523  0.08725491166114807)
(X_524  0.0833333432674408)
(X_525  0.17941176891326904)
(X_526  0.16764706373214722)
(X_527  0.16372549533843994)
(X_528  0.04019607976078987)
(X_529  0.04411764815449715)
(X_530  0.0519607849419117)
(X_531  0.05980392172932625)
(X_532  0.17941176891326904)
(X_533  0.1872549057006836)
(X_534  0.19509804248809814)
(X_535  0.19117647409439087)
(X_536  0.08725491166114807)
(X_537  0.0833333432674408)
(X_538  0.0833333432674408)
(X_539  0.08725491166114807)
(X_540  0.0990196168422699)
(X_541  0.0833333432674408)
(X_542  0.06372549384832382)
(X_543  0.05588235333561897)
(X_544  0.05588235333561897)
(X_545  0.05588235333561897)
(X_546  0.0519607849419117)
(X_547  0.04803921654820442)
(X_548  0.1558823585510254)
(X_549  0.15980392694473267)
(X_550  0.16764706373214722)
(X_551  0.1715686321258545)
(X_552  0.1715686321258545)
(X_553  0.16764706373214722)
(X_554  0.15980392694473267)
(X_555  0.05588235333561897)
(X_556  0.12843137979507446)
(X_557  0.03235294297337532)
(X_558  0.1401960849761963)
(X_559  0.14411765336990356)
(X_560  0.12450980395078659)
(X_561  0.036274511367082596)
(X_562  0.14803922176361084)
(X_563  0.1558823585510254)
(X_564  0.1558823585510254)
(X_565  0.15980392694473267)
(X_566  0.0676470622420311)
(X_567  0.07549020648002625)
(X_568  0.14411765336990356)
(X_569  0.1401960849761963)
(X_570  0.13235294818878174)
(X_571  0.03235294297337532)
(X_572  0.036274511367082596)
(X_573  0.04019607976078987)
(X_574  0.04411764815449715)
(X_575  0.04411764815449715)
(X_576  0.04019607976078987)
(X_577  0.04411764815449715)
(X_578  0.04803921654820442)
(X_579  0.14803922176361084)
(X_580  0.04803921654820442)
(X_581  0.04411764815449715)
(X_582  0.136274516582489)
(X_583  0.13235294818878174)
(X_584  0.13235294818878174)
(X_585  0.03235294297337532)
(X_586  0.036274511367082596)
(X_587  0.036274511367082596)
(X_588  0.10098039358854294)
(X_589  0.012745101936161518)
(X_590  0.02450980618596077)
(X_591  0.03235294297337532)
(X_592  0.03235294297337532)
(X_593  0.136274516582489)
(X_594  0.14411765336990356)
(X_595  0.15196079015731812)
(X_596  0.12843137979507446)
(X_597  0.12843137979507446)
(X_598  0.02450980618596077)
(X_599  0.02450980618596077)
(X_600  0.028431374579668045)
(X_601  0.028431374579668045)
(X_602  0.03235294297337532)
(X_603  0.036274511367082596)
(X_604  0.13235294818878174)
(X_605  0.13235294818878174)
(X_606  0.13235294818878174)
(X_607  0.13235294818878174)
(X_608  0.12843137979507446)
(X_609  0.12450980395078659)
(X_610  0.12058823555707932)
(X_611  0.11666666716337204)
(X_612  0.02450980618596077)
(X_613  0.02450980618596077)
(X_614  0.02450980618596077)
(X_615  0.12450980395078659)
(X_616  0.10882353037595749)
(X_617  0.11666666716337204)
(X_618  0.02450980618596077)
(X_619  0.02450980618596077)
(X_620  0.01666666939854622)
(X_621  0.11274509876966476)
(X_622  0.11274509876966476)
(X_623  0.11666666716337204)
(X_624  0.12058823555707932)
(X_625  0.12058823555707932)
(X_626  0.12450980395078659)
(X_627  0.12058823555707932)
(X_628  0.020588237792253494)
(X_629  0.020588237792253494)
(X_630  0.02450980618596077)
(X_631  0.028431374579668045)
(X_632  0.12450980395078659)
(X_633  0.12450980395078659)
(X_634  0.12450980395078659)
(X_635  0.12450980395078659)
(X_636  0.12450980395078659)
(X_637  0.12058823555707932)
(X_638  0.12058823555707932)
(X_639  0.12058823555707932)
(X_640  0.12058823555707932)
(X_641  0.11666666716337204)
(X_642  0.11666666716337204)
(X_643  0.11274509876966476)
(X_644  0.09313725680112839)
(X_645  0.0009803927969187498)
(X_646  0.11274509876966476)
(X_647  0.11666666716337204)
(X_648  0.11274509876966476)
(X_649  0.11274509876966476)
(X_650  0.11666666716337204)
(X_651  0.02450980618596077)
(X_652  0.10490196198225021)
(X_653  0.012745101936161518)
(X_654  0.01666666939854622)
(X_655  0.01666666939854622)
(X_656  0.01666666939854622)
(X_657  0.01666666939854622)
(X_658  0.020588237792253494)
(X_659  0.028431374579668045)
(X_660  0.10882353037595749)
(X_661  0.10882353037595749)
(X_662  0.11274509876966476)
(X_663  0.11274509876966476)
(X_664  0.012745101936161518)
(X_665  0.01666666939854622)
(X_666  0.01666666939854622)
(X_667  0.01666666939854622)
(X_668  0.01666666939854622)
(X_669  0.01666666939854622)
(X_670  0.012745101936161518)
(X_671  0.008823529817163944)
(X_672  0.10490196198225021)
(X_673  0.012745101936161518)
(X_674  0.01666666939854622)
(X_675  0.01666666939854622)
(X_676  0.012745101936161518)
(X_677  0.11274509876966476)
(X_678  0.11666666716337204)
(X_679  0.12450980395078659)
(X_680  0.01666666939854622)
(X_681  0.11666666716337204)
(X_682  0.01666666939854622)
(X_683  0.11666666716337204)
(X_684  0.11666666716337204)
(X_685  0.11666666716337204)
(X_686  0.01666666939854622)
(X_687  0.01666666939854622)
(X_688  0.12058823555707932)
(X_689  0.11666666716337204)
(X_690  0.10882353037595749)
(X_691  0.10882353037595749)
(X_692  0.11274509876966476)
(X_693  0.11274509876966476)
(X_694  0.008823529817163944)
(X_695  0.10098039358854294)
(X_696  0.10490196198225021)
(X_697  0.10490196198225021)
(X_698  0.10882353037595749)
(X_699  0.008823529817163944)
(X_700  0.08529412001371384)
(X_701  -0.010784312151372433)
(X_702  -0.0029411755967885256)
(X_703  -0.0029411755967885256)
(X_704  -0.010784312151372433)
(X_705  -0.010784312151372433)
(X_706  -0.0029411755967885256)
(X_707  0.0009803927969187498)
(X_708  -0.006862743757665157)
(X_709  -0.006862743757665157)
(X_710  -0.006862743757665157)
(X_711  -0.006862743757665157)
(X_712  -0.006862743757665157)
(X_713  -0.006862743757665157)
(X_714  -0.006862743757665157)
(X_715  -0.006862743757665157)
(X_716  0.10098039358854294)
(X_717  0.0009803927969187498)
(X_718  0.004901961423456669)
(X_719  0.008823529817163944)
(X_720  0.012745101936161518)
(X_721  0.008823529817163944)
(X_722  0.10490196198225021)
(X_723  0.09705882519483566)
(X_724  0.10098039358854294)
(X_725  0.10490196198225021)
(X_726  0.10490196198225021)
(X_727  0.10490196198225021)
(X_728  0.09705882519483566)
(X_729  0.004901961423456669)
(X_730  0.10882353037595749)
(X_731  0.10882353037595749)
(X_732  0.10490196198225021)
(X_733  0.10098039358854294)
(X_734  0.10882353037595749)
(X_735  0.11274509876966476)
(X_736  0.10490196198225021)
(X_737  0.10490196198225021)
(X_738  0.004901961423456669)
(X_739  0.004901961423456669)
(X_740  0.004901961423456669)
(X_741  0.10490196198225021)
(X_742  0.004901961423456669)
(X_743  0.10490196198225021)
(X_744  -0.026470588520169258)
(X_745  -0.018627449870109558)
(X_746  -0.006862743757665157)
(X_747  0.0009803927969187498)
(X_748  0.10490196198225021)
(X_749  0.10098039358854294)
(X_750  0.09313725680112839)
(X_751  0.08921568840742111)
(X_752  0.09705882519483566)
(X_753  0.09705882519483566)
(X_754  0.09705882519483566)
(X_755  0.09705882519483566)
(X_756  0.3245098292827606)
(X_757  0.23235295712947845)
(X_758  0.33627453446388245)
(X_759  0.33627453446388245)
(X_760  0.23235295712947845)
(X_761  0.33235296607017517)
(X_762  0.33627453446388245)
(X_763  0.344117671251297)
(X_764  0.23627452552318573)
(X_765  0.23627452552318573)
(X_766  0.23627452552318573)
(X_767  0.23627452552318573)
(X_768  0.23627452552318573)
(X_769  0.23627452552318573)
(X_770  0.23627452552318573)
(X_771  0.23627452552318573)
(X_772  0.22843138873577118)
(X_773  0.24411766231060028)
(X_774  0.26764705777168274)
(X_775  0.28333333134651184)
(X_776  0.2872548997402191)
(X_777  0.27941176295280457)
(X_778  0.27156862616539)
(X_779  0.26764705777168274)
(X_780  0.2754901945590973)
(X_781  0.2754901945590973)
(X_782  0.2754901945590973)
(X_783  0.27941176295280457)
(Y_0 -32.146793365478516)
(Y_1 47.33386993408203)
(Y_2 -26.4987735748291)
(Y_3 13.87545394897461))