((X_0  0.1401960849761963)
(X_1  0.0009803927969187498)
(X_2  -0.010784312151372433)
(X_3  0.020588237792253494)
(X_4  0.136274516582489)
(X_5  0.12450980395078659)
(X_6  0.12450980395078659)
(X_7  0.04803921654820442)
(X_8  0.136274516582489)
(X_9  0.14411765336990356)
(X_10  0.136274516582489)
(X_11  0.12058823555707932)
(X_12  0.13235294818878174)
(X_13  0.15980392694473267)
(X_14  0.16372549533843994)
(X_15  0.04019607976078987)
(X_16  0.06372549384832382)
(X_17  0.0519607849419117)
(X_18  0.04803921654820442)
(X_19  0.05588235333561897)
(X_20  0.15980392694473267)
(X_21  0.14803922176361084)
(X_22  0.136274516582489)
(X_23  0.03235294297337532)
(X_24  0.16372549533843994)
(X_25  0.15980392694473267)
(X_26  0.15196079015731812)
(X_27  0.1401960849761963)
(X_28  0.12058823555707932)
(X_29  0.11666666716337204)
(X_30  0.02450980618596077)
(X_31  0.04803921654820442)
(X_32  0.05588235333561897)
(X_33  0.04803921654820442)
(X_34  0.04411764815449715)
(X_35  0.0519607849419117)
(X_36  0.06372549384832382)
(X_37  0.06372549384832382)
(X_38  0.0519607849419117)
(X_39  0.04411764815449715)
(X_40  0.04803921654820442)
(X_41  0.0519607849419117)
(X_42  0.04019607976078987)
(X_43  0.020588237792253494)
(X_44  0.05980392172932625)
(X_45  0.04411764815449715)
(X_46  0.028431374579668045)
(X_47  0.028431374579668045)
(X_48  0.036274511367082596)
(X_49  0.0519607849419117)
(X_50  0.07549020648002625)
(X_51  0.09117648005485535)
(X_52  0.136274516582489)
(X_53  0.136274516582489)
(X_54  0.136274516582489)
(X_55  0.136274516582489)
(X_56  0.11666666716337204)
(X_57  0.03235294297337532)
(X_58  0.03235294297337532)
(X_59  0.020588237792253494)
(X_60  0.008823529817163944)
(X_61  0.012745101936161518)
(X_62  0.012745101936161518)
(X_63  0.004901961423456669)
(X_64  0.14411765336990356)
(X_65  0.02450980618596077)
(X_66  0.020588237792253494)
(X_67  0.036274511367082596)
(X_68  0.0519607849419117)
(X_69  0.0519607849419117)
(X_70  0.0519607849419117)
(X_71  0.0519607849419117)
(X_72  0.04411764815449715)
(X_73  0.04803921654820442)
(X_74  0.0519607849419117)
(X_75  0.04411764815449715)
(X_76  0.13235294818878174)
(X_77  0.12450980395078659)
(X_78  0.12058823555707932)
(X_79  0.11666666716337204)
(X_80  0.136274516582489)
(X_81  0.1401960849761963)
(X_82  0.14411765336990356)
(X_83  0.15196079015731812)
(X_84  0.10490196198225021)
(X_85  0.12450980395078659)
(X_86  0.020588237792253494)
(X_87  0.10490196198225021)
(X_88  0.13235294818878174)
(X_89  0.1872549057006836)
(X_90  0.21078431606292725)
(X_91  0.19901961088180542)
(X_92  0.19901961088180542)
(X_93  0.05980392172932625)
(X_94  0.028431374579668045)
(X_95  0.028431374579668045)
(X_96  0.12058823555707932)
(X_97  0.10882353037595749)
(X_98  0.11666666716337204)
(X_99  0.136274516582489)
(X_100  0.12450980395078659)
(X_101  0.14803922176361084)
(X_102  0.16764706373214722)
(X_103  0.16372549533843994)
(X_104  0.1558823585510254)
(X_105  0.05588235333561897)
(X_106  0.05588235333561897)
(X_107  0.04803921654820442)
(X_108  0.02450980618596077)
(X_109  0.028431374579668045)
(X_110  0.03235294297337532)
(X_111  0.036274511367082596)
(X_112  0.028431374579668045)
(X_113  0.1558823585510254)
(X_114  0.17941176891326904)
(X_115  0.11078432202339172)
(X_116  0.18921568989753723)
(X_117  0.2754901945590973)
(X_118  0.3029411733150482)
(X_119  0.28333333134651184)
(X_120  0.29901960492134094)
(X_121  0.2558823525905609)
(X_122  0.19705882668495178)
(X_123  0.14215686917304993)
(X_124  0.19117647409439087)
(X_125  0.05980392172932625)
(X_126  0.0676470622420311)
(X_127  0.08725491166114807)
(X_128  0.23039215803146362)
(X_129  0.2343137264251709)
(X_130  0.21078431606292725)
(X_131  0.16764706373214722)
(X_132  0.136274516582489)
(X_133  0.13235294818878174)
(X_134  0.02450980618596077)
(X_135  0.10882353037595749)
(X_136  0.14803922176361084)
(X_137  0.14803922176361084)
(X_138  0.14803922176361084)
(X_139  0.14803922176361084)
(X_140  0.2343137264251709)
(X_141  0.25784313678741455)
(X_142  0.28921568393707275)
(X_143  0.3284313976764679)
(X_144  0.27156862616539)
(X_145  0.29509803652763367)
(X_146  0.27941176295280457)
(X_147  0.3480392396450043)
(X_148  0.387254923582077)
(X_149  0.39901962876319885)
(X_150  0.2754901945590973)
(X_151  0.31666669249534607)
(X_152  0.2696078419685364)
(X_153  0.2617647051811218)
(X_154  0.2852941155433655)
(X_155  0.30490198731422424)
(X_156  0.3186274468898773)
(X_157  0.3343137204647064)
(X_158  0.4264706075191498)
(X_159  0.387254923582077)
(X_160  0.35196080803871155)
(X_161  0.21666668355464935)
(X_162  0.15392157435417175)
(X_163  0.19117647409439087)
(X_164  0.14411765336990356)
(X_165  0.04411764815449715)
(X_166  0.04019607976078987)
(X_167  0.136274516582489)
(X_168  0.29313725233078003)
(X_169  0.30098041892051697)
(X_170  0.22058825194835663)
(X_171  0.33235296607017517)
(X_172  0.31666669249534607)
(X_173  0.2813725471496582)
(X_174  0.1617647111415863)
(X_175  0.16568627953529358)
(X_176  0.2774509787559509)
(X_177  0.26372548937797546)
(X_178  0.31078431010246277)
(X_179  0.26764705777168274)
(X_180  0.3245098292827606)
(X_181  0.3401961028575897)
(X_182  0.3637255132198334)
(X_183  0.2598039209842682)
(X_184  0.3284313976764679)
(X_185  0.3558823764324188)
(X_186  0.3715686500072479)
(X_187  0.36764708161354065)
(X_188  0.387254923582077)
(X_189  0.29901960492134094)
(X_190  0.25196078419685364)
(X_191  0.2852941155433655)
(X_192  0.19509804248809814)
(X_193  0.1872549057006836)
(X_194  0.1715686321258545)
(X_195  0.05980392172932625)
(X_196  0.13823530077934265)
(X_197  0.24607843160629272)
(X_198  0.2696078419685364)
(X_199  0.18529412150382996)
(X_200  0.1617647111415863)
(X_201  0.24215686321258545)
(X_202  0.2852941155433655)
(X_203  0.3558823764324188)
(X_204  0.33039215207099915)
(X_205  0.4598039388656616)
(X_206  0.5303921699523926)
(X_207  0.46764707565307617)
(X_208  0.39313724637031555)
(X_209  0.37745097279548645)
(X_210  0.36176469922065735)
(X_211  0.3225490152835846)
(X_212  0.520588219165802)
(X_213  0.4852941334247589)
(X_214  0.40294119715690613)
(X_215  0.33627453446388245)
(X_216  0.3480392396450043)
(X_217  0.40294119715690613)
(X_218  0.41862747073173523)
(X_219  0.387254923582077)
(X_220  0.4107843339443207)
(X_221  0.29509803652763367)
(X_222  0.27156862616539)
(X_223  0.3480392396450043)
(X_224  0.10294118523597717)
(X_225  0.12647059559822083)
(X_226  0.33235296607017517)
(X_227  0.4225490391254425)
(X_228  0.3950980603694916)
(X_229  0.2754901945590973)
(X_230  0.34607842564582825)
(X_231  0.42450979351997375)
(X_232  0.6343137621879578)
(X_233  0.5617647171020508)
(X_234  0.6088235378265381)
(X_235  0.6558823585510254)
(X_236  0.7029411792755127)
(X_237  0.7186274528503418)
(X_238  0.7872549295425415)
(X_239  0.6401960849761963)
(X_240  0.6009804010391235)
(X_241  0.665686309337616)
(X_242  0.5441176295280457)
(X_243  0.38333335518836975)
(X_244  0.30490198731422424)
(X_245  0.3284313976764679)
(X_246  0.3558823764324188)
(X_247  0.25196078419685364)
(X_248  0.27941176295280457)
(X_249  0.27156862616539)
(X_250  0.26372548937797546)
(X_251  0.3558823764324188)
(X_252  0.15784314274787903)
(X_253  0.16960784792900085)
(X_254  0.2245098203420639)
(X_255  0.29509803652763367)
(X_256  0.41470590233802795)
(X_257  0.3911764919757843)
(X_258  0.4264706075191498)
(X_259  0.5009803771972656)
(X_260  0.44411763548851013)
(X_261  0.47156864404678345)
(X_262  0.6029412150382996)
(X_263  0.5303921699523926)
(X_264  0.665686309337616)
(X_265  0.6852941513061523)
(X_266  0.6735294461250305)
(X_267  0.6500000357627869)
(X_268  0.5068627595901489)
(X_269  0.48725491762161255)
(X_270  0.551960825920105)
(X_271  0.3813725411891937)
(X_272  0.2911764681339264)
(X_273  0.21666668355464935)
(X_274  0.20098040997982025)
(X_275  0.22058825194835663)
(X_276  0.20098040997982025)
(X_277  0.19705882668495178)
(X_278  0.19705882668495178)
(X_279  0.1931372582912445)
(X_280  0.387254923582077)
(X_281  0.387254923582077)
(X_282  0.2558823525905609)
(X_283  0.27156862616539)
(X_284  0.3186274468898773)
(X_285  0.3715686500072479)
(X_286  0.3401961028575897)
(X_287  0.4107843339443207)
(X_288  0.3539215624332428)
(X_289  0.3656862676143646)
(X_290  0.3735294044017792)
(X_291  0.48137256503105164)
(X_292  0.40882351994514465)
(X_293  0.44019606709480286)
(X_294  0.44411763548851013)
(X_295  0.4323529303073883)
(X_296  0.46176472306251526)
(X_297  0.3186274468898773)
(X_298  0.3382352888584137)
(X_299  0.5049019455909729)
(X_300  0.5049019455909729)
(X_301  0.4225490391254425)
(X_302  0.387254923582077)
(X_303  0.31470587849617004)
(X_304  0.28333333134651184)
(X_305  0.2872548997402191)
(X_306  0.29509803652763367)
(X_307  0.3029411733150482)
(X_308  0.40882351994514465)
(X_309  0.5166666507720947)
(X_310  0.43431374430656433)
(X_311  0.31470587849617004)
(X_312  0.3696078360080719)
(X_313  0.31078431010246277)
(X_314  0.25196078419685364)
(X_315  0.33039215207099915)
(X_316  0.385294109582901)
(X_317  0.4735294282436371)
(X_318  0.46176472306251526)
(X_319  0.46176472306251526)
(X_320  0.3970588147640228)
(X_321  0.4323529303073883)
(X_322  0.4323529303073883)
(X_323  0.40882351994514465)
(X_324  0.26372548937797546)
(X_325  0.16960784792900085)
(X_326  0.25784313678741455)
(X_327  0.387254923582077)
(X_328  0.5127450823783875)
(X_329  0.5362744927406311)
(X_330  0.5127450823783875)
(X_331  0.5088235139846802)
(X_332  0.4166666567325592)
(X_333  0.42843136191368103)
(X_334  0.44411763548851013)
(X_335  0.4598039388656616)
(X_336  0.3068627417087555)
(X_337  0.43431374430656433)
(X_338  0.36764708161354065)
(X_339  0.3480392396450043)
(X_340  0.41470590233802795)
(X_341  0.3794117867946625)
(X_342  0.24411766231060028)
(X_343  0.3343137204647064)
(X_344  0.44607844948768616)
(X_345  0.4225490391254425)
(X_346  0.2911764681339264)
(X_347  0.29901960492134094)
(X_348  0.34607842564582825)
(X_349  0.3813725411891937)
(X_350  0.36176469922065735)
(X_351  0.41862747073173523)
(X_352  0.3245098292827606)
(X_353  0.25)
(X_354  0.20686274766921997)
(X_355  0.2656862735748291)
(X_356  0.3950980603694916)
(X_357  0.4852941334247589)
(X_358  0.4892157018184662)
(X_359  0.4539215862751007)
(X_360  0.46568629145622253)
(X_361  0.48137256503105164)
(X_362  0.4009803831577301)
(X_363  0.4166666567325592)
(X_364  0.15392157435417175)
(X_365  0.17352941632270813)
(X_366  0.14215686917304993)
(X_367  0.2343137264251709)
(X_368  0.2774509787559509)
(X_369  0.2617647051811218)
(X_370  0.15784314274787903)
(X_371  0.2245098203420639)
(X_372  0.22058825194835663)
(X_373  0.19705882668495178)
(X_374  0.17352941632270813)
(X_375  0.2774509787559509)
(X_376  0.32058826088905334)
(X_377  0.24803923070430756)
(X_378  0.2245098203420639)
(X_379  0.1774509847164154)
(X_380  0.2656862735748291)
(X_381  0.2774509787559509)
(X_382  0.2617647051811218)
(X_383  0.23823529481887817)
(X_384  0.1774509847164154)
(X_385  0.25196078419685364)
(X_386  0.27156862616539)
(X_387  0.24411766231060028)
(X_388  0.32058826088905334)
(X_389  0.3284313976764679)
(X_390  0.3480392396450043)
(X_391  0.26372548937797546)
(X_392  0.23039215803146362)
(X_393  0.2186274528503418)
(X_394  0.2029411792755127)
(X_395  0.2029411792755127)
(X_396  0.21078431606292725)
(X_397  0.2029411792755127)
(X_398  0.2029411792755127)
(X_399  0.21470588445663452)
(X_400  0.24215686321258545)
(X_401  0.2343137264251709)
(X_402  0.22254902124404907)
(X_403  0.2186274528503418)
(X_404  0.2343137264251709)
(X_405  0.15392157435417175)
(X_406  0.1460784375667572)
(X_407  0.11862745881080627)
(X_408  0.08725491166114807)
(X_409  0.1303921639919281)
(X_410  0.24215686321258545)
(X_411  0.21078431606292725)
(X_412  0.20686274766921997)
(X_413  0.23823529481887817)
(X_414  0.24607843160629272)
(X_415  0.22254902124404907)
(X_416  0.10294118523597717)
(X_417  0.11078432202339172)
(X_418  0.12254902720451355)
(X_419  0.13431373238563538)
(X_420  0.07549020648002625)
(X_421  0.03235294297337532)
(X_422  0.028431374579668045)
(X_423  0.04019607976078987)
(X_424  0.03235294297337532)
(X_425  0.036274511367082596)
(X_426  0.036274511367082596)
(X_427  0.10882353037595749)
(X_428  0.136274516582489)
(X_429  0.0519607849419117)
(X_430  0.0519607849419117)
(X_431  0.03235294297337532)
(X_432  0.02450980618596077)
(X_433  0.1401960849761963)
(X_434  0.0519607849419117)
(X_435  0.0519607849419117)
(X_436  0.04803921654820442)
(X_437  0.1558823585510254)
(X_438  0.15196079015731812)
(X_439  0.14411765336990356)
(X_440  0.1558823585510254)
(X_441  0.15980392694473267)
(X_442  0.03235294297337532)
(X_443  -0.0029411755967885256)
(X_444  0.028431374579668045)
(X_445  0.03235294297337532)
(X_446  0.04019607976078987)
(X_447  0.14803922176361084)
(X_448  0.11666666716337204)
(X_449  0.01666666939854622)
(X_450  0.11666666716337204)
(X_451  0.11666666716337204)
(X_452  0.11666666716337204)
(X_453  0.01666666939854622)
(X_454  0.11666666716337204)
(X_455  0.11666666716337204)
(X_456  0.12058823555707932)
(X_457  0.12058823555707932)
(X_458  0.12058823555707932)
(X_459  0.020588237792253494)
(X_460  0.020588237792253494)
(X_461  0.020588237792253494)
(X_462  0.020588237792253494)
(X_463  0.020588237792253494)
(X_464  0.01666666939854622)
(X_465  0.01666666939854622)
(X_466  0.01666666939854622)
(X_467  0.12058823555707932)
(X_468  0.12058823555707932)
(X_469  0.12450980395078659)
(X_470  0.12450980395078659)
(X_471  0.12843137979507446)
(X_472  0.13235294818878174)
(X_473  0.13235294818878174)
(X_474  0.13235294818878174)
(X_475  0.13235294818878174)
(X_476  0.01666666939854622)
(X_477  0.01666666939854622)
(X_478  0.11666666716337204)
(X_479  0.11666666716337204)
(X_480  0.01666666939854622)
(X_481  0.01666666939854622)
(X_482  0.01666666939854622)
(X_483  0.11666666716337204)
(X_484  0.12058823555707932)
(X_485  0.12058823555707932)
(X_486  0.020588237792253494)
(X_487  0.020588237792253494)
(X_488  0.020588237792253494)
(X_489  0.020588237792253494)
(X_490  0.020588237792253494)
(X_491  0.020588237792253494)
(X_492  0.01666666939854622)
(X_493  0.01666666939854622)
(X_494  0.01666666939854622)
(X_495  0.020588237792253494)
(X_496  0.12058823555707932)
(X_497  0.12058823555707932)
(X_498  0.12058823555707932)
(X_499  0.020588237792253494)
(X_500  0.12450980395078659)
(X_501  0.02450980618596077)
(X_502  0.02450980618596077)
(X_503  0.02450980618596077)
(X_504  0.012745101936161518)
(X_505  0.012745101936161518)
(X_506  0.012745101936161518)
(X_507  0.012745101936161518)
(X_508  0.012745101936161518)
(X_509  0.012745101936161518)
(X_510  0.012745101936161518)
(X_511  0.11274509876966476)
(X_512  0.01666666939854622)
(X_513  0.01666666939854622)
(X_514  0.01666666939854622)
(X_515  0.01666666939854622)
(X_516  0.01666666939854622)
(X_517  0.01666666939854622)
(X_518  0.01666666939854622)
(X_519  0.01666666939854622)
(X_520  0.01666666939854622)
(X_521  0.01666666939854622)
(X_522  0.01666666939854622)
(X_523  0.01666666939854622)
(X_524  0.01666666939854622)
(X_525  0.11274509876966476)
(X_526  0.11274509876966476)
(X_527  0.11274509876966476)
(X_528  0.012745101936161518)
(X_529  0.012745101936161518)
(X_530  0.012745101936161518)
(X_531  0.012745101936161518)
(X_532  0.10882353037595749)
(X_533  0.10882353037595749)
(X_534  0.10882353037595749)
(X_535  0.10882353037595749)
(X_536  0.008823529817163944)
(X_537  0.008823529817163944)
(X_538  0.008823529817163944)
(X_539  0.10882353037595749)
(X_540  0.012745101936161518)
(X_541  0.11274509876966476)
(X_542  0.11274509876966476)
(X_543  0.012745101936161518)
(X_544  0.012745101936161518)
(X_545  0.012745101936161518)
(X_546  0.012745101936161518)
(X_547  0.012745101936161518)
(X_548  0.11666666716337204)
(X_549  0.11666666716337204)
(X_550  0.11666666716337204)
(X_551  0.11274509876966476)
(X_552  0.10882353037595749)
(X_553  0.10882353037595749)
(X_554  0.10490196198225021)
(X_555  0.004901961423456669)
(X_556  0.10490196198225021)
(X_557  0.004901961423456669)
(X_558  0.10490196198225021)
(X_559  0.10490196198225021)
(X_560  0.0009803927969187498)
(X_561  0.0009803927969187498)
(X_562  0.0009803927969187498)
(X_563  0.0009803927969187498)
(X_564  0.0009803927969187498)
(X_565  0.10098039358854294)
(X_566  0.0009803927969187498)
(X_567  0.0009803927969187498)
(X_568  0.10490196198225021)
(X_569  0.10490196198225021)
(X_570  0.10490196198225021)
(X_571  0.004901961423456669)
(X_572  0.004901961423456669)
(X_573  0.004901961423456669)
(X_574  0.004901961423456669)
(X_575  0.004901961423456669)
(X_576  0.012745101936161518)
(X_577  0.012745101936161518)
(X_578  0.008823529817163944)
(X_579  0.10882353037595749)
(X_580  0.10490196198225021)
(X_581  0.10098039358854294)
(X_582  0.10098039358854294)
(X_583  0.10098039358854294)
(X_584  0.004901961423456669)
(X_585  0.004901961423456669)
(X_586  0.004901961423456669)
(X_587  0.004901961423456669)
(X_588  0.09705882519483566)
(X_589  -0.0029411755967885256)
(X_590  -0.0029411755967885256)
(X_591  -0.0029411755967885256)
(X_592  -0.0029411755967885256)
(X_593  0.09705882519483566)
(X_594  0.09705882519483566)
(X_595  0.09705882519483566)
(X_596  0.10098039358854294)
(X_597  0.10098039358854294)
(X_598  0.0009803927969187498)
(X_599  0.0009803927969187498)
(X_600  0.0009803927969187498)
(X_601  0.0009803927969187498)
(X_602  0.0009803927969187498)
(X_603  0.0009803927969187498)
(X_604  0.10490196198225021)
(X_605  0.10490196198225021)
(X_606  0.10490196198225021)
(X_607  0.10098039358854294)
(X_608  0.10098039358854294)
(X_609  0.10098039358854294)
(X_610  0.10098039358854294)
(X_611  0.10098039358854294)
(X_612  0.0009803927969187498)
(X_613  0.0009803927969187498)
(X_614  0.0009803927969187498)
(X_615  0.10098039358854294)
(X_616  0.09313725680112839)
(X_617  -0.006862743757665157)
(X_618  -0.006862743757665157)
(X_619  -0.006862743757665157)
(X_620  -0.006862743757665157)
(X_621  0.09313725680112839)
(X_622  0.09313725680112839)
(X_623  0.09313725680112839)
(X_624  0.09705882519483566)
(X_625  0.09705882519483566)
(X_626  0.09705882519483566)
(X_627  0.09705882519483566)
(X_628  -0.0029411755967885256)
(X_629  -0.0029411755967885256)
(X_630  -0.0029411755967885256)
(X_631  0.09705882519483566)
(X_632  0.09705882519483566)
(X_633  0.09705882519483566)
(X_634  0.09705882519483566)
(X_635  -0.0029411755967885256)
(X_636  -0.0029411755967885256)
(X_637  0.10098039358854294)
(X_638  0.10098039358854294)
(X_639  0.10098039358854294)
(X_640  0.09705882519483566)
(X_641  0.09705882519483566)
(X_642  0.09705882519483566)
(X_643  0.09705882519483566)
(X_644  -0.006862743757665157)
(X_645  -0.006862743757665157)
(X_646  0.09313725680112839)
(X_647  0.09313725680112839)
(X_648  0.09313725680112839)
(X_649  0.09313725680112839)
(X_650  0.09313725680112839)
(X_651  0.09313725680112839)
(X_652  0.09705882519483566)
(X_653  -0.0029411755967885256)
(X_654  -0.0029411755967885256)
(X_655  -0.0029411755967885256)
(X_656  -0.0029411755967885256)
(X_657  -0.0029411755967885256)
(X_658  -0.0029411755967885256)
(X_659  -0.0029411755967885256)
(X_660  0.08921568840742111)
(X_661  0.09313725680112839)
(X_662  0.09313725680112839)
(X_663  0.09705882519483566)
(X_664  -0.0029411755967885256)
(X_665  0.0009803927969187498)
(X_666  0.0009803927969187498)
(X_667  0.0009803927969187498)
(X_668  -0.006862743757665157)
(X_669  -0.006862743757665157)
(X_670  0.09313725680112839)
(X_671  -0.006862743757665157)
(X_672  0.08529412001371384)
(X_673  -0.014705880545079708)
(X_674  -0.014705880545079708)
(X_675  -0.014705880545079708)
(X_676  -0.014705880545079708)
(X_677  0.08529412001371384)
(X_678  0.08529412001371384)
(X_679  0.08529412001371384)
(X_680  0.10098039358854294)
(X_681  0.10098039358854294)
(X_682  0.10098039358854294)
(X_683  0.10098039358854294)
(X_684  0.10098039358854294)
(X_685  0.10098039358854294)
(X_686  0.0009803927969187498)
(X_687  0.0009803927969187498)
(X_688  0.10098039358854294)
(X_689  0.10098039358854294)
(X_690  0.0009803927969187498)
(X_691  0.0009803927969187498)
(X_692  0.10098039358854294)
(X_693  0.10098039358854294)
(X_694  0.10098039358854294)
(X_695  0.10098039358854294)
(X_696  0.09705882519483566)
(X_697  0.09705882519483566)
(X_698  0.09705882519483566)
(X_699  -0.0029411755967885256)
(X_700  0.08137255162000656)
(X_701  -0.018627449870109558)
(X_702  -0.018627449870109558)
(X_703  0.08137255162000656)
(X_704  -0.018627449870109558)
(X_705  -0.018627449870109558)
(X_706  -0.018627449870109558)
(X_707  -0.018627449870109558)
(X_708  -0.006862743757665157)
(X_709  -0.006862743757665157)
(X_710  -0.006862743757665157)
(X_711  0.09313725680112839)
(X_712  0.09313725680112839)
(X_713  -0.006862743757665157)
(X_714  -0.006862743757665157)
(X_715  -0.006862743757665157)
(X_716  -0.006862743757665157)
(X_717  -0.006862743757665157)
(X_718  -0.006862743757665157)
(X_719  -0.006862743757665157)
(X_720  -0.006862743757665157)
(X_721  -0.006862743757665157)
(X_722  -0.006862743757665157)
(X_723  0.09313725680112839)
(X_724  0.09313725680112839)
(X_725  0.09313725680112839)
(X_726  0.09313725680112839)
(X_727  0.09313725680112839)
(X_728  0.2656862735748291)
(X_729  0.16568627953529358)
(X_730  0.2656862735748291)
(X_731  0.2656862735748291)
(X_732  0.2656862735748291)
(X_733  0.2656862735748291)
(X_734  0.2656862735748291)
(X_735  0.2656862735748291)
(X_736  0.2696078419685364)
(X_737  0.2696078419685364)
(X_738  0.16960784792900085)
(X_739  0.16960784792900085)
(X_740  0.16960784792900085)
(X_741  0.16960784792900085)
(X_742  0.16960784792900085)
(X_743  0.16960784792900085)
(X_744  0.16960784792900085)
(X_745  0.16960784792900085)
(X_746  0.16960784792900085)
(X_747  0.16960784792900085)
(X_748  0.2696078419685364)
(X_749  0.2696078419685364)
(X_750  0.16960784792900085)
(X_751  0.16960784792900085)
(X_752  0.27352941036224365)
(X_753  0.27352941036224365)
(X_754  0.27352941036224365)
(X_755  0.27352941036224365)
(X_756  0.9754902124404907)
(X_757  0.8754901885986328)
(X_758  0.8754901885986328)
(X_759  0.8754901885986328)
(X_760  0.8754901885986328)
(X_761  0.9754902124404907)
(X_762  0.9754902124404907)
(X_763  0.9754902124404907)
(X_764  0.9754902124404907)
(X_765  0.9754902124404907)
(X_766  0.8754901885986328)
(X_767  0.8754901885986328)
(X_768  0.8754901885986328)
(X_769  0.8754901885986328)
(X_770  0.8754901885986328)
(X_771  0.8754901885986328)
(X_772  0.8754901885986328)
(X_773  0.8754901885986328)
(X_774  0.8754901885986328)
(X_775  0.8754901885986328)
(X_776  0.8754901885986328)
(X_777  0.8754901885986328)
(X_778  0.8754901885986328)
(X_779  0.8754901885986328)
(X_780  0.8794117569923401)
(X_781  0.8794117569923401)
(X_782  0.8794117569923401)
(X_783  0.8794117569923401)
(Y_0 -6.120752334594727)
(Y_1 12.154385566711426)
(Y_2 -2.9784507751464844)
(Y_3 -2.4235308170318604))