((X_0  0.16764706373214722)
(X_1  0.1872549057006836)
(X_2  0.10294118523597717)
(X_3  0.19117647409439087)
(X_4  0.17941176891326904)
(X_5  0.17941176891326904)
(X_6  0.09117648005485535)
(X_7  0.0990196168422699)
(X_8  0.17941176891326904)
(X_9  0.15196079015731812)
(X_10  0.15980392694473267)
(X_11  0.16372549533843994)
(X_12  0.12843137979507446)
(X_13  0.13235294818878174)
(X_14  0.15980392694473267)
(X_15  0.05588235333561897)
(X_16  0.09117648005485535)
(X_17  0.09509804844856262)
(X_18  0.09509804844856262)
(X_19  0.08725491166114807)
(X_20  0.17549020051956177)
(X_21  0.15980392694473267)
(X_22  0.14411765336990356)
(X_23  0.036274511367082596)
(X_24  0.15980392694473267)
(X_25  0.16764706373214722)
(X_26  0.05588235333561897)
(X_27  0.14411765336990356)
(X_28  0.1872549057006836)
(X_29  0.17549020051956177)
(X_30  0.1715686321258545)
(X_31  0.18333333730697632)
(X_32  0.10294118523597717)
(X_33  0.19901961088180542)
(X_34  0.15980392694473267)
(X_35  0.11666666716337204)
(X_36  0.06372549384832382)
(X_37  0.0990196168422699)
(X_38  0.24607843160629272)
(X_39  0.13823530077934265)
(X_40  0.0990196168422699)
(X_41  0.0990196168422699)
(X_42  0.10686275362968445)
(X_43  0.07941177487373352)
(X_44  0.07156863063573837)
(X_45  0.17549020051956177)
(X_46  0.17549020051956177)
(X_47  0.16372549533843994)
(X_48  0.0519607849419117)
(X_49  0.0519607849419117)
(X_50  0.06372549384832382)
(X_51  0.07549020648002625)
(X_52  0.15196079015731812)
(X_53  0.16764706373214722)
(X_54  0.17549020051956177)
(X_55  0.16372549533843994)
(X_56  0.1872549057006836)
(X_57  0.09509804844856262)
(X_58  0.09117648005485535)
(X_59  0.07156863063573837)
(X_60  0.0519607849419117)
(X_61  0.05980392172932625)
(X_62  0.0990196168422699)
(X_63  0.14215686917304993)
(X_64  0.3558823764324188)
(X_65  0.3813725411891937)
(X_66  0.5107843279838562)
(X_67  0.550000011920929)
(X_68  0.5107843279838562)
(X_69  0.44019606709480286)
(X_70  0.34215685725212097)
(X_71  0.2598039209842682)
(X_72  0.16568627953529358)
(X_73  0.11862745881080627)
(X_74  0.07549020648002625)
(X_75  0.0676470622420311)
(X_76  0.1872549057006836)
(X_77  0.19901961088180542)
(X_78  0.17549020051956177)
(X_79  0.14803922176361084)
(X_80  0.16372549533843994)
(X_81  0.1872549057006836)
(X_82  0.10686275362968445)
(X_83  0.2029411792755127)
(X_84  0.17549020051956177)
(X_85  0.1715686321258545)
(X_86  0.06372549384832382)
(X_87  0.1558823585510254)
(X_88  0.17549020051956177)
(X_89  0.25784313678741455)
(X_90  0.4068627655506134)
(X_91  0.5284313559532166)
(X_92  0.5186274647712708)
(X_93  0.5421568751335144)
(X_94  0.5460784435272217)
(X_95  0.5421568751335144)
(X_96  0.5421568751335144)
(X_97  0.6186274886131287)
(X_98  0.6107843518257141)
(X_99  0.6343137621879578)
(X_100  0.5480391979217529)
(X_101  0.45000001788139343)
(X_102  0.3127451241016388)
(X_103  0.2029411792755127)
(X_104  0.1558823585510254)
(X_105  0.0519607849419117)
(X_106  0.07156863063573837)
(X_107  0.0833333432674408)
(X_108  0.15196079015731812)
(X_109  0.0676470622420311)
(X_110  0.07549020648002625)
(X_111  0.17549020051956177)
(X_112  0.0676470622420311)
(X_113  0.04019607976078987)
(X_114  0.16372549533843994)
(X_115  0.25784313678741455)
(X_116  0.3911764919757843)
(X_117  0.4049019515514374)
(X_118  0.4950980544090271)
(X_119  0.5460784435272217)
(X_120  0.4911764860153198)
(X_121  0.44019606709480286)
(X_122  0.3735294044017792)
(X_123  0.3892156779766083)
(X_124  0.44019606709480286)
(X_125  0.4166666567325592)
(X_126  0.42450979351997375)
(X_127  0.5147058963775635)
(X_128  0.5833333730697632)
(X_129  0.5911765098571777)
(X_130  0.5637255311012268)
(X_131  0.4696078598499298)
(X_132  0.33235296607017517)
(X_133  0.21078431606292725)
(X_134  0.14411765336990356)
(X_135  0.12450980395078659)
(X_136  0.0676470622420311)
(X_137  0.07156863063573837)
(X_138  0.17941176891326904)
(X_139  0.18333333730697632)
(X_140  0.20686274766921997)
(X_141  0.25784313678741455)
(X_142  0.36764708161354065)
(X_143  0.49705883860588074)
(X_144  0.4637255072593689)
(X_145  0.4637255072593689)
(X_146  0.45588237047195435)
(X_147  0.5637255311012268)
(X_148  0.5284313559532166)
(X_149  0.5715686678886414)
(X_150  0.6068627834320068)
(X_151  0.6049019694328308)
(X_152  0.7676470875740051)
(X_153  0.6264706254005432)
(X_154  0.46176472306251526)
(X_155  0.45000001788139343)
(X_156  0.39313724637031555)
(X_157  0.5166666507720947)
(X_158  0.5637255311012268)
(X_159  0.5990196466445923)
(X_160  0.5754902362823486)
(X_161  0.3539215624332428)
(X_162  0.1774509847164154)
(X_163  0.14411765336990356)
(X_164  0.0676470622420311)
(X_165  0.05980392172932625)
(X_166  0.07156863063573837)
(X_167  0.19509804248809814)
(X_168  0.26372548937797546)
(X_169  0.44607844948768616)
(X_170  0.5598039627075195)
(X_171  0.6029412150382996)
(X_172  0.5362744927406311)
(X_173  0.3499999940395355)
(X_174  0.3499999940395355)
(X_175  0.4049019515514374)
(X_176  0.6147059202194214)
(X_177  0.7166666984558105)
(X_178  0.6401960849761963)
(X_179  0.6715686321258545)
(X_180  0.7343137264251709)
(X_181  0.636274516582489)
(X_182  0.4637255072593689)
(X_183  0.4205882251262665)
(X_184  0.5323529243469238)
(X_185  0.457843154668808)
(X_186  0.40294119715690613)
(X_187  0.43039217591285706)
(X_188  0.5049019455909729)
(X_189  0.4362744987010956)
(X_190  0.385294109582901)
(X_191  0.41470590233802795)
(X_192  0.23039215803146362)
(X_193  0.18333333730697632)
(X_194  0.0519607849419117)
(X_195  0.05980392172932625)
(X_196  0.45196080207824707)
(X_197  0.5401960611343384)
(X_198  0.5401960611343384)
(X_199  0.5166666507720947)
(X_200  0.4539215862751007)
(X_201  0.4068627655506134)
(X_202  0.34607842564582825)
(X_203  0.42843136191368103)
(X_204  0.4833333492279053)
(X_205  0.6323529481887817)
(X_206  0.7284314036369324)
(X_207  0.6852941513061523)
(X_208  0.6715686321258545)
(X_209  0.6754902005195618)
(X_210  0.5774509906768799)
(X_211  0.5460784435272217)
(X_212  0.44607844948768616)
(X_213  0.45000001788139343)
(X_214  0.45000001788139343)
(X_215  0.4382353127002716)
(X_216  0.43039217591285706)
(X_217  0.44607844948768616)
(X_218  0.4892157018184662)
(X_219  0.5245097875595093)
(X_220  0.457843154668808)
(X_221  0.2598039209842682)
(X_222  0.15784314274787903)
(X_223  0.11078432202339172)
(X_224  0.31078431010246277)
(X_225  0.3696078360080719)
(X_226  0.48137256503105164)
(X_227  0.4421568810939789)
(X_228  0.44607844948768616)
(X_229  0.40882351994514465)
(X_230  0.44019606709480286)
(X_231  0.42450979351997375)
(X_232  0.6303921937942505)
(X_233  0.5460784435272217)
(X_234  0.6107843518257141)
(X_235  0.5264706015586853)
(X_236  0.479411780834198)
(X_237  0.4323529303073883)
(X_238  0.5303921699523926)
(X_239  0.6049019694328308)
(X_240  0.5264706015586853)
(X_241  0.550000011920929)
(X_242  0.5833333730697632)
(X_243  0.457843154668808)
(X_244  0.38333335518836975)
(X_245  0.3637255132198334)
(X_246  0.4107843339443207)
(X_247  0.4892157018184662)
(X_248  0.46176472306251526)
(X_249  0.457843154668808)
(X_250  0.3499999940395355)
(X_251  0.34215685725212097)
(X_252  0.39313724637031555)
(X_253  0.45588237047195435)
(X_254  0.522549033164978)
(X_255  0.5578431487083435)
(X_256  0.6774510145187378)
(X_257  0.6696078777313232)
(X_258  0.6029412150382996)
(X_259  0.5245097875595093)
(X_260  0.385294109582901)
(X_261  0.3970588147640228)
(X_262  0.457843154668808)
(X_263  0.4735294282436371)
(X_264  0.3539215624332428)
(X_265  0.32647058367729187)
(X_266  0.39313724637031555)
(X_267  0.4205882251262665)
(X_268  0.5578431487083435)
(X_269  0.5892156958580017)
(X_270  0.638235330581665)
(X_271  0.4362744987010956)
(X_272  0.3539215624332428)
(X_273  0.3715686500072479)
(X_274  0.3127451241016388)
(X_275  0.3127451241016388)
(X_276  0.39901962876319885)
(X_277  0.39901962876319885)
(X_278  0.29901960492134094)
(X_279  0.3029411733150482)
(X_280  0.5735294222831726)
(X_281  0.6460784673690796)
(X_282  0.6186274886131287)
(X_283  0.5029411911964417)
(X_284  0.4754902124404907)
(X_285  0.5049019455909729)
(X_286  0.40294119715690613)
(X_287  0.32058826088905334)
(X_288  0.27156862616539)
(X_289  0.29509803652763367)
(X_290  0.25196078419685364)
(X_291  0.3637255132198334)
(X_292  0.3715686500072479)
(X_293  0.27156862616539)
(X_294  0.3068627417087555)
(X_295  0.27156862616539)
(X_296  0.3186274468898773)
(X_297  0.47745099663734436)
(X_298  0.49313727021217346)
(X_299  0.4009803831577301)
(X_300  0.520588219165802)
(X_301  0.49313727021217346)
(X_302  0.43431374430656433)
(X_303  0.31078431010246277)
(X_304  0.27156862616539)
(X_305  0.26372548937797546)
(X_306  0.25196078419685364)
(X_307  0.240196093916893)
(X_308  0.5539215803146362)
(X_309  0.5558823943138123)
(X_310  0.3656862676143646)
(X_311  0.32647058367729187)
(X_312  0.29901960492134094)
(X_313  0.2558823525905609)
(X_314  0.21666668355464935)
(X_315  0.20490197837352753)
(X_316  0.30490198731422424)
(X_317  0.35196080803871155)
(X_318  0.31666669249534607)
(X_319  0.32058826088905334)
(X_320  0.3401961028575897)
(X_321  0.2558823525905609)
(X_322  0.2754901945590973)
(X_323  0.19705882668495178)
(X_324  0.18921568989753723)
(X_325  0.33627453446388245)
(X_326  0.35196080803871155)
(X_327  0.28333333134651184)
(X_328  0.36176469922065735)
(X_329  0.3970588147640228)
(X_330  0.49313727021217346)
(X_331  0.5009803771972656)
(X_332  0.3696078360080719)
(X_333  0.457843154668808)
(X_334  0.3343137204647064)
(X_335  0.31078431010246277)
(X_336  0.46176472306251526)
(X_337  0.40294119715690613)
(X_338  0.3637255132198334)
(X_339  0.3637255132198334)
(X_340  0.35196080803871155)
(X_341  0.30490198731422424)
(X_342  0.18137255311012268)
(X_343  0.1931372582912445)
(X_344  0.2186274528503418)
(X_345  0.28921568393707275)
(X_346  0.16960784792900085)
(X_347  0.17352941632270813)
(X_348  0.18529412150382996)
(X_349  0.20098040997982025)
(X_350  0.21666668355464935)
(X_351  0.23823529481887817)
(X_352  0.2852941155433655)
(X_353  0.31666669249534607)
(X_354  0.30098041892051697)
(X_355  0.20098040997982025)
(X_356  0.3637255132198334)
(X_357  0.4225490391254425)
(X_358  0.46176472306251526)
(X_359  0.5009803771972656)
(X_360  0.5401960611343384)
(X_361  0.5362744927406311)
(X_362  0.42450979351997375)
(X_363  0.41274508833885193)
(X_364  0.3401961028575897)
(X_365  0.31666669249534607)
(X_366  0.3127451241016388)
(X_367  0.31666669249534607)
(X_368  0.29313725233078003)
(X_369  0.23823529481887817)
(X_370  0.20686274766921997)
(X_371  0.10686275362968445)
(X_372  0.07941177487373352)
(X_373  0.15000000596046448)
(X_374  0.23823529481887817)
(X_375  0.24607843160629272)
(X_376  0.25784313678741455)
(X_377  0.1617647111415863)
(X_378  0.18137255311012268)
(X_379  0.114705890417099)
(X_380  0.2343137264251709)
(X_381  0.2696078419685364)
(X_382  0.2656862735748291)
(X_383  0.2656862735748291)
(X_384  0.22843138873577118)
(X_385  0.2911764681339264)
(X_386  0.3343137204647064)
(X_387  0.385294109582901)
(X_388  0.344117671251297)
(X_389  0.344117671251297)
(X_390  0.3401961028575897)
(X_391  0.240196093916893)
(X_392  0.2617647051811218)
(X_393  0.25)
(X_394  0.24215686321258545)
(X_395  0.24215686321258545)
(X_396  0.24607843160629272)
(X_397  0.24607843160629272)
(X_398  0.24607843160629272)
(X_399  0.15000000596046448)
(X_400  0.08725491166114807)
(X_401  0.1303921639919281)
(X_402  0.20686274766921997)
(X_403  0.2343137264251709)
(X_404  0.2539215683937073)
(X_405  0.25)
(X_406  0.16960784792900085)
(X_407  0.21470588445663452)
(X_408  0.23039215803146362)
(X_409  0.1617647111415863)
(X_410  0.25)
(X_411  0.24215686321258545)
(X_412  0.29313725233078003)
(X_413  0.3245098292827606)
(X_414  0.3284313976764679)
(X_415  0.3480392396450043)
(X_416  0.24411766231060028)
(X_417  0.24411766231060028)
(X_418  0.24803923070430756)
(X_419  0.24803923070430756)
(X_420  0.12254902720451355)
(X_421  0.11078432202339172)
(X_422  0.19509804248809814)
(X_423  0.0833333432674408)
(X_424  0.08725491166114807)
(X_425  0.0990196168422699)
(X_426  0.08725491166114807)
(X_427  0.16372549533843994)
(X_428  0.17549020051956177)
(X_429  0.19117647409439087)
(X_430  0.05980392172932625)
(X_431  0.10294118523597717)
(X_432  0.13431373238563538)
(X_433  0.12647059559822083)
(X_434  0.14215686917304993)
(X_435  0.08725491166114807)
(X_436  0.1872549057006836)
(X_437  0.21078431606292725)
(X_438  0.19509804248809814)
(X_439  0.19901961088180542)
(X_440  0.2539215683937073)
(X_441  0.2852941155433655)
(X_442  0.16960784792900085)
(X_443  0.17352941632270813)
(X_444  0.15784314274787903)
(X_445  0.16568627953529358)
(X_446  0.1774509847164154)
(X_447  0.2852941155433655)
(X_448  0.15196079015731812)
(X_449  0.15196079015731812)
(X_450  0.05588235333561897)
(X_451  0.1558823585510254)
(X_452  0.05980392172932625)
(X_453  0.05980392172932625)
(X_454  0.05980392172932625)
(X_455  0.05980392172932625)
(X_456  0.1558823585510254)
(X_457  0.1558823585510254)
(X_458  0.15980392694473267)
(X_459  0.15980392694473267)
(X_460  0.16372549533843994)
(X_461  0.06372549384832382)
(X_462  0.06372549384832382)
(X_463  0.06372549384832382)
(X_464  0.0833333432674408)
(X_465  0.07156863063573837)
(X_466  0.0676470622420311)
(X_467  0.18333333730697632)
(X_468  0.21078431606292725)
(X_469  0.23039215803146362)
(X_470  0.22647058963775635)
(X_471  0.21470588445663452)
(X_472  0.22647058963775635)
(X_473  0.22647058963775635)
(X_474  0.22647058963775635)
(X_475  0.22647058963775635)
(X_476  0.04411764815449715)
(X_477  0.14411765336990356)
(X_478  0.14411765336990356)
(X_479  0.14803922176361084)
(X_480  0.04803921654820442)
(X_481  0.04803921654820442)
(X_482  0.0519607849419117)
(X_483  0.15196079015731812)
(X_484  0.14803922176361084)
(X_485  0.14803922176361084)
(X_486  0.14803922176361084)
(X_487  0.04803921654820442)
(X_488  0.15196079015731812)
(X_489  0.0519607849419117)
(X_490  0.05588235333561897)
(X_491  0.05588235333561897)
(X_492  0.07156863063573837)
(X_493  0.05980392172932625)
(X_494  0.0519607849419117)
(X_495  0.16372549533843994)
(X_496  0.1872549057006836)
(X_497  0.19509804248809814)
(X_498  0.19117647409439087)
(X_499  0.07941177487373352)
(X_500  0.19117647409439087)
(X_501  0.19117647409439087)
(X_502  0.09117648005485535)
(X_503  0.09117648005485535)
(X_504  0.13235294818878174)
(X_505  0.13235294818878174)
(X_506  0.03235294297337532)
(X_507  0.03235294297337532)
(X_508  0.036274511367082596)
(X_509  0.036274511367082596)
(X_510  0.04019607976078987)
(X_511  0.1401960849761963)
(X_512  0.03235294297337532)
(X_513  0.13235294818878174)
(X_514  0.136274516582489)
(X_515  0.036274511367082596)
(X_516  0.036274511367082596)
(X_517  0.04019607976078987)
(X_518  0.04019607976078987)
(X_519  0.04019607976078987)
(X_520  0.05588235333561897)
(X_521  0.04411764815449715)
(X_522  0.036274511367082596)
(X_523  0.04019607976078987)
(X_524  0.0519607849419117)
(X_525  0.1558823585510254)
(X_526  0.14803922176361084)
(X_527  0.136274516582489)
(X_528  0.1558823585510254)
(X_529  0.05588235333561897)
(X_530  0.05588235333561897)
(X_531  0.05588235333561897)
(X_532  0.12450980395078659)
(X_533  0.12450980395078659)
(X_534  0.12450980395078659)
(X_535  0.12843137979507446)
(X_536  0.12843137979507446)
(X_537  0.03235294297337532)
(X_538  0.03235294297337532)
(X_539  0.13235294818878174)
(X_540  0.02450980618596077)
(X_541  0.02450980618596077)
(X_542  0.12843137979507446)
(X_543  0.12843137979507446)
(X_544  0.028431374579668045)
(X_545  0.03235294297337532)
(X_546  0.03235294297337532)
(X_547  0.03235294297337532)
(X_548  0.1401960849761963)
(X_549  0.13235294818878174)
(X_550  0.12450980395078659)
(X_551  0.12450980395078659)
(X_552  0.13235294818878174)
(X_553  0.13235294818878174)
(X_554  0.02450980618596077)
(X_555  0.01666666939854622)
(X_556  0.1401960849761963)
(X_557  0.04019607976078987)
(X_558  0.04019607976078987)
(X_559  0.1401960849761963)
(X_560  0.12450980395078659)
(X_561  0.02450980618596077)
(X_562  0.02450980618596077)
(X_563  0.028431374579668045)
(X_564  0.028431374579668045)
(X_565  0.028431374579668045)
(X_566  0.03235294297337532)
(X_567  0.03235294297337532)
(X_568  0.020588237792253494)
(X_569  0.12450980395078659)
(X_570  0.12450980395078659)
(X_571  0.12450980395078659)
(X_572  0.028431374579668045)
(X_573  0.028431374579668045)
(X_574  0.028431374579668045)
(X_575  0.03235294297337532)
(X_576  0.028431374579668045)
(X_577  0.02450980618596077)
(X_578  0.020588237792253494)
(X_579  0.12450980395078659)
(X_580  0.12843137979507446)
(X_581  0.12843137979507446)
(X_582  0.12450980395078659)
(X_583  0.12058823555707932)
(X_584  0.12843137979507446)
(X_585  0.028431374579668045)
(X_586  0.028431374579668045)
(X_587  0.028431374579668045)
(X_588  0.12058823555707932)
(X_589  0.020588237792253494)
(X_590  0.02450980618596077)
(X_591  0.12450980395078659)
(X_592  0.12843137979507446)
(X_593  0.028431374579668045)
(X_594  0.028431374579668045)
(X_595  0.028431374579668045)
(X_596  0.12058823555707932)
(X_597  0.12058823555707932)
(X_598  0.12058823555707932)
(X_599  0.02450980618596077)
(X_600  0.02450980618596077)
(X_601  0.02450980618596077)
(X_602  0.028431374579668045)
(X_603  0.028431374579668045)
(X_604  0.12058823555707932)
(X_605  0.12058823555707932)
(X_606  0.12058823555707932)
(X_607  0.12058823555707932)
(X_608  0.12450980395078659)
(X_609  0.12450980395078659)
(X_610  0.12450980395078659)
(X_611  0.12843137979507446)
(X_612  0.01666666939854622)
(X_613  0.01666666939854622)
(X_614  0.01666666939854622)
(X_615  0.11666666716337204)
(X_616  0.11666666716337204)
(X_617  0.01666666939854622)
(X_618  0.020588237792253494)
(X_619  0.020588237792253494)
(X_620  0.12058823555707932)
(X_621  0.12450980395078659)
(X_622  0.12450980395078659)
(X_623  0.12450980395078659)
(X_624  0.11274509876966476)
(X_625  0.11274509876966476)
(X_626  0.11666666716337204)
(X_627  0.11666666716337204)
(X_628  0.020588237792253494)
(X_629  0.020588237792253494)
(X_630  0.020588237792253494)
(X_631  0.12058823555707932)
(X_632  0.01666666939854622)
(X_633  0.01666666939854622)
(X_634  0.020588237792253494)
(X_635  0.01666666939854622)
(X_636  0.01666666939854622)
(X_637  0.11274509876966476)
(X_638  0.11666666716337204)
(X_639  0.11666666716337204)
(X_640  0.012745101936161518)
(X_641  0.012745101936161518)
(X_642  0.11274509876966476)
(X_643  0.11274509876966476)
(X_644  0.012745101936161518)
(X_645  0.012745101936161518)
(X_646  0.11274509876966476)
(X_647  0.11666666716337204)
(X_648  0.11666666716337204)
(X_649  0.12058823555707932)
(X_650  0.12058823555707932)
(X_651  0.12058823555707932)
(X_652  0.10882353037595749)
(X_653  0.10882353037595749)
(X_654  0.008823529817163944)
(X_655  0.012745101936161518)
(X_656  0.012745101936161518)
(X_657  0.012745101936161518)
(X_658  0.01666666939854622)
(X_659  0.01666666939854622)
(X_660  0.11274509876966476)
(X_661  0.11666666716337204)
(X_662  0.11666666716337204)
(X_663  0.11274509876966476)
(X_664  0.10490196198225021)
(X_665  0.10098039358854294)
(X_666  0.10098039358854294)
(X_667  0.004901961423456669)
(X_668  0.012745101936161518)
(X_669  0.012745101936161518)
(X_670  0.012745101936161518)
(X_671  0.012745101936161518)
(X_672  0.12450980395078659)
(X_673  0.02450980618596077)
(X_674  0.02450980618596077)
(X_675  0.02450980618596077)
(X_676  0.020588237792253494)
(X_677  0.020588237792253494)
(X_678  0.020588237792253494)
(X_679  0.12058823555707932)
(X_680  0.12058823555707932)
(X_681  0.11274509876966476)
(X_682  0.10490196198225021)
(X_683  0.10490196198225021)
(X_684  0.10882353037595749)
(X_685  0.11274509876966476)
(X_686  0.012745101936161518)
(X_687  0.008823529817163944)
(X_688  0.10882353037595749)
(X_689  0.008823529817163944)
(X_690  0.008823529817163944)
(X_691  0.008823529817163944)
(X_692  0.10882353037595749)
(X_693  0.10882353037595749)
(X_694  0.10882353037595749)
(X_695  0.10882353037595749)
(X_696  0.10490196198225021)
(X_697  0.10490196198225021)
(X_698  0.10490196198225021)
(X_699  0.004901961423456669)
(X_700  0.028431374579668045)
(X_701  0.02450980618596077)
(X_702  0.12058823555707932)
(X_703  0.11666666716337204)
(X_704  0.008823529817163944)
(X_705  0.10490196198225021)
(X_706  0.0009803927969187498)
(X_707  -0.0029411755967885256)
(X_708  0.020588237792253494)
(X_709  0.11274509876966476)
(X_710  0.10490196198225021)
(X_711  0.10098039358854294)
(X_712  0.10882353037595749)
(X_713  0.008823529817163944)
(X_714  0.008823529817163944)
(X_715  0.004901961423456669)
(X_716  0.11274509876966476)
(X_717  0.11274509876966476)
(X_718  0.012745101936161518)
(X_719  0.012745101936161518)
(X_720  0.012745101936161518)
(X_721  0.012745101936161518)
(X_722  0.11274509876966476)
(X_723  0.11274509876966476)
(X_724  0.11274509876966476)
(X_725  0.11274509876966476)
(X_726  0.11274509876966476)
(X_727  0.11274509876966476)
(X_728  0.3794117867946625)
(X_729  0.3754902184009552)
(X_730  0.36764708161354065)
(X_731  0.3598039448261261)
(X_732  0.3480392396450043)
(X_733  0.240196093916893)
(X_734  0.33235296607017517)
(X_735  0.3245098292827606)
(X_736  0.30098041892051697)
(X_737  0.29313725233078003)
(X_738  0.2813725471496582)
(X_739  0.18137255311012268)
(X_740  0.2852941155433655)
(X_741  0.18921568989753723)
(X_742  0.18529412150382996)
(X_743  0.18137255311012268)
(X_744  0.14215686917304993)
(X_745  0.14215686917304993)
(X_746  0.24215686321258545)
(X_747  0.14215686917304993)
(X_748  0.14215686917304993)
(X_749  0.14215686917304993)
(X_750  0.14215686917304993)
(X_751  0.14215686917304993)
(X_752  0.24607843160629272)
(X_753  0.24607843160629272)
(X_754  0.24607843160629272)
(X_755  0.24607843160629272)
(X_756  1.0382353067398071)
(X_757  0.9343137145042419)
(X_758  0.9264705777168274)
(X_759  0.9147058725357056)
(X_760  0.9029411673545837)
(X_761  0.8950980305671692)
(X_762  0.9872549176216125)
(X_763  0.9833333492279053)
(X_764  1.0029411315917969)
(X_765  0.9950980544090271)
(X_766  0.9833333492279053)
(X_767  0.8833333253860474)
(X_768  0.8872548937797546)
(X_769  0.8872548937797546)
(X_770  0.8833333253860474)
(X_771  0.8794117569923401)
(X_772  0.863725483417511)
(X_773  0.863725483417511)
(X_774  0.863725483417511)
(X_775  0.863725483417511)
(X_776  0.9637255072593689)
(X_777  0.9637255072593689)
(X_778  0.863725483417511)
(X_779  0.863725483417511)
(X_780  0.863725483417511)
(X_781  0.863725483417511)
(X_782  0.863725483417511)
(X_783  0.863725483417511)
(Y_0 -19.106849670410156)
(Y_1 27.378196716308594)
(Y_2 -15.286503791809082)
(Y_3 9.43754768371582))