((X_0  0.9245098233222961)
(X_1  0.8245097994804382)
(X_2  0.820588231086731)
(X_3  0.8127450942993164)
(X_4  0.7970588207244873)
(X_5  0.7813725471496582)
(X_6  0.7656862735748291)
(X_7  0.8578431606292725)
(X_8  0.8774510025978088)
(X_9  0.8421568870544434)
(X_10  0.8186274766921997)
(X_11  0.7107843160629272)
(X_12  0.795098066329956)
(X_13  0.7754902243614197)
(X_14  0.779411792755127)
(X_15  0.6990196108818054)
(X_16  0.6519607901573181)
(X_17  0.6441176533699036)
(X_18  0.6401960849761963)
(X_19  0.636274516582489)
(X_20  0.6284313797950745)
(X_21  0.7166666984558105)
(X_22  0.6970588564872742)
(X_23  0.5813725590705872)
(X_24  0.5696078538894653)
(X_25  0.5578431487083435)
(X_26  0.5460784435272217)
(X_27  0.5460784435272217)
(X_28  0.2656862735748291)
(X_29  0.25784313678741455)
(X_30  0.1460784375667572)
(X_31  0.13823530077934265)
(X_32  0.13431373238563538)
(X_33  0.13431373238563538)
(X_34  0.13823530077934265)
(X_35  0.14215686917304993)
(X_36  0.19117647409439087)
(X_37  0.1872549057006836)
(X_38  0.0990196168422699)
(X_39  0.12254902720451355)
(X_40  0.21470588445663452)
(X_41  0.17941176891326904)
(X_42  0.15980392694473267)
(X_43  0.15980392694473267)
(X_44  0.2029411792755127)
(X_45  0.1872549057006836)
(X_46  0.16764706373214722)
(X_47  0.06372549384832382)
(X_48  0.0676470622420311)
(X_49  0.07941177487373352)
(X_50  0.09117648005485535)
(X_51  0.09117648005485535)
(X_52  0.14411765336990356)
(X_53  0.04803921654820442)
(X_54  0.14803922176361084)
(X_55  0.14803922176361084)
(X_56  0.07156863063573837)
(X_57  0.0676470622420311)
(X_58  0.05588235333561897)
(X_59  0.04803921654820442)
(X_60  0.1401960849761963)
(X_61  0.136274516582489)
(X_62  0.136274516582489)
(X_63  0.036274511367082596)
(X_64  0.16372549533843994)
(X_65  0.04019607976078987)
(X_66  0.02450980618596077)
(X_67  0.028431374579668045)
(X_68  0.13235294818878174)
(X_69  0.04411764815449715)
(X_70  0.16764706373214722)
(X_71  0.19117647409439087)
(X_72  0.06372549384832382)
(X_73  0.05980392172932625)
(X_74  0.05588235333561897)
(X_75  0.0519607849419117)
(X_76  0.15196079015731812)
(X_77  0.1401960849761963)
(X_78  0.12450980395078659)
(X_79  0.10882353037595749)
(X_80  0.13235294818878174)
(X_81  0.1401960849761963)
(X_82  0.14803922176361084)
(X_83  0.1558823585510254)
(X_84  0.10490196198225021)
(X_85  0.01666666939854622)
(X_86  0.13235294818878174)
(X_87  0.15196079015731812)
(X_88  0.16372549533843994)
(X_89  0.16764706373214722)
(X_90  0.16764706373214722)
(X_91  0.16764706373214722)
(X_92  0.14411765336990356)
(X_93  0.036274511367082596)
(X_94  0.04019607976078987)
(X_95  0.0676470622420311)
(X_96  0.12254902720451355)
(X_97  0.1931372582912445)
(X_98  0.26372548937797546)
(X_99  0.41470590233802795)
(X_100  0.5362744927406311)
(X_101  0.5362744927406311)
(X_102  0.5284313559532166)
(X_103  0.49705883860588074)
(X_104  0.43431374430656433)
(X_105  0.3401961028575897)
(X_106  0.14215686917304993)
(X_107  0.07941177487373352)
(X_108  0.0676470622420311)
(X_109  0.04803921654820442)
(X_110  0.02450980618596077)
(X_111  0.11274509876966476)
(X_112  0.16372549533843994)
(X_113  0.15980392694473267)
(X_114  0.15196079015731812)
(X_115  0.14411765336990356)
(X_116  0.1401960849761963)
(X_117  0.04019607976078987)
(X_118  0.04019607976078987)
(X_119  0.04019607976078987)
(X_120  0.01666666939854622)
(X_121  0.07549020648002625)
(X_122  0.16568627953529358)
(X_123  0.2598039209842682)
(X_124  0.34215685725212097)
(X_125  0.4009803831577301)
(X_126  0.42843136191368103)
(X_127  0.5362744927406311)
(X_128  0.46568629145622253)
(X_129  0.4852941334247589)
(X_130  0.5127450823783875)
(X_131  0.5441176295280457)
(X_132  0.5598039627075195)
(X_133  0.5480391979217529)
(X_134  0.4205882251262665)
(X_135  0.4009803831577301)
(X_136  0.344117671251297)
(X_137  0.2813725471496582)
(X_138  0.2029411792755127)
(X_139  0.1558823585510254)
(X_140  0.17941176891326904)
(X_141  0.15980392694473267)
(X_142  0.13235294818878174)
(X_143  0.11666666716337204)
(X_144  0.020588237792253494)
(X_145  0.04803921654820442)
(X_146  0.0833333432674408)
(X_147  0.21078431606292725)
(X_148  0.32058826088905334)
(X_149  0.3754902184009552)
(X_150  0.4382353127002716)
(X_151  0.4852941334247589)
(X_152  0.5049019455909729)
(X_153  0.5009803771972656)
(X_154  0.4696078598499298)
(X_155  0.33039215207099915)
(X_156  0.4696078598499298)
(X_157  0.3499999940395355)
(X_158  0.43431374430656433)
(X_159  0.43039217591285706)
(X_160  0.44607844948768616)
(X_161  0.3696078360080719)
(X_162  0.49313727021217346)
(X_163  0.5049019455909729)
(X_164  0.520588219165802)
(X_165  0.46176472306251526)
(X_166  0.3911764919757843)
(X_167  0.35196080803871155)
(X_168  0.10294118523597717)
(X_169  0.10294118523597717)
(X_170  0.10686275362968445)
(X_171  0.13431373238563538)
(X_172  0.2813725471496582)
(X_173  0.3480392396450043)
(X_174  0.31078431010246277)
(X_175  0.3499999940395355)
(X_176  0.4009803831577301)
(X_177  0.4049019515514374)
(X_178  0.3813725411891937)
(X_179  0.4382353127002716)
(X_180  0.40294119715690613)
(X_181  0.38333335518836975)
(X_182  0.3558823764324188)
(X_183  0.3245098292827606)
(X_184  0.3284313976764679)
(X_185  0.3245098292827606)
(X_186  0.3245098292827606)
(X_187  0.33627453446388245)
(X_188  0.3637255132198334)
(X_189  0.29509803652763367)
(X_190  0.31470587849617004)
(X_191  0.4264706075191498)
(X_192  0.49705883860588074)
(X_193  0.4892157018184662)
(X_194  0.48137256503105164)
(X_195  0.48137256503105164)
(X_196  0.49313727021217346)
(X_197  0.49313727021217346)
(X_198  0.49313727021217346)
(X_199  0.39313724637031555)
(X_200  0.49705883860588074)
(X_201  0.5009803771972656)
(X_202  0.4049019515514374)
(X_203  0.4049019515514374)
(X_204  0.3343137204647064)
(X_205  0.3382352888584137)
(X_206  0.31470587849617004)
(X_207  0.3754902184009552)
(X_208  0.2558823525905609)
(X_209  0.26764705777168274)
(X_210  0.26764705777168274)
(X_211  0.35196080803871155)
(X_212  0.36764708161354065)
(X_213  0.3950980603694916)
(X_214  0.3343137204647064)
(X_215  0.3696078360080719)
(X_216  0.3735294044017792)
(X_217  0.34607842564582825)
(X_218  0.39901962876319885)
(X_219  0.3598039448261261)
(X_220  0.2598039209842682)
(X_221  0.29901960492134094)
(X_222  0.34607842564582825)
(X_223  0.3696078360080719)
(X_224  0.3343137204647064)
(X_225  0.46176472306251526)
(X_226  0.36176469922065735)
(X_227  0.43039217591285706)
(X_228  0.32647058367729187)
(X_229  0.34607842564582825)
(X_230  0.3499999940395355)
(X_231  0.33039215207099915)
(X_232  0.41862747073173523)
(X_233  0.41862747073173523)
(X_234  0.3794117867946625)
(X_235  0.344117671251297)
(X_236  0.38333335518836975)
(X_237  0.4539215862751007)
(X_238  0.4382353127002716)
(X_239  0.3637255132198334)
(X_240  0.29509803652763367)
(X_241  0.3735294044017792)
(X_242  0.5127450823783875)
(X_243  0.5127450823783875)
(X_244  0.5794118046760559)
(X_245  0.638235330581665)
(X_246  0.5558823943138123)
(X_247  0.39901962876319885)
(X_248  0.26764705777168274)
(X_249  0.2598039209842682)
(X_250  0.2598039209842682)
(X_251  0.3715686500072479)
(X_252  0.2872548997402191)
(X_253  0.29901960492134094)
(X_254  0.31078431010246277)
(X_255  0.4264706075191498)
(X_256  0.4539215862751007)
(X_257  0.46568629145622253)
(X_258  0.44607844948768616)
(X_259  0.4107843339443207)
(X_260  0.39901962876319885)
(X_261  0.387254923582077)
(X_262  0.3068627417087555)
(X_263  0.46176472306251526)
(X_264  0.5088235139846802)
(X_265  0.5088235139846802)
(X_266  0.4696078598499298)
(X_267  0.3382352888584137)
(X_268  0.33039215207099915)
(X_269  0.3343137204647064)
(X_270  0.43431374430656433)
(X_271  0.34215685725212097)
(X_272  0.3970588147640228)
(X_273  0.46764707565307617)
(X_274  0.6029412150382996)
(X_275  0.595098078250885)
(X_276  0.43431374430656433)
(X_277  0.3225490152835846)
(X_278  0.3068627417087555)
(X_279  0.39901962876319885)
(X_280  0.5441176295280457)
(X_281  0.4205882251262665)
(X_282  0.41274508833885193)
(X_283  0.44019606709480286)
(X_284  0.45588237047195435)
(X_285  0.5166666507720947)
(X_286  0.4539215862751007)
(X_287  0.40294119715690613)
(X_288  0.5166666507720947)
(X_289  0.4735294282436371)
(X_290  0.4049019515514374)
(X_291  0.4990196228027344)
(X_292  0.5068627595901489)
(X_293  0.42450979351997375)
(X_294  0.3696078360080719)
(X_295  0.385294109582901)
(X_296  0.4107843339443207)
(X_297  0.25196078419685364)
(X_298  0.3127451241016388)
(X_299  0.3127451241016388)
(X_300  0.31666669249534607)
(X_301  0.3480392396450043)
(X_302  0.4539215862751007)
(X_303  0.47156864404678345)
(X_304  0.42450979351997375)
(X_305  0.4166666567325592)
(X_306  0.39313724637031555)
(X_307  0.3696078360080719)
(X_308  0.3735294044017792)
(X_309  0.44607844948768616)
(X_310  0.36176469922065735)
(X_311  0.42843136191368103)
(X_312  0.47156864404678345)
(X_313  0.45588237047195435)
(X_314  0.42843136191368103)
(X_315  0.42450979351997375)
(X_316  0.41274508833885193)
(X_317  0.3539215624332428)
(X_318  0.34607842564582825)
(X_319  0.385294109582901)
(X_320  0.3539215624332428)
(X_321  0.2558823525905609)
(X_322  0.22058825194835663)
(X_323  0.3558823764324188)
(X_324  0.2754901945590973)
(X_325  0.2245098203420639)
(X_326  0.19705882668495178)
(X_327  0.29313725233078003)
(X_328  0.2617647051811218)
(X_329  0.14215686917304993)
(X_330  0.21666668355464935)
(X_331  0.32647058367729187)
(X_332  0.5245097875595093)
(X_333  0.42843136191368103)
(X_334  0.4205882251262665)
(X_335  0.4009803831577301)
(X_336  0.19901961088180542)
(X_337  0.1872549057006836)
(X_338  0.21470588445663452)
(X_339  0.27352941036224365)
(X_340  0.3127451241016388)
(X_341  0.3284313976764679)
(X_342  0.3637255132198334)
(X_343  0.3068627417087555)
(X_344  0.3598039448261261)
(X_345  0.33627453446388245)
(X_346  0.31666669249534607)
(X_347  0.20098040997982025)
(X_348  0.16568627953529358)
(X_349  0.12647059559822083)
(X_350  0.12254902720451355)
(X_351  0.24215686321258545)
(X_352  0.24607843160629272)
(X_353  0.25)
(X_354  0.25784313678741455)
(X_355  0.25784313678741455)
(X_356  0.24215686321258545)
(X_357  0.2343137264251709)
(X_358  0.2539215683937073)
(X_359  0.2813725471496582)
(X_360  0.12647059559822083)
(X_361  0.1460784375667572)
(X_362  0.1617647111415863)
(X_363  0.16960784792900085)
(X_364  0.17352941632270813)
(X_365  0.17352941632270813)
(X_366  0.17352941632270813)
(X_367  0.16960784792900085)
(X_368  0.2539215683937073)
(X_369  0.15392157435417175)
(X_370  0.1931372582912445)
(X_371  0.344117671251297)
(X_372  0.15392157435417175)
(X_373  0.16960784792900085)
(X_374  0.16568627953529358)
(X_375  0.13431373238563538)
(X_376  0.20686274766921997)
(X_377  0.20686274766921997)
(X_378  0.10686275362968445)
(X_379  0.0990196168422699)
(X_380  0.04019607976078987)
(X_381  0.05980392172932625)
(X_382  0.1715686321258545)
(X_383  0.16764706373214722)
(X_384  0.07156863063573837)
(X_385  0.0833333432674408)
(X_386  0.07941177487373352)
(X_387  0.05980392172932625)
(X_388  0.16764706373214722)
(X_389  0.18333333730697632)
(X_390  0.21078431606292725)
(X_391  0.23039215803146362)
(X_392  0.19901961088180542)
(X_393  0.22254902124404907)
(X_394  0.22647058963775635)
(X_395  0.19901961088180542)
(X_396  0.17941176891326904)
(X_397  0.19117647409439087)
(X_398  0.23039215803146362)
(X_399  0.25784313678741455)
(X_400  0.17549020051956177)
(X_401  0.1872549057006836)
(X_402  0.19117647409439087)
(X_403  0.17549020051956177)
(X_404  0.05980392172932625)
(X_405  0.0519607849419117)
(X_406  0.04803921654820442)
(X_407  0.04019607976078987)
(X_408  0.06372549384832382)
(X_409  0.06372549384832382)
(X_410  0.05588235333561897)
(X_411  0.04803921654820442)
(X_412  0.04803921654820442)
(X_413  0.15196079015731812)
(X_414  0.14803922176361084)
(X_415  0.1401960849761963)
(X_416  0.07156863063573837)
(X_417  0.07549020648002625)
(X_418  0.08725491166114807)
(X_419  0.19901961088180542)
(X_420  0.07941177487373352)
(X_421  0.11862745881080627)
(X_422  0.22254902124404907)
(X_423  0.17941176891326904)
(X_424  0.15196079015731812)
(X_425  0.0676470622420311)
(X_426  0.07941177487373352)
(X_427  0.07549020648002625)
(X_428  0.06372549384832382)
(X_429  0.14803922176361084)
(X_430  0.04411764815449715)
(X_431  0.05588235333561897)
(X_432  0.1558823585510254)
(X_433  0.1401960849761963)
(X_434  0.14803922176361084)
(X_435  0.07156863063573837)
(X_436  0.0519607849419117)
(X_437  0.02450980618596077)
(X_438  0.11666666716337204)
(X_439  0.12843137979507446)
(X_440  0.12843137979507446)
(X_441  0.004901961423456669)
(X_442  0.012745101936161518)
(X_443  0.04019607976078987)
(X_444  0.07941177487373352)
(X_445  0.06372549384832382)
(X_446  0.0519607849419117)
(X_447  0.1558823585510254)
(X_448  0.1401960849761963)
(X_449  0.14411765336990356)
(X_450  0.14803922176361084)
(X_451  0.1401960849761963)
(X_452  0.03235294297337532)
(X_453  0.028431374579668045)
(X_454  0.028431374579668045)
(X_455  0.036274511367082596)
(X_456  0.13235294818878174)
(X_457  0.13235294818878174)
(X_458  0.13235294818878174)
(X_459  0.13235294818878174)
(X_460  0.13235294818878174)
(X_461  0.13235294818878174)
(X_462  0.13235294818878174)
(X_463  0.13235294818878174)
(X_464  0.03235294297337532)
(X_465  0.028431374579668045)
(X_466  0.12843137979507446)
(X_467  0.12450980395078659)
(X_468  0.12450980395078659)
(X_469  0.12058823555707932)
(X_470  0.12058823555707932)
(X_471  0.12058823555707932)
(X_472  0.136274516582489)
(X_473  0.136274516582489)
(X_474  0.1401960849761963)
(X_475  0.1401960849761963)
(X_476  0.020588237792253494)
(X_477  0.028431374579668045)
(X_478  0.13235294818878174)
(X_479  0.13235294818878174)
(X_480  0.02450980618596077)
(X_481  0.02450980618596077)
(X_482  0.028431374579668045)
(X_483  0.03235294297337532)
(X_484  0.12450980395078659)
(X_485  0.12450980395078659)
(X_486  0.02450980618596077)
(X_487  0.02450980618596077)
(X_488  0.02450980618596077)
(X_489  0.02450980618596077)
(X_490  0.02450980618596077)
(X_491  0.02450980618596077)
(X_492  0.02450980618596077)
(X_493  0.02450980618596077)
(X_494  0.020588237792253494)
(X_495  0.020588237792253494)
(X_496  0.11666666716337204)
(X_497  0.11666666716337204)
(X_498  0.11666666716337204)
(X_499  0.012745101936161518)
(X_500  0.020588237792253494)
(X_501  0.020588237792253494)
(X_502  0.020588237792253494)
(X_503  0.02450980618596077)
(X_504  0.004901961423456669)
(X_505  0.012745101936161518)
(X_506  0.11666666716337204)
(X_507  0.11666666716337204)
(X_508  0.01666666939854622)
(X_509  0.01666666939854622)
(X_510  0.02450980618596077)
(X_511  0.028431374579668045)
(X_512  0.012745101936161518)
(X_513  0.012745101936161518)
(X_514  0.012745101936161518)
(X_515  0.012745101936161518)
(X_516  0.11274509876966476)
(X_517  0.012745101936161518)
(X_518  0.012745101936161518)
(X_519  0.012745101936161518)
(X_520  0.11666666716337204)
(X_521  0.01666666939854622)
(X_522  0.012745101936161518)
(X_523  0.012745101936161518)
(X_524  0.012745101936161518)
(X_525  0.012745101936161518)
(X_526  0.008823529817163944)
(X_527  0.008823529817163944)
(X_528  0.008823529817163944)
(X_529  0.008823529817163944)
(X_530  0.012745101936161518)
(X_531  0.012745101936161518)
(X_532  0.10098039358854294)
(X_533  0.10882353037595749)
(X_534  0.11274509876966476)
(X_535  0.11274509876966476)
(X_536  0.008823529817163944)
(X_537  0.008823529817163944)
(X_538  0.01666666939854622)
(X_539  0.020588237792253494)
(X_540  0.008823529817163944)
(X_541  0.008823529817163944)
(X_542  0.10882353037595749)
(X_543  0.10882353037595749)
(X_544  0.10882353037595749)
(X_545  0.10882353037595749)
(X_546  0.008823529817163944)
(X_547  0.008823529817163944)
(X_548  0.11274509876966476)
(X_549  0.11274509876966476)
(X_550  0.012745101936161518)
(X_551  0.012745101936161518)
(X_552  0.012745101936161518)
(X_553  0.11274509876966476)
(X_554  0.008823529817163944)
(X_555  0.008823529817163944)
(X_556  0.11666666716337204)
(X_557  0.11666666716337204)
(X_558  0.11666666716337204)
(X_559  0.11666666716337204)
(X_560  0.012745101936161518)
(X_561  0.01666666939854622)
(X_562  0.020588237792253494)
(X_563  0.01666666939854622)
(X_564  0.008823529817163944)
(X_565  0.004901961423456669)
(X_566  0.008823529817163944)
(X_567  0.012745101936161518)
(X_568  0.008823529817163944)
(X_569  0.10882353037595749)
(X_570  0.10882353037595749)
(X_571  0.10882353037595749)
(X_572  0.008823529817163944)
(X_573  0.008823529817163944)
(X_574  0.008823529817163944)
(X_575  0.008823529817163944)
(X_576  0.11274509876966476)
(X_577  0.012745101936161518)
(X_578  0.012745101936161518)
(X_579  0.11274509876966476)
(X_580  0.11274509876966476)
(X_581  0.11274509876966476)
(X_582  0.01666666939854622)
(X_583  0.01666666939854622)
(X_584  0.01666666939854622)
(X_585  0.01666666939854622)
(X_586  0.01666666939854622)
(X_587  0.01666666939854622)
(X_588  0.11666666716337204)
(X_589  0.12058823555707932)
(X_590  0.12450980395078659)
(X_591  0.01666666939854622)
(X_592  0.008823529817163944)
(X_593  0.0009803927969187498)
(X_594  0.004901961423456669)
(X_595  0.10882353037595749)
(X_596  0.008823529817163944)
(X_597  0.008823529817163944)
(X_598  0.008823529817163944)
(X_599  0.008823529817163944)
(X_600  0.008823529817163944)
(X_601  0.008823529817163944)
(X_602  0.10882353037595749)
(X_603  0.008823529817163944)
(X_604  0.10882353037595749)
(X_605  0.10882353037595749)
(X_606  0.11274509876966476)
(X_607  0.11274509876966476)
(X_608  0.11274509876966476)
(X_609  0.11274509876966476)
(X_610  0.01666666939854622)
(X_611  0.01666666939854622)
(X_612  0.012745101936161518)
(X_613  0.012745101936161518)
(X_614  0.008823529817163944)
(X_615  0.10882353037595749)
(X_616  0.10490196198225021)
(X_617  0.11274509876966476)
(X_618  0.11666666716337204)
(X_619  0.11274509876966476)
(X_620  0.10490196198225021)
(X_621  0.10098039358854294)
(X_622  0.004901961423456669)
(X_623  0.012745101936161518)
(X_624  0.10490196198225021)
(X_625  0.10490196198225021)
(X_626  0.10490196198225021)
(X_627  0.10490196198225021)
(X_628  0.10490196198225021)
(X_629  0.10490196198225021)
(X_630  0.10490196198225021)
(X_631  0.10490196198225021)
(X_632  0.0009803927969187498)
(X_633  0.10098039358854294)
(X_634  0.10490196198225021)
(X_635  0.10490196198225021)
(X_636  0.10882353037595749)
(X_637  0.10882353037595749)
(X_638  0.10882353037595749)
(X_639  0.11274509876966476)
(X_640  0.10882353037595749)
(X_641  0.10882353037595749)
(X_642  0.10882353037595749)
(X_643  0.10490196198225021)
(X_644  0.09313725680112839)
(X_645  0.10098039358854294)
(X_646  0.10490196198225021)
(X_647  0.004901961423456669)
(X_648  0.004901961423456669)
(X_649  0.10490196198225021)
(X_650  0.10882353037595749)
(X_651  0.01666666939854622)
(X_652  0.0009803927969187498)
(X_653  0.0009803927969187498)
(X_654  0.0009803927969187498)
(X_655  0.0009803927969187498)
(X_656  0.0009803927969187498)
(X_657  0.0009803927969187498)
(X_658  0.10098039358854294)
(X_659  0.10098039358854294)
(X_660  0.09313725680112839)
(X_661  0.09705882519483566)
(X_662  0.09705882519483566)
(X_663  0.10098039358854294)
(X_664  0.0009803927969187498)
(X_665  0.004901961423456669)
(X_666  0.004901961423456669)
(X_667  0.004901961423456669)
(X_668  0.01666666939854622)
(X_669  0.012745101936161518)
(X_670  0.012745101936161518)
(X_671  0.008823529817163944)
(X_672  0.10490196198225021)
(X_673  0.004901961423456669)
(X_674  0.004901961423456669)
(X_675  0.0009803927969187498)
(X_676  0.10098039358854294)
(X_677  0.10098039358854294)
(X_678  0.09705882519483566)
(X_679  0.09705882519483566)
(X_680  0.10882353037595749)
(X_681  0.10490196198225021)
(X_682  0.09705882519483566)
(X_683  0.0009803927969187498)
(X_684  0.004901961423456669)
(X_685  0.004901961423456669)
(X_686  0.0009803927969187498)
(X_687  -0.006862743757665157)
(X_688  0.09313725680112839)
(X_689  0.09313725680112839)
(X_690  0.09313725680112839)
(X_691  0.09313725680112839)
(X_692  0.09313725680112839)
(X_693  0.09313725680112839)
(X_694  0.09313725680112839)
(X_695  0.09313725680112839)
(X_696  0.10098039358854294)
(X_697  0.09705882519483566)
(X_698  0.09313725680112839)
(X_699  0.08921568840742111)
(X_700  0.10098039358854294)
(X_701  0.10098039358854294)
(X_702  0.10098039358854294)
(X_703  0.10098039358854294)
(X_704  -0.0029411755967885256)
(X_705  -0.0029411755967885256)
(X_706  -0.006862743757665157)
(X_707  -0.006862743757665157)
(X_708  0.008823529817163944)
(X_709  0.0009803927969187498)
(X_710  -0.0029411755967885256)
(X_711  -0.0029411755967885256)
(X_712  0.0009803927969187498)
(X_713  0.0009803927969187498)
(X_714  -0.0029411755967885256)
(X_715  -0.010784312151372433)
(X_716  0.09313725680112839)
(X_717  0.09313725680112839)
(X_718  -0.006862743757665157)
(X_719  -0.006862743757665157)
(X_720  -0.006862743757665157)
(X_721  -0.006862743757665157)
(X_722  -0.006862743757665157)
(X_723  -0.006862743757665157)
(X_724  0.0009803927969187498)
(X_725  -0.0029411755967885256)
(X_726  -0.006862743757665157)
(X_727  0.08921568840742111)
(X_728  0.09705882519483566)
(X_729  0.09705882519483566)
(X_730  0.09705882519483566)
(X_731  0.09313725680112839)
(X_732  0.09313725680112839)
(X_733  0.09313725680112839)
(X_734  0.08921568840742111)
(X_735  0.08921568840742111)
(X_736  0.0009803927969187498)
(X_737  -0.0029411755967885256)
(X_738  -0.010784312151372433)
(X_739  -0.006862743757665157)
(X_740  0.09705882519483566)
(X_741  0.09705882519483566)
(X_742  0.09313725680112839)
(X_743  0.08529412001371384)
(X_744  0.09313725680112839)
(X_745  0.09313725680112839)
(X_746  -0.006862743757665157)
(X_747  -0.006862743757665157)
(X_748  -0.006862743757665157)
(X_749  0.09313725680112839)
(X_750  0.09313725680112839)
(X_751  0.09313725680112839)
(X_752  0.10098039358854294)
(X_753  0.09705882519483566)
(X_754  0.09313725680112839)
(X_755  0.08921568840742111)
(X_756  0.09313725680112839)
(X_757  -0.006862743757665157)
(X_758  -0.006862743757665157)
(X_759  -0.010784312151372433)
(X_760  -0.010784312151372433)
(X_761  -0.014705880545079708)
(X_762  -0.014705880545079708)
(X_763  -0.014705880545079708)
(X_764  -0.0029411755967885256)
(X_765  0.09313725680112839)
(X_766  0.08529412001371384)
(X_767  -0.014705880545079708)
(X_768  -0.006862743757665157)
(X_769  -0.006862743757665157)
(X_770  -0.014705880545079708)
(X_771  -0.018627449870109558)
(X_772  -0.010784312151372433)
(X_773  -0.010784312151372433)
(X_774  -0.010784312151372433)
(X_775  -0.010784312151372433)
(X_776  -0.010784312151372433)
(X_777  -0.010784312151372433)
(X_778  -0.010784312151372433)
(X_779  -0.010784312151372433)
(X_780  0.0009803927969187498)
(X_781  -0.0029411755967885256)
(X_782  -0.006862743757665157)
(X_783  -0.010784312151372433)
(Y_0 -12.262052536010742)
(Y_1 18.07695198059082)
(Y_2 5.355038642883301)
(Y_3 -11.958793640136719))