((X_0  0.10980392247438431)
(X_1  0.11372549086809158)
(X_2  0.12156862765550613)
(X_3  0.125490203499794)
(X_4  0.125490203499794)
(X_5  0.12156862765550613)
(X_6  0.11372549086809158)
(X_7  0.10980392247438431)
(X_8  0.11764705926179886)
(X_9  0.11372549086809158)
(X_10  0.10980392247438431)
(X_11  0.10588235408067703)
(X_12  0.10588235408067703)
(X_13  0.10588235408067703)
(X_14  0.10588235408067703)
(X_15  0.10980392247438431)
(X_16  0.0941176488995552)
(X_17  0.10196078568696976)
(X_18  0.10980392247438431)
(X_19  0.10196078568696976)
(X_20  0.09019608050584793)
(X_21  0.09019608050584793)
(X_22  0.10588235408067703)
(X_23  0.11764705926179886)
(X_24  0.09803921729326248)
(X_25  0.10196078568696976)
(X_26  0.11372549086809158)
(X_27  0.125490203499794)
(X_28  0.11372549086809158)
(X_29  0.11764705926179886)
(X_30  0.11764705926179886)
(X_31  0.12156862765550613)
(X_32  0.12156862765550613)
(X_33  0.11764705926179886)
(X_34  0.11764705926179886)
(X_35  0.11372549086809158)
(X_36  0.12156862765550613)
(X_37  0.11764705926179886)
(X_38  0.11764705926179886)
(X_39  0.11372549086809158)
(X_40  0.10980392247438431)
(X_41  0.10980392247438431)
(X_42  0.11372549086809158)
(X_43  0.11372549086809158)
(X_44  0.125490203499794)
(X_45  0.12156862765550613)
(X_46  0.11764705926179886)
(X_47  0.10980392247438431)
(X_48  0.10196078568696976)
(X_49  0.10588235408067703)
(X_50  0.11372549086809158)
(X_51  0.12156862765550613)
(X_52  0.11764705926179886)
(X_53  0.11764705926179886)
(X_54  0.11764705926179886)
(X_55  0.11764705926179886)
(X_56  0.12156862765550613)
(X_57  0.11764705926179886)
(X_58  0.11764705926179886)
(X_59  0.11372549086809158)
(X_60  0.11372549086809158)
(X_61  0.11764705926179886)
(X_62  0.11764705926179886)
(X_63  0.12156862765550613)
(X_64  0.125490203499794)
(X_65  0.12156862765550613)
(X_66  0.11764705926179886)
(X_67  0.11764705926179886)
(X_68  0.11372549086809158)
(X_69  0.11372549086809158)
(X_70  0.11764705926179886)
(X_71  0.11764705926179886)
(X_72  0.12156862765550613)
(X_73  0.11372549086809158)
(X_74  0.10588235408067703)
(X_75  0.10196078568696976)
(X_76  0.10980392247438431)
(X_77  0.11372549086809158)
(X_78  0.11764705926179886)
(X_79  0.11764705926179886)
(X_80  0.12941177189350128)
(X_81  0.12941177189350128)
(X_82  0.125490203499794)
(X_83  0.11764705926179886)
(X_84  0.125490203499794)
(X_85  0.12156862765550613)
(X_86  0.11372549086809158)
(X_87  0.10980392247438431)
(X_88  0.10980392247438431)
(X_89  0.11372549086809158)
(X_90  0.12156862765550613)
(X_91  0.125490203499794)
(X_92  0.125490203499794)
(X_93  0.12156862765550613)
(X_94  0.11764705926179886)
(X_95  0.11372549086809158)
(X_96  0.11372549086809158)
(X_97  0.11372549086809158)
(X_98  0.11372549086809158)
(X_99  0.11372549086809158)
(X_100  0.10980392247438431)
(X_101  0.10196078568696976)
(X_102  0.09803921729326248)
(X_103  0.10980392247438431)
(X_104  0.125490203499794)
(X_105  0.13333334028720856)
(X_106  0.125490203499794)
(X_107  0.11372549086809158)
(X_108  0.10980392247438431)
(X_109  0.10588235408067703)
(X_110  0.10588235408067703)
(X_111  0.10196078568696976)
(X_112  0.125490203499794)
(X_113  0.12156862765550613)
(X_114  0.11372549086809158)
(X_115  0.10980392247438431)
(X_116  0.10980392247438431)
(X_117  0.11372549086809158)
(X_118  0.12156862765550613)
(X_119  0.125490203499794)
(X_120  0.11764705926179886)
(X_121  0.11764705926179886)
(X_122  0.11372549086809158)
(X_123  0.10980392247438431)
(X_124  0.10588235408067703)
(X_125  0.10588235408067703)
(X_126  0.10980392247438431)
(X_127  0.10980392247438431)
(X_128  0.11372549086809158)
(X_129  0.10980392247438431)
(X_130  0.10980392247438431)
(X_131  0.125490203499794)
(X_132  0.1411764770746231)
(X_133  0.1411764770746231)
(X_134  0.125490203499794)
(X_135  0.10980392247438431)
(X_136  0.12941177189350128)
(X_137  0.12941177189350128)
(X_138  0.12941177189350128)
(X_139  0.12941177189350128)
(X_140  0.12156862765550613)
(X_141  0.11764705926179886)
(X_142  0.11764705926179886)
(X_143  0.11372549086809158)
(X_144  0.11372549086809158)
(X_145  0.11764705926179886)
(X_146  0.11764705926179886)
(X_147  0.12156862765550613)
(X_148  0.11764705926179886)
(X_149  0.11372549086809158)
(X_150  0.10980392247438431)
(X_151  0.10588235408067703)
(X_152  0.10588235408067703)
(X_153  0.10588235408067703)
(X_154  0.10588235408067703)
(X_155  0.10980392247438431)
(X_156  0.11372549086809158)
(X_157  0.10980392247438431)
(X_158  0.10980392247438431)
(X_159  0.11372549086809158)
(X_160  0.11764705926179886)
(X_161  0.11372549086809158)
(X_162  0.10588235408067703)
(X_163  0.09803921729326248)
(X_164  0.10196078568696976)
(X_165  0.10196078568696976)
(X_166  0.10588235408067703)
(X_167  0.10588235408067703)
(X_168  0.11372549086809158)
(X_169  0.11764705926179886)
(X_170  0.11764705926179886)
(X_171  0.12156862765550613)
(X_172  0.12156862765550613)
(X_173  0.11764705926179886)
(X_174  0.11764705926179886)
(X_175  0.11372549086809158)
(X_176  0.12156862765550613)
(X_177  0.11764705926179886)
(X_178  0.11372549086809158)
(X_179  0.10980392247438431)
(X_180  0.10980392247438431)
(X_181  0.10980392247438431)
(X_182  0.10980392247438431)
(X_183  0.11372549086809158)
(X_184  0.11372549086809158)
(X_185  0.11372549086809158)
(X_186  0.10588235408067703)
(X_187  0.10196078568696976)
(X_188  0.09803921729326248)
(X_189  0.10980392247438431)
(X_190  0.12941177189350128)
(X_191  0.14509804546833038)
(X_192  0.10980392247438431)
(X_193  0.11764705926179886)
(X_194  0.12941177189350128)
(X_195  0.1411764770746231)
(X_196  0.10980392247438431)
(X_197  0.11372549086809158)
(X_198  0.12156862765550613)
(X_199  0.125490203499794)
(X_200  0.125490203499794)
(X_201  0.12156862765550613)
(X_202  0.11372549086809158)
(X_203  0.10980392247438431)
(X_204  0.125490203499794)
(X_205  0.12156862765550613)
(X_206  0.11764705926179886)
(X_207  0.11372549086809158)
(X_208  0.11372549086809158)
(X_209  0.11372549086809158)
(X_210  0.11372549086809158)
(X_211  0.11764705926179886)
(X_212  0.13725490868091583)
(X_213  0.13333334028720856)
(X_214  0.125490203499794)
(X_215  0.11372549086809158)
(X_216  0.11764705926179886)
(X_217  0.14901961386203766)
(X_218  0.19607843458652496)
(X_219  0.23529411852359772)
(X_220  0.30588236451148987)
(X_221  0.32156863808631897)
(X_222  0.3450980484485626)
(X_223  0.364705890417099)
(X_224  0.24313725531101227)
(X_225  0.25882354378700256)
(X_226  0.27450981736183167)
(X_227  0.2823529541492462)
(X_228  0.2705882489681244)
(X_229  0.24313725531101227)
(X_230  0.21176470816135406)
(X_231  0.1882352977991104)
(X_232  0.14901961386203766)
(X_233  0.15294118225574493)
(X_234  0.125490203499794)
(X_235  0.08627451211214066)
(X_236  0.0784313753247261)
(X_237  0.0941176488995552)
(X_238  0.10196078568696976)
(X_239  0.09019608050584793)
(X_240  0.10196078568696976)
(X_241  0.13333334028720856)
(X_242  0.1764705926179886)
(X_243  0.21568627655506134)
(X_244  0.26274511218070984)
(X_245  0.3176470696926117)
(X_246  0.3686274588108063)
(X_247  0.4000000059604645)
(X_248  0.4000000059604645)
(X_249  0.4156862795352936)
(X_250  0.4313725531101227)
(X_251  0.4313725531101227)
(X_252  0.3921568691730499)
(X_253  0.3960784375667572)
(X_254  0.40784314274787903)
(X_255  0.41960784792900085)
(X_256  0.42352941632270813)
(X_257  0.4156862795352936)
(X_258  0.40392157435417175)
(X_259  0.3921568691730499)
(X_260  0.34117648005485535)
(X_261  0.3333333432674408)
(X_262  0.2980392277240753)
(X_263  0.239215686917305)
(X_264  0.20392157137393951)
(X_265  0.1921568661928177)
(X_266  0.1882352977991104)
(X_267  0.1725490242242813)
(X_268  0.2705882489681244)
(X_269  0.3019607961177826)
(X_270  0.3137255012989044)
(X_271  0.30588236451148987)
(X_272  0.30980393290519714)
(X_273  0.3294117748737335)
(X_274  0.3450980484485626)
(X_275  0.33725491166114807)
(X_276  0.3607843220233917)
(X_277  0.3529411852359772)
(X_278  0.33725491166114807)
(X_279  0.32549020648002625)
(X_280  0.35686275362968445)
(X_281  0.34117648005485535)
(X_282  0.32549020648002625)
(X_283  0.3176470696926117)
(X_284  0.3137255012989044)
(X_285  0.30980393290519714)
(X_286  0.29411765933036804)
(X_287  0.2823529541492462)
(X_288  0.30588236451148987)
(X_289  0.30980393290519714)
(X_290  0.29411765933036804)
(X_291  0.250980406999588)
(X_292  0.2235294133424759)
(X_293  0.21568627655506134)
(X_294  0.2235294133424759)
(X_295  0.2235294133424759)
(X_296  0.20392157137393951)
(X_297  0.23529411852359772)
(X_298  0.23137255012989044)
(X_299  0.1921568661928177)
(X_300  0.1921568661928177)
(X_301  0.239215686917305)
(X_302  0.26274511218070984)
(X_303  0.24705882370471954)
(X_304  0.23137255012989044)
(X_305  0.239215686917305)
(X_306  0.25882354378700256)
(X_307  0.2823529541492462)
(X_308  0.3137255012989044)
(X_309  0.29411765933036804)
(X_310  0.2705882489681244)
(X_311  0.2666666805744171)
(X_312  0.27450981736183167)
(X_313  0.27843138575553894)
(X_314  0.2705882489681244)
(X_315  0.25882354378700256)
(X_316  0.18039216101169586)
(X_317  0.19607843458652496)
(X_318  0.20392157137393951)
(X_319  0.1921568661928177)
(X_320  0.18431372940540314)
(X_321  0.1921568661928177)
(X_322  0.21568627655506134)
(X_323  0.23137255012989044)
(X_324  0.23137255012989044)
(X_325  0.25882354378700256)
(X_326  0.24705882370471954)
(X_327  0.2078431397676468)
(X_328  0.23529411852359772)
(X_329  0.3294117748737335)
(X_330  0.3843137323856354)
(X_331  0.3803921639919281)
(X_332  0.46666666865348816)
(X_333  0.47843137383461)
(X_334  0.501960813999176)
(X_335  0.5333333611488342)
(X_336  0.2549019753932953)
(X_337  0.250980406999588)
(X_338  0.2549019753932953)
(X_339  0.2705882489681244)
(X_340  0.2980392277240753)
(X_341  0.3137255012989044)
(X_342  0.3176470696926117)
(X_343  0.3176470696926117)
(X_344  0.3607843220233917)
(X_345  0.3607843220233917)
(X_346  0.364705890417099)
(X_347  0.35686275362968445)
(X_348  0.34117648005485535)
(X_349  0.3333333432674408)
(X_350  0.34117648005485535)
(X_351  0.35686275362968445)
(X_352  0.46666666865348816)
(X_353  0.4901960790157318)
(X_354  0.47843137383461)
(X_355  0.4431372582912445)
(X_356  0.46666666865348816)
(X_357  0.5333333611488342)
(X_358  0.5686274766921997)
(X_359  0.5568627715110779)
(X_360  0.49803921580314636)
(X_361  0.47058823704719543)
(X_362  0.43921568989753723)
(X_363  0.42352941632270813)
(X_364  0.5137255191802979)
(X_365  0.5137255191802979)
(X_366  0.5098039507865906)
(X_367  0.501960813999176)
(X_368  0.4941176474094391)
(X_369  0.48235294222831726)
(X_370  0.4745098054409027)
(X_371  0.47058823704719543)
(X_372  0.4627451002597809)
(X_373  0.4470588266849518)
(X_374  0.43529412150382996)
(X_375  0.4313725531101227)
(X_376  0.41960784792900085)
(X_377  0.3960784375667572)
(X_378  0.3843137323856354)
(X_379  0.38823530077934265)
(X_380  0.32549020648002625)
(X_381  0.33725491166114807)
(X_382  0.34117648005485535)
(X_383  0.3333333432674408)
(X_384  0.33725491166114807)
(X_385  0.34117648005485535)
(X_386  0.32549020648002625)
(X_387  0.3019607961177826)
(X_388  0.30980393290519714)
(X_389  0.3019607961177826)
(X_390  0.29019609093666077)
(X_391  0.2862745225429535)
(X_392  0.3490196168422699)
(X_393  0.3490196168422699)
(X_394  0.33725491166114807)
(X_395  0.3019607961177826)
(X_396  0.25882354378700256)
(X_397  0.22745098173618317)
(X_398  0.21960784494876862)
(X_399  0.21960784494876862)
(X_400  0.2666666805744171)
(X_401  0.24313725531101227)
(X_402  0.23529411852359772)
(X_403  0.25882354378700256)
(X_404  0.27450981736183167)
(X_405  0.26274511218070984)
(X_406  0.250980406999588)
(X_407  0.250980406999588)
(X_408  0.25882354378700256)
(X_409  0.24313725531101227)
(X_410  0.24705882370471954)
(X_411  0.2705882489681244)
(X_412  0.27843138575553894)
(X_413  0.2549019753932953)
(X_414  0.23137255012989044)
(X_415  0.22745098173618317)
(X_416  0.1764705926179886)
(X_417  0.20392157137393951)
(X_418  0.23529411852359772)
(X_419  0.25882354378700256)
(X_420  0.1921568661928177)
(X_421  0.2078431397676468)
(X_422  0.21568627655506134)
(X_423  0.20000000298023224)
(X_424  0.1764705926179886)
(X_425  0.1725490242242813)
(X_426  0.20000000298023224)
(X_427  0.22745098173618317)
(X_428  0.18431372940540314)
(X_429  0.1568627506494522)
(X_430  0.15294118225574493)
(X_431  0.19607843458652496)
(X_432  0.23137255012989044)
(X_433  0.23137255012989044)
(X_434  0.21960784494876862)
(X_435  0.21960784494876862)
(X_436  0.22745098173618317)
(X_437  0.18039216101169586)
(X_438  0.16470588743686676)
(X_439  0.19607843458652496)
(X_440  0.2078431397676468)
(X_441  0.1882352977991104)
(X_442  0.1921568661928177)
(X_443  0.21960784494876862)
(X_444  0.19607843458652496)
(X_445  0.20392157137393951)
(X_446  0.2078431397676468)
(X_447  0.20000000298023224)
(X_448  0.14901961386203766)
(X_449  0.1568627506494522)
(X_450  0.16862745583057404)
(X_451  0.18039216101169586)
(X_452  0.1921568661928177)
(X_453  0.19607843458652496)
(X_454  0.20000000298023224)
(X_455  0.20000000298023224)
(X_456  0.18039216101169586)
(X_457  0.1764705926179886)
(X_458  0.16470588743686676)
(X_459  0.1568627506494522)
(X_460  0.15294118225574493)
(X_461  0.14901961386203766)
(X_462  0.15294118225574493)
(X_463  0.15294118225574493)
(X_464  0.16078431904315948)
(X_465  0.16078431904315948)
(X_466  0.16078431904315948)
(X_467  0.16078431904315948)
(X_468  0.16078431904315948)
(X_469  0.16078431904315948)
(X_470  0.16078431904315948)
(X_471  0.16078431904315948)
(X_472  0.16078431904315948)
(X_473  0.1568627506494522)
(X_474  0.15294118225574493)
(X_475  0.14509804546833038)
(X_476  0.13725490868091583)
(X_477  0.1411764770746231)
(X_478  0.14901961386203766)
(X_479  0.1568627506494522)
(X_480  0.16078431904315948)
(X_481  0.16078431904315948)
(X_482  0.16078431904315948)
(X_483  0.1568627506494522)
(X_484  0.15294118225574493)
(X_485  0.14901961386203766)
(X_486  0.1411764770746231)
(X_487  0.13333334028720856)
(X_488  0.125490203499794)
(X_489  0.125490203499794)
(X_490  0.125490203499794)
(X_491  0.125490203499794)
(X_492  0.125490203499794)
(X_493  0.125490203499794)
(X_494  0.125490203499794)
(X_495  0.125490203499794)
(X_496  0.125490203499794)
(X_497  0.125490203499794)
(X_498  0.125490203499794)
(X_499  0.125490203499794)
(X_500  0.12156862765550613)
(X_501  0.11764705926179886)
(X_502  0.11372549086809158)
(X_503  0.10588235408067703)
(X_504  0.11764705926179886)
(X_505  0.11764705926179886)
(X_506  0.11764705926179886)
(X_507  0.11764705926179886)
(X_508  0.11764705926179886)
(X_509  0.11372549086809158)
(X_510  0.10980392247438431)
(X_511  0.10588235408067703)
(X_512  0.11372549086809158)
(X_513  0.10980392247438431)
(X_514  0.10588235408067703)
(X_515  0.09803921729326248)
(X_516  0.0941176488995552)
(X_517  0.0941176488995552)
(X_518  0.09019608050584793)
(X_519  0.0941176488995552)
(X_520  0.08627451211214066)
(X_521  0.08627451211214066)
(X_522  0.08627451211214066)
(X_523  0.08627451211214066)
(X_524  0.08627451211214066)
(X_525  0.08627451211214066)
(X_526  0.08627451211214066)
(X_527  0.08627451211214066)
(X_528  0.08627451211214066)
(X_529  0.08235294371843338)
(X_530  0.07450980693101883)
(X_531  0.07058823853731155)
(X_532  0.09803921729326248)
(X_533  0.09803921729326248)
(X_534  0.0941176488995552)
(X_535  0.0941176488995552)
(X_536  0.09019608050584793)
(X_537  0.08627451211214066)
(X_538  0.08235294371843338)
(X_539  0.0784313753247261)
(X_540  0.09019608050584793)
(X_541  0.08627451211214066)
(X_542  0.08235294371843338)
(X_543  0.0784313753247261)
(X_544  0.07450980693101883)
(X_545  0.07450980693101883)
(X_546  0.07058823853731155)
(X_547  0.07058823853731155)
(X_548  0.07058823853731155)
(X_549  0.07058823853731155)
(X_550  0.07058823853731155)
(X_551  0.07058823853731155)
(X_552  0.07058823853731155)
(X_553  0.07058823853731155)
(X_554  0.07058823853731155)
(X_555  0.07058823853731155)
(X_556  0.07450980693101883)
(X_557  0.07450980693101883)
(X_558  0.06666667014360428)
(X_559  0.062745101749897)
(X_560  0.08235294371843338)
(X_561  0.08235294371843338)
(X_562  0.08235294371843338)
(X_563  0.0784313753247261)
(X_564  0.0784313753247261)
(X_565  0.07450980693101883)
(X_566  0.07450980693101883)
(X_567  0.07450980693101883)
(X_568  0.0784313753247261)
(X_569  0.0784313753247261)
(X_570  0.0784313753247261)
(X_571  0.07450980693101883)
(X_572  0.07450980693101883)
(X_573  0.07058823853731155)
(X_574  0.06666667014360428)
(X_575  0.06666667014360428)
(X_576  0.06666667014360428)
(X_577  0.06666667014360428)
(X_578  0.06666667014360428)
(X_579  0.06666667014360428)
(X_580  0.06666667014360428)
(X_581  0.06666667014360428)
(X_582  0.06666667014360428)
(X_583  0.06666667014360428)
(X_584  0.0784313753247261)
(X_585  0.07450980693101883)
(X_586  0.07058823853731155)
(X_587  0.06666667014360428)
(X_588  0.0784313753247261)
(X_589  0.07450980693101883)
(X_590  0.07450980693101883)
(X_591  0.07058823853731155)
(X_592  0.07058823853731155)
(X_593  0.07058823853731155)
(X_594  0.07450980693101883)
(X_595  0.0784313753247261)
(X_596  0.07450980693101883)
(X_597  0.07450980693101883)
(X_598  0.0784313753247261)
(X_599  0.0784313753247261)
(X_600  0.07450980693101883)
(X_601  0.07058823853731155)
(X_602  0.06666667014360428)
(X_603  0.062745101749897)
(X_604  0.05882352963089943)
(X_605  0.05882352963089943)
(X_606  0.05882352963089943)
(X_607  0.05882352963089943)
(X_608  0.05882352963089943)
(X_609  0.05882352963089943)
(X_610  0.05882352963089943)
(X_611  0.05882352963089943)
(X_612  0.07058823853731155)
(X_613  0.06666667014360428)
(X_614  0.062745101749897)
(X_615  0.05882352963089943)
(X_616  0.0784313753247261)
(X_617  0.07450980693101883)
(X_618  0.06666667014360428)
(X_619  0.062745101749897)
(X_620  0.05882352963089943)
(X_621  0.062745101749897)
(X_622  0.062745101749897)
(X_623  0.06666667014360428)
(X_624  0.06666667014360428)
(X_625  0.07058823853731155)
(X_626  0.07450980693101883)
(X_627  0.07450980693101883)
(X_628  0.07450980693101883)
(X_629  0.07058823853731155)
(X_630  0.062745101749897)
(X_631  0.05882352963089943)
(X_632  0.05882352963089943)
(X_633  0.05882352963089943)
(X_634  0.05882352963089943)
(X_635  0.05882352963089943)
(X_636  0.05882352963089943)
(X_637  0.05882352963089943)
(X_638  0.05882352963089943)
(X_639  0.05882352963089943)
(X_640  0.062745101749897)
(X_641  0.062745101749897)
(X_642  0.05882352963089943)
(X_643  0.054901961237192154)
(X_644  0.0784313753247261)
(X_645  0.07058823853731155)
(X_646  0.062745101749897)
(X_647  0.054901961237192154)
(X_648  0.05098039284348488)
(X_649  0.05098039284348488)
(X_650  0.05098039284348488)
(X_651  0.05098039284348488)
(X_652  0.05882352963089943)
(X_653  0.062745101749897)
(X_654  0.06666667014360428)
(X_655  0.07058823853731155)
(X_656  0.07058823853731155)
(X_657  0.062745101749897)
(X_658  0.05882352963089943)
(X_659  0.054901961237192154)
(X_660  0.062745101749897)
(X_661  0.062745101749897)
(X_662  0.062745101749897)
(X_663  0.062745101749897)
(X_664  0.062745101749897)
(X_665  0.062745101749897)
(X_666  0.062745101749897)
(X_667  0.062745101749897)
(X_668  0.062745101749897)
(X_669  0.05882352963089943)
(X_670  0.054901961237192154)
(X_671  0.054901961237192154)
(X_672  0.0470588244497776)
(X_673  0.054901961237192154)
(X_674  0.05882352963089943)
(X_675  0.062745101749897)
(X_676  0.062745101749897)
(X_677  0.05882352963089943)
(X_678  0.05098039284348488)
(X_679  0.05098039284348488)
(X_680  0.0470588244497776)
(X_681  0.05098039284348488)
(X_682  0.054901961237192154)
(X_683  0.054901961237192154)
(X_684  0.054901961237192154)
(X_685  0.054901961237192154)
(X_686  0.054901961237192154)
(X_687  0.05882352963089943)
(X_688  0.05098039284348488)
(X_689  0.05882352963089943)
(X_690  0.062745101749897)
(X_691  0.062745101749897)
(X_692  0.05882352963089943)
(X_693  0.05882352963089943)
(X_694  0.062745101749897)
(X_695  0.07058823853731155)
(X_696  0.062745101749897)
(X_697  0.0)
(X_698  0.0)
(X_699  0.0)
(X_700  0.06666667014360428)
(X_701  0.07058823853731155)
(X_702  0.07058823853731155)
(X_703  0.06666667014360428)
(X_704  0.05882352963089943)
(X_705  0.05098039284348488)
(X_706  0.05098039284348488)
(X_707  0.05098039284348488)
(X_708  0.062745101749897)
(X_709  0.06666667014360428)
(X_710  0.06666667014360428)
(X_711  0.062745101749897)
(X_712  0.054901961237192154)
(X_713  0.05098039284348488)
(X_714  0.05098039284348488)
(X_715  0.05098039284348488)
(X_716  0.054901961237192154)
(X_717  0.062745101749897)
(X_718  0.06666667014360428)
(X_719  0.05882352963089943)
(X_720  0.05098039284348488)
(X_721  0.04313725605607033)
(X_722  0.04313725605607033)
(X_723  0.0470588244497776)
(X_724  0.027450980618596077)
(X_725  0.0)
(X_726  0.0)
(X_727  0.0)
(X_728  0.062745101749897)
(X_729  0.06666667014360428)
(X_730  0.06666667014360428)
(X_731  0.05882352963089943)
(X_732  0.054901961237192154)
(X_733  0.054901961237192154)
(X_734  0.062745101749897)
(X_735  0.07058823853731155)
(X_736  0.0470588244497776)
(X_737  0.062745101749897)
(X_738  0.08627451211214066)
(X_739  0.10588235408067703)
(X_740  0.12156862765550613)
(X_741  0.13725490868091583)
(X_742  0.1568627506494522)
(X_743  0.16862745583057404)
(X_744  0.22745098173618317)
(X_745  0.250980406999588)
(X_746  0.29019609093666077)
(X_747  0.3294117748737335)
(X_748  0.364705890417099)
(X_749  0.4000000059604645)
(X_750  0.4313725531101227)
(X_751  0.45098039507865906)
(X_752  0.5960784554481506)
(X_753  0.0)
(X_754  0.0)
(X_755  0.0)
(X_756  0.18039216101169586)
(X_757  0.2078431397676468)
(X_758  0.250980406999588)
(X_759  0.3019607961177826)
(X_760  0.35686275362968445)
(X_761  0.42352941632270813)
(X_762  0.48627451062202454)
(X_763  0.5254902243614197)
(X_764  0.6235294342041016)
(X_765  0.6549019813537598)
(X_766  0.6980392336845398)
(X_767  0.7450980544090271)
(X_768  0.7843137383460999)
(X_769  0.8235294222831726)
(X_770  0.8627451062202454)
(X_771  0.886274516582489)
(X_772  0.8980392217636108)
(X_773  0.9137254953384399)
(X_774  0.9411764740943909)
(X_775  0.9647058844566345)
(X_776  0.9843137264251709)
(X_777  1.0)
(X_778  1.0)
(X_779  1.0)
(X_780  0.9843137264251709)
(X_781  0.9921568632125854)
(X_782  1.0)
(X_783  1.0)
(Y_0 -1.438127875328064)
(Y_1 -1.9402925968170166)
(Y_2 0.9152539372444153)
(Y_3 1.0943289995193481))