((X_0  1.0421568155288696)
(X_1  0.9460784196853638)
(X_2  0.9460784196853638)
(X_3  0.949999988079071)
(X_4  0.949999988079071)
(X_5  0.949999988079071)
(X_6  1.0460784435272217)
(X_7  1.0421568155288696)
(X_8  1.0499999523162842)
(X_9  1.0499999523162842)
(X_10  1.0499999523162842)
(X_11  1.0499999523162842)
(X_12  1.0499999523162842)
(X_13  1.0460784435272217)
(X_14  1.0421568155288696)
(X_15  0.9421568512916565)
(X_16  1.0499999523162842)
(X_17  0.949999988079071)
(X_18  0.949999988079071)
(X_19  1.0499999523162842)
(X_20  1.0460784435272217)
(X_21  1.0382353067398071)
(X_22  1.0303921699523926)
(X_23  1.022549033164978)
(X_24  0.9225490093231201)
(X_25  0.9147058725357056)
(X_26  0.9107843041419983)
(X_27  0.9029411673545837)
(X_28  0.8931372761726379)
(X_29  0.8892157077789307)
(X_30  0.7735294103622437)
(X_31  0.8539215922355652)
(X_32  0.7303921580314636)
(X_33  0.70686274766922)
(X_34  0.6872549057006836)
(X_35  0.6754902005195618)
(X_36  0.7166666984558105)
(X_37  0.6088235378265381)
(X_38  0.593137264251709)
(X_39  0.6696078777313232)
(X_40  0.6500000357627869)
(X_41  0.6303921937942505)
(X_42  0.6147059202194214)
(X_43  0.6029412150382996)
(X_44  0.49313727021217346)
(X_45  0.3892156779766083)
(X_46  0.3813725411891937)
(X_47  0.3735294044017792)
(X_48  0.36176469922065735)
(X_49  0.3499999940395355)
(X_50  0.4421568810939789)
(X_51  0.43431374430656433)
(X_52  0.3794117867946625)
(X_53  0.2754901945590973)
(X_54  0.26764705777168274)
(X_55  0.26372548937797546)
(X_56  0.23039215803146362)
(X_57  0.12647059559822083)
(X_58  0.11862745881080627)
(X_59  0.11078432202339172)
(X_60  0.19509804248809814)
(X_61  0.07941177487373352)
(X_62  0.0676470622420311)
(X_63  0.05980392172932625)
(X_64  0.0833333432674408)
(X_65  0.07941177487373352)
(X_66  0.1715686321258545)
(X_67  0.15980392694473267)
(X_68  0.14411765336990356)
(X_69  0.13235294818878174)
(X_70  0.12450980395078659)
(X_71  0.12058823555707932)
(X_72  0.0833333432674408)
(X_73  0.07941177487373352)
(X_74  0.07156863063573837)
(X_75  0.06372549384832382)
(X_76  0.05588235333561897)
(X_77  0.14803922176361084)
(X_78  0.14411765336990356)
(X_79  0.14411765336990356)
(X_80  0.18333333730697632)
(X_81  0.18333333730697632)
(X_82  0.17941176891326904)
(X_83  0.17549020051956177)
(X_84  0.036274511367082596)
(X_85  0.04019607976078987)
(X_86  0.04803921654820442)
(X_87  0.05588235333561897)
(X_88  0.16372549533843994)
(X_89  0.1715686321258545)
(X_90  0.1715686321258545)
(X_91  0.17549020051956177)
(X_92  0.15196079015731812)
(X_93  0.1558823585510254)
(X_94  0.1558823585510254)
(X_95  0.15980392694473267)
(X_96  0.06372549384832382)
(X_97  0.06372549384832382)
(X_98  0.0676470622420311)
(X_99  0.0676470622420311)
(X_100  0.05980392172932625)
(X_101  0.05588235333561897)
(X_102  0.05588235333561897)
(X_103  0.0519607849419117)
(X_104  0.1558823585510254)
(X_105  0.06372549384832382)
(X_106  0.1715686321258545)
(X_107  0.17941176891326904)
(X_108  0.0676470622420311)
(X_109  0.06372549384832382)
(X_110  0.06372549384832382)
(X_111  0.06372549384832382)
(X_112  0.15196079015731812)
(X_113  0.1558823585510254)
(X_114  0.15980392694473267)
(X_115  0.16372549533843994)
(X_116  0.0676470622420311)
(X_117  0.0676470622420311)
(X_118  0.16764706373214722)
(X_119  0.06372549384832382)
(X_120  0.0676470622420311)
(X_121  0.0676470622420311)
(X_122  0.06372549384832382)
(X_123  0.06372549384832382)
(X_124  0.05980392172932625)
(X_125  0.05980392172932625)
(X_126  0.05980392172932625)
(X_127  0.05588235333561897)
(X_128  0.1558823585510254)
(X_129  0.1558823585510254)
(X_130  0.1558823585510254)
(X_131  0.05980392172932625)
(X_132  0.0676470622420311)
(X_133  0.07941177487373352)
(X_134  0.09509804844856262)
(X_135  0.0990196168422699)
(X_136  0.2029411792755127)
(X_137  0.2029411792755127)
(X_138  0.2029411792755127)
(X_139  0.10686275362968445)
(X_140  0.0833333432674408)
(X_141  0.0833333432674408)
(X_142  0.0833333432674408)
(X_143  0.18333333730697632)
(X_144  0.18333333730697632)
(X_145  0.17941176891326904)
(X_146  0.07549020648002625)
(X_147  0.07156863063573837)
(X_148  0.14411765336990356)
(X_149  0.04411764815449715)
(X_150  0.04411764815449715)
(X_151  0.14411765336990356)
(X_152  0.1401960849761963)
(X_153  0.1401960849761963)
(X_154  0.1401960849761963)
(X_155  0.1401960849761963)
(X_156  0.15980392694473267)
(X_157  0.1558823585510254)
(X_158  0.05980392172932625)
(X_159  0.05980392172932625)
(X_160  0.16372549533843994)
(X_161  0.16764706373214722)
(X_162  0.1715686321258545)
(X_163  0.17549020051956177)
(X_164  0.15196079015731812)
(X_165  0.1558823585510254)
(X_166  0.15980392694473267)
(X_167  0.16372549533843994)
(X_168  0.12450980395078659)
(X_169  0.02450980618596077)
(X_170  0.03235294297337532)
(X_171  0.036274511367082596)
(X_172  0.036274511367082596)
(X_173  0.1401960849761963)
(X_174  0.1401960849761963)
(X_175  0.036274511367082596)
(X_176  0.136274516582489)
(X_177  0.04019607976078987)
(X_178  0.04019607976078987)
(X_179  0.14411765336990356)
(X_180  0.15196079015731812)
(X_181  0.1558823585510254)
(X_182  0.1558823585510254)
(X_183  0.15980392694473267)
(X_184  0.04803921654820442)
(X_185  0.04803921654820442)
(X_186  0.04803921654820442)
(X_187  0.04803921654820442)
(X_188  0.04411764815449715)
(X_189  0.04019607976078987)
(X_190  0.136274516582489)
(X_191  0.136274516582489)
(X_192  0.136274516582489)
(X_193  0.1401960849761963)
(X_194  0.14803922176361084)
(X_195  0.15196079015731812)
(X_196  0.1558823585510254)
(X_197  0.15980392694473267)
(X_198  0.16372549533843994)
(X_199  0.16372549533843994)
(X_200  0.06372549384832382)
(X_201  0.06372549384832382)
(X_202  0.05980392172932625)
(X_203  0.05980392172932625)
(X_204  0.05980392172932625)
(X_205  0.05980392172932625)
(X_206  0.1558823585510254)
(X_207  0.0519607849419117)
(X_208  0.04803921654820442)
(X_209  0.04411764815449715)
(X_210  0.04019607976078987)
(X_211  0.1401960849761963)
(X_212  0.1558823585510254)
(X_213  0.15980392694473267)
(X_214  0.16372549533843994)
(X_215  0.0676470622420311)
(X_216  0.06372549384832382)
(X_217  0.05980392172932625)
(X_218  0.0519607849419117)
(X_219  0.04803921654820442)
(X_220  0.136274516582489)
(X_221  0.1401960849761963)
(X_222  0.04411764815449715)
(X_223  0.0519607849419117)
(X_224  0.06372549384832382)
(X_225  0.06372549384832382)
(X_226  0.05980392172932625)
(X_227  0.05588235333561897)
(X_228  0.04803921654820442)
(X_229  0.04411764815449715)
(X_230  0.04411764815449715)
(X_231  0.04411764815449715)
(X_232  0.1401960849761963)
(X_233  0.14803922176361084)
(X_234  0.14803922176361084)
(X_235  0.136274516582489)
(X_236  0.12058823555707932)
(X_237  0.12058823555707932)
(X_238  0.1401960849761963)
(X_239  0.1558823585510254)
(X_240  0.06372549384832382)
(X_241  0.05588235333561897)
(X_242  0.04803921654820442)
(X_243  0.04411764815449715)
(X_244  0.14411765336990356)
(X_245  0.14803922176361084)
(X_246  0.1558823585510254)
(X_247  0.15980392694473267)
(X_248  0.14411765336990356)
(X_249  0.036274511367082596)
(X_250  0.03235294297337532)
(X_251  0.1401960849761963)
(X_252  0.16764706373214722)
(X_253  0.16764706373214722)
(X_254  0.16372549533843994)
(X_255  0.16764706373214722)
(X_256  0.16764706373214722)
(X_257  0.16372549533843994)
(X_258  0.1558823585510254)
(X_259  0.04803921654820442)
(X_260  0.028431374579668045)
(X_261  0.04019607976078987)
(X_262  0.05588235333561897)
(X_263  0.1715686321258545)
(X_264  0.1715686321258545)
(X_265  0.1558823585510254)
(X_266  0.13235294818878174)
(X_267  0.11274509876966476)
(X_268  0.028431374579668045)
(X_269  0.13235294818878174)
(X_270  0.136274516582489)
(X_271  0.1401960849761963)
(X_272  0.1401960849761963)
(X_273  0.136274516582489)
(X_274  0.028431374579668045)
(X_275  0.02450980618596077)
(X_276  0.05588235333561897)
(X_277  0.04411764815449715)
(X_278  0.12843137979507446)
(X_279  0.12450980395078659)
(X_280  0.4480392038822174)
(X_281  0.42450979351997375)
(X_282  0.3892156779766083)
(X_283  0.3539215624332428)
(X_284  0.3225490152835846)
(X_285  0.38333335518836975)
(X_286  0.3401961028575897)
(X_287  0.21274511516094208)
(X_288  0.21470588445663452)
(X_289  0.17549020051956177)
(X_290  0.028431374579668045)
(X_291  0.004901961423456669)
(X_292  0.012745101936161518)
(X_293  0.03235294297337532)
(X_294  0.04411764815449715)
(X_295  0.04803921654820442)
(X_296  0.16372549533843994)
(X_297  0.19509804248809814)
(X_298  0.2539215683937073)
(X_299  0.3127451241016388)
(X_300  0.3637255132198334)
(X_301  0.29509803652763367)
(X_302  0.3068627417087555)
(X_303  0.4107843339443207)
(X_304  0.22843138873577118)
(X_305  0.2088235467672348)
(X_306  0.18921568989753723)
(X_307  0.17352941632270813)
(X_308  0.39313724637031555)
(X_309  0.3813725411891937)
(X_310  0.37745097279548645)
(X_311  0.3892156779766083)
(X_312  0.4166666567325592)
(X_313  0.44019606709480286)
(X_314  0.44411763548851013)
(X_315  0.5401960611343384)
(X_316  0.4049019515514374)
(X_317  0.32647058367729187)
(X_318  0.22058825194835663)
(X_319  0.13431373238563538)
(X_320  0.2029411792755127)
(X_321  0.2186274528503418)
(X_322  0.2539215683937073)
(X_323  0.2813725471496582)
(X_324  0.34607842564582825)
(X_325  0.3735294044017792)
(X_326  0.4166666567325592)
(X_327  0.4598039388656616)
(X_328  0.4911764860153198)
(X_329  0.5068627595901489)
(X_330  0.5068627595901489)
(X_331  0.5029411911964417)
(X_332  0.6696078777313232)
(X_333  0.6578431725502014)
(X_334  0.5382353067398071)
(X_335  0.6225490570068359)
(X_336  0.4068627655506134)
(X_337  0.387254923582077)
(X_338  0.27156862616539)
(X_339  0.2754901945590973)
(X_340  0.3950980603694916)
(X_341  0.4225490391254425)
(X_342  0.3382352888584137)
(X_343  0.34607842564582825)
(X_344  0.5166666507720947)
(X_345  0.5049019455909729)
(X_346  0.3813725411891937)
(X_347  0.45000001788139343)
(X_348  0.43039217591285706)
(X_349  0.4382353127002716)
(X_350  0.46176472306251526)
(X_351  0.48137256503105164)
(X_352  0.4166666567325592)
(X_353  0.42450979351997375)
(X_354  0.4362744987010956)
(X_355  0.44411763548851013)
(X_356  0.4480392038822174)
(X_357  0.44019606709480286)
(X_358  0.4323529303073883)
(X_359  0.5245097875595093)
(X_360  0.5441176295280457)
(X_361  0.44019606709480286)
(X_362  0.5323529243469238)
(X_363  0.520588219165802)
(X_364  0.22843138873577118)
(X_365  0.22058825194835663)
(X_366  0.2088235467672348)
(X_367  0.3088235557079315)
(X_368  0.32058826088905334)
(X_369  0.344117671251297)
(X_370  0.3715686500072479)
(X_371  0.3911764919757843)
(X_372  0.240196093916893)
(X_373  0.26372548937797546)
(X_374  0.2911764681339264)
(X_375  0.3029411733150482)
(X_376  0.39901962876319885)
(X_377  0.39901962876319885)
(X_378  0.41470590233802795)
(X_379  0.33039215207099915)
(X_380  0.3186274468898773)
(X_381  0.3225490152835846)
(X_382  0.33039215207099915)
(X_383  0.34215685725212097)
(X_384  0.4539215862751007)
(X_385  0.3656862676143646)
(X_386  0.37745097279548645)
(X_387  0.3813725411891937)
(X_388  0.4264706075191498)
(X_389  0.43431374430656433)
(X_390  0.4382353127002716)
(X_391  0.43431374430656433)
(X_392  0.4911764860153198)
(X_393  0.48725491762161255)
(X_394  0.5715686678886414)
(X_395  0.5362744927406311)
(X_396  0.49705883860588074)
(X_397  0.4735294282436371)
(X_398  0.4735294282436371)
(X_399  0.4852941334247589)
(X_400  0.3813725411891937)
(X_401  0.37745097279548645)
(X_402  0.3656862676143646)
(X_403  0.34215685725212097)
(X_404  0.3186274468898773)
(X_405  0.3950980603694916)
(X_406  0.3794117867946625)
(X_407  0.3754902184009552)
(X_408  0.38333335518836975)
(X_409  0.3794117867946625)
(X_410  0.26764705777168274)
(X_411  0.26372548937797546)
(X_412  0.2598039209842682)
(X_413  0.3598039448261261)
(X_414  0.3598039448261261)
(X_415  0.3637255132198334)
(X_416  0.2245098203420639)
(X_417  0.24411766231060028)
(X_418  0.36764708161354065)
(X_419  0.3794117867946625)
(X_420  0.3499999940395355)
(X_421  0.385294109582901)
(X_422  0.4323529303073883)
(X_423  0.5598039627075195)
(X_424  0.5754902362823486)
(X_425  0.6029412150382996)
(X_426  0.5460784435272217)
(X_427  0.5774509906768799)
(X_428  0.5892156958580017)
(X_429  0.5970588326454163)
(X_430  0.6127451062202454)
(X_431  0.6401960849761963)
(X_432  0.7637255191802979)
(X_433  0.7598039507865906)
(X_434  0.7323529720306396)
(X_435  0.6088235378265381)
(X_436  0.5617647171020508)
(X_437  0.5617647171020508)
(X_438  0.5578431487083435)
(X_439  0.5539215803146362)
(X_440  0.5578431487083435)
(X_441  0.5617647171020508)
(X_442  0.5656862854957581)
(X_443  0.5696078538894653)
(X_444  0.595098078250885)
(X_445  0.6264706254005432)
(X_446  0.665686309337616)
(X_447  0.6931372880935669)
(X_448  0.15784314274787903)
(X_449  0.2617647051811218)
(X_450  0.2617647051811218)
(X_451  0.25784313678741455)
(X_452  0.25784313678741455)
(X_453  0.2774509787559509)
(X_454  0.3088235557079315)
(X_455  0.23235295712947845)
(X_456  0.23235295712947845)
(X_457  0.23235295712947845)
(X_458  0.33627453446388245)
(X_459  0.344117671251297)
(X_460  0.3558823764324188)
(X_461  0.3754902184009552)
(X_462  0.3950980603694916)
(X_463  0.4068627655506134)
(X_464  0.40294119715690613)
(X_465  0.40294119715690613)
(X_466  0.3029411733150482)
(X_467  0.3068627417087555)
(X_468  0.3068627417087555)
(X_469  0.3068627417087555)
(X_470  0.3068627417087555)
(X_471  0.3068627417087555)
(X_472  0.26764705777168274)
(X_473  0.2754901945590973)
(X_474  0.2872548997402191)
(X_475  0.29901960492134094)
(X_476  0.09117648005485535)
(X_477  0.09509804844856262)
(X_478  0.09117648005485535)
(X_479  0.08725491166114807)
(X_480  0.0833333432674408)
(X_481  0.09509804844856262)
(X_482  0.114705890417099)
(X_483  0.13431373238563538)
(X_484  0.11078432202339172)
(X_485  0.10686275362968445)
(X_486  0.0990196168422699)
(X_487  0.19509804248809814)
(X_488  0.19901961088180542)
(X_489  0.20686274766921997)
(X_490  0.21470588445663452)
(X_491  0.2186274528503418)
(X_492  0.21470588445663452)
(X_493  0.21470588445663452)
(X_494  0.2186274528503418)
(X_495  0.22254902124404907)
(X_496  0.22647058963775635)
(X_497  0.23039215803146362)
(X_498  0.2343137264251709)
(X_499  0.13823530077934265)
(X_500  0.114705890417099)
(X_501  0.21078431606292725)
(X_502  0.10686275362968445)
(X_503  0.20686274766921997)
(X_504  0.05588235333561897)
(X_505  0.15980392694473267)
(X_506  0.1558823585510254)
(X_507  0.15196079015731812)
(X_508  0.14411765336990356)
(X_509  0.04411764815449715)
(X_510  0.05588235333561897)
(X_511  0.06372549384832382)
(X_512  0.08725491166114807)
(X_513  0.07941177487373352)
(X_514  0.07156863063573837)
(X_515  0.05980392172932625)
(X_516  0.1558823585510254)
(X_517  0.1558823585510254)
(X_518  0.1558823585510254)
(X_519  0.15980392694473267)
(X_520  0.14411765336990356)
(X_521  0.14803922176361084)
(X_522  0.1558823585510254)
(X_523  0.16372549533843994)
(X_524  0.1715686321258545)
(X_525  0.07941177487373352)
(X_526  0.08725491166114807)
(X_527  0.08725491166114807)
(X_528  0.0833333432674408)
(X_529  0.07549020648002625)
(X_530  0.06372549384832382)
(X_531  0.15196079015731812)
(X_532  0.05588235333561897)
(X_533  0.05588235333561897)
(X_534  0.05588235333561897)
(X_535  0.0519607849419117)
(X_536  0.04803921654820442)
(X_537  0.04803921654820442)
(X_538  0.04803921654820442)
(X_539  0.04803921654820442)
(X_540  0.04803921654820442)
(X_541  0.04411764815449715)
(X_542  0.04019607976078987)
(X_543  0.136274516582489)
(X_544  0.13235294818878174)
(X_545  0.03235294297337532)
(X_546  0.036274511367082596)
(X_547  0.04019607976078987)
(X_548  0.02450980618596077)
(X_549  0.12450980395078659)
(X_550  0.03235294297337532)
(X_551  0.04019607976078987)
(X_552  0.04803921654820442)
(X_553  0.05588235333561897)
(X_554  0.05980392172932625)
(X_555  0.06372549384832382)
(X_556  0.0676470622420311)
(X_557  0.16372549533843994)
(X_558  0.05980392172932625)
(X_559  0.05588235333561897)
(X_560  0.04019607976078987)
(X_561  0.04019607976078987)
(X_562  0.04019607976078987)
(X_563  0.04019607976078987)
(X_564  0.04411764815449715)
(X_565  0.04411764815449715)
(X_566  0.04019607976078987)
(X_567  0.036274511367082596)
(X_568  0.12058823555707932)
(X_569  0.01666666939854622)
(X_570  0.01666666939854622)
(X_571  0.01666666939854622)
(X_572  0.12058823555707932)
(X_573  0.020588237792253494)
(X_574  0.02450980618596077)
(X_575  0.02450980618596077)
(X_576  0.12058823555707932)
(X_577  0.12450980395078659)
(X_578  0.02450980618596077)
(X_579  0.028431374579668045)
(X_580  0.03235294297337532)
(X_581  0.036274511367082596)
(X_582  0.036274511367082596)
(X_583  0.04019607976078987)
(X_584  0.036274511367082596)
(X_585  0.1401960849761963)
(X_586  0.04803921654820442)
(X_587  0.1558823585510254)
(X_588  0.12843137979507446)
(X_589  0.12450980395078659)
(X_590  0.12058823555707932)
(X_591  0.02450980618596077)
(X_592  0.03235294297337532)
(X_593  0.036274511367082596)
(X_594  0.03235294297337532)
(X_595  0.028431374579668045)
(X_596  0.04019607976078987)
(X_597  0.04019607976078987)
(X_598  0.1401960849761963)
(X_599  0.1401960849761963)
(X_600  0.136274516582489)
(X_601  0.136274516582489)
(X_602  0.136274516582489)
(X_603  0.136274516582489)
(X_604  0.14411765336990356)
(X_605  0.14411765336990356)
(X_606  0.14411765336990356)
(X_607  0.14411765336990356)
(X_608  0.14411765336990356)
(X_609  0.14411765336990356)
(X_610  0.04411764815449715)
(X_611  0.04411764815449715)
(X_612  0.136274516582489)
(X_613  0.1401960849761963)
(X_614  0.14803922176361084)
(X_615  0.1558823585510254)
(X_616  0.03235294297337532)
(X_617  0.12058823555707932)
(X_618  0.11274509876966476)
(X_619  0.11274509876966476)
(X_620  0.12058823555707932)
(X_621  0.028431374579668045)
(X_622  0.02450980618596077)
(X_623  0.01666666939854622)
(X_624  0.10882353037595749)
(X_625  0.10882353037595749)
(X_626  0.10882353037595749)
(X_627  0.10882353037595749)
(X_628  0.10882353037595749)
(X_629  0.10882353037595749)
(X_630  0.10490196198225021)
(X_631  0.10490196198225021)
(X_632  0.11274509876966476)
(X_633  0.11274509876966476)
(X_634  0.11274509876966476)
(X_635  0.11274509876966476)
(X_636  0.10882353037595749)
(X_637  0.10882353037595749)
(X_638  0.10882353037595749)
(X_639  0.10882353037595749)
(X_640  0.10490196198225021)
(X_641  0.10882353037595749)
(X_642  0.008823529817163944)
(X_643  0.008823529817163944)
(X_644  0.12843137979507446)
(X_645  0.11274509876966476)
(X_646  -0.0029411755967885256)
(X_647  -0.006862743757665157)
(X_648  0.0009803927969187498)
(X_649  0.008823529817163944)
(X_650  0.10098039358854294)
(X_651  -0.0029411755967885256)
(X_652  -0.010784312151372433)
(X_653  -0.006862743757665157)
(X_654  0.0009803927969187498)
(X_655  0.004901961423456669)
(X_656  0.10882353037595749)
(X_657  0.11274509876966476)
(X_658  0.11274509876966476)
(X_659  0.11274509876966476)
(X_660  0.10490196198225021)
(X_661  0.10882353037595749)
(X_662  0.008823529817163944)
(X_663  0.008823529817163944)
(X_664  0.008823529817163944)
(X_665  0.012745101936161518)
(X_666  0.012745101936161518)
(X_667  0.012745101936161518)
(X_668  0.020588237792253494)
(X_669  0.01666666939854622)
(X_670  0.012745101936161518)
(X_671  0.10882353037595749)
(X_672  0.012745101936161518)
(X_673  0.11274509876966476)
(X_674  0.11274509876966476)
(X_675  0.11274509876966476)
(X_676  0.11274509876966476)
(X_677  0.11274509876966476)
(X_678  0.11274509876966476)
(X_679  0.11274509876966476)
(X_680  0.11666666716337204)
(X_681  0.11666666716337204)
(X_682  0.11666666716337204)
(X_683  0.01666666939854622)
(X_684  0.01666666939854622)
(X_685  0.01666666939854622)
(X_686  0.11666666716337204)
(X_687  0.11666666716337204)
(X_688  0.11666666716337204)
(X_689  0.12058823555707932)
(X_690  0.12450980395078659)
(X_691  0.12843137979507446)
(X_692  0.12843137979507446)
(X_693  0.12450980395078659)
(X_694  0.12058823555707932)
(X_695  0.11666666716337204)
(X_696  0.11274509876966476)
(X_697  0.012745101936161518)
(X_698  0.01666666939854622)
(X_699  0.01666666939854622)
(X_700  0.008823529817163944)
(X_701  0.10882353037595749)
(X_702  0.10882353037595749)
(X_703  0.10882353037595749)
(X_704  0.10882353037595749)
(X_705  0.10882353037595749)
(X_706  0.008823529817163944)
(X_707  0.008823529817163944)
(X_708  0.008823529817163944)
(X_709  0.008823529817163944)
(X_710  0.008823529817163944)
(X_711  0.008823529817163944)
(X_712  0.008823529817163944)
(X_713  0.008823529817163944)
(X_714  0.10882353037595749)
(X_715  0.10882353037595749)
(X_716  0.0009803927969187498)
(X_717  0.0009803927969187498)
(X_718  0.008823529817163944)
(X_719  0.008823529817163944)
(X_720  0.008823529817163944)
(X_721  0.008823529817163944)
(X_722  0.0009803927969187498)
(X_723  0.0009803927969187498)
(X_724  0.004901961423456669)
(X_725  0.004901961423456669)
(X_726  0.008823529817163944)
(X_727  0.008823529817163944)
(X_728  0.10490196198225021)
(X_729  0.10490196198225021)
(X_730  0.10490196198225021)
(X_731  0.10490196198225021)
(X_732  0.10490196198225021)
(X_733  0.10490196198225021)
(X_734  0.10490196198225021)
(X_735  0.10490196198225021)
(X_736  0.0009803927969187498)
(X_737  0.0009803927969187498)
(X_738  0.0009803927969187498)
(X_739  0.0009803927969187498)
(X_740  0.0009803927969187498)
(X_741  0.0009803927969187498)
(X_742  0.0009803927969187498)
(X_743  0.0009803927969187498)
(X_744  -0.006862743757665157)
(X_745  -0.006862743757665157)
(X_746  -0.0029411755967885256)
(X_747  0.0009803927969187498)
(X_748  0.0009803927969187498)
(X_749  0.09705882519483566)
(X_750  0.09313725680112839)
(X_751  0.09313725680112839)
(X_752  0.09705882519483566)
(X_753  0.09705882519483566)
(X_754  0.09705882519483566)
(X_755  0.10098039358854294)
(X_756  0.0009803927969187498)
(X_757  0.0009803927969187498)
(X_758  0.0009803927969187498)
(X_759  0.10098039358854294)
(X_760  0.10098039358854294)
(X_761  0.10098039358854294)
(X_762  0.10098039358854294)
(X_763  0.10098039358854294)
(X_764  0.09705882519483566)
(X_765  -0.0029411755967885256)
(X_766  0.09705882519483566)
(X_767  0.09705882519483566)
(X_768  0.09705882519483566)
(X_769  0.09705882519483566)
(X_770  0.09705882519483566)
(X_771  0.09705882519483566)
(X_772  0.10098039358854294)
(X_773  0.10098039358854294)
(X_774  0.004901961423456669)
(X_775  0.004901961423456669)
(X_776  0.004901961423456669)
(X_777  0.004901961423456669)
(X_778  0.10098039358854294)
(X_779  0.10098039358854294)
(X_780  0.09313725680112839)
(X_781  -0.006862743757665157)
(X_782  -0.0029411755967885256)
(X_783  -0.0029411755967885256)
(Y_0 34.481300354003906)
(Y_1 -10.586044311523438)
(Y_2 1.7190181016921997)
(Y_3 -27.218212127685547))