((X_0  1.0460784435272217)
(X_1  1.0499999523162842)
(X_2  1.0499999523162842)
(X_3  1.0499999523162842)
(X_4  1.0499999523162842)
(X_5  0.949999988079071)
(X_6  0.949999988079071)
(X_7  0.949999988079071)
(X_8  0.949999988079071)
(X_9  0.949999988079071)
(X_10  1.0499999523162842)
(X_11  1.0499999523162842)
(X_12  0.949999988079071)
(X_13  0.949999988079071)
(X_14  1.0460784435272217)
(X_15  1.0460784435272217)
(X_16  0.949999988079071)
(X_17  0.949999988079071)
(X_18  0.949999988079071)
(X_19  0.949999988079071)
(X_20  1.0499999523162842)
(X_21  1.0499999523162842)
(X_22  1.0499999523162842)
(X_23  0.949999988079071)
(X_24  1.0460784435272217)
(X_25  1.0460784435272217)
(X_26  0.9460784196853638)
(X_27  1.0460784435272217)
(X_28  1.0460784435272217)
(X_29  1.0460784435272217)
(X_30  0.9460784196853638)
(X_31  1.0460784435272217)
(X_32  0.9460784196853638)
(X_33  0.949999988079071)
(X_34  0.949999988079071)
(X_35  0.949999988079071)
(X_36  0.949999988079071)
(X_37  0.949999988079071)
(X_38  0.949999988079071)
(X_39  0.949999988079071)
(X_40  0.949999988079071)
(X_41  0.949999988079071)
(X_42  1.0499999523162842)
(X_43  0.949999988079071)
(X_44  1.0499999523162842)
(X_45  0.949999988079071)
(X_46  0.949999988079071)
(X_47  0.949999988079071)
(X_48  0.949999988079071)
(X_49  0.949999988079071)
(X_50  0.949999988079071)
(X_51  0.949999988079071)
(X_52  1.0499999523162842)
(X_53  1.0499999523162842)
(X_54  1.0499999523162842)
(X_55  1.0499999523162842)
(X_56  1.0421568155288696)
(X_57  0.9421568512916565)
(X_58  0.9421568512916565)
(X_59  0.9421568512916565)
(X_60  0.9421568512916565)
(X_61  0.9421568512916565)
(X_62  0.9421568512916565)
(X_63  0.9421568512916565)
(X_64  0.9460784196853638)
(X_65  0.9460784196853638)
(X_66  0.9460784196853638)
(X_67  0.9421568512916565)
(X_68  0.9421568512916565)
(X_69  0.9421568512916565)
(X_70  0.9421568512916565)
(X_71  0.9382352828979492)
(X_72  0.9382352828979492)
(X_73  0.9382352828979492)
(X_74  0.9382352828979492)
(X_75  1.0382353067398071)
(X_76  1.0382353067398071)
(X_77  1.0382353067398071)
(X_78  1.0382353067398071)
(X_79  1.0382353067398071)
(X_80  1.0421568155288696)
(X_81  1.0421568155288696)
(X_82  0.9421568512916565)
(X_83  1.0421568155288696)
(X_84  1.0499999523162842)
(X_85  1.0499999523162842)
(X_86  1.0499999523162842)
(X_87  1.0499999523162842)
(X_88  0.949999988079071)
(X_89  0.949999988079071)
(X_90  0.949999988079071)
(X_91  0.949999988079071)
(X_92  0.949999988079071)
(X_93  0.949999988079071)
(X_94  0.949999988079071)
(X_95  0.949999988079071)
(X_96  1.0499999523162842)
(X_97  1.0499999523162842)
(X_98  1.0499999523162842)
(X_99  1.0499999523162842)
(X_100  1.0499999523162842)
(X_101  1.0499999523162842)
(X_102  1.0499999523162842)
(X_103  1.0499999523162842)
(X_104  1.0499999523162842)
(X_105  0.949999988079071)
(X_106  0.949999988079071)
(X_107  0.949999988079071)
(X_108  0.949999988079071)
(X_109  0.949999988079071)
(X_110  0.949999988079071)
(X_111  1.0499999523162842)
(X_112  0.9421568512916565)
(X_113  0.9421568512916565)
(X_114  0.9421568512916565)
(X_115  0.9421568512916565)
(X_116  0.9421568512916565)
(X_117  0.9421568512916565)
(X_118  0.9382352828979492)
(X_119  1.0382353067398071)
(X_120  0.9382352828979492)
(X_121  0.9382352828979492)
(X_122  0.9382352828979492)
(X_123  0.9421568512916565)
(X_124  0.9421568512916565)
(X_125  0.9421568512916565)
(X_126  0.9421568512916565)
(X_127  0.9421568512916565)
(X_128  1.0382353067398071)
(X_129  1.0382353067398071)
(X_130  1.0382353067398071)
(X_131  1.0382353067398071)
(X_132  1.0382353067398071)
(X_133  1.0382353067398071)
(X_134  0.9382352828979492)
(X_135  1.0382353067398071)
(X_136  0.949999988079071)
(X_137  0.949999988079071)
(X_138  1.0499999523162842)
(X_139  1.0499999523162842)
(X_140  1.0499999523162842)
(X_141  1.0499999523162842)
(X_142  1.0499999523162842)
(X_143  1.0499999523162842)
(X_144  0.949999988079071)
(X_145  0.949999988079071)
(X_146  0.949999988079071)
(X_147  1.0499999523162842)
(X_148  1.0499999523162842)
(X_149  1.0499999523162842)
(X_150  0.949999988079071)
(X_151  0.949999988079071)
(X_152  0.949999988079071)
(X_153  0.949999988079071)
(X_154  1.0499999523162842)
(X_155  1.0499999523162842)
(X_156  0.949999988079071)
(X_157  0.949999988079071)
(X_158  0.949999988079071)
(X_159  1.0499999523162842)
(X_160  1.0499999523162842)
(X_161  0.949999988079071)
(X_162  0.949999988079071)
(X_163  0.949999988079071)
(X_164  0.949999988079071)
(X_165  0.949999988079071)
(X_166  0.949999988079071)
(X_167  1.0499999523162842)
(X_168  0.9303921461105347)
(X_169  1.0303921699523926)
(X_170  1.034313678741455)
(X_171  1.0382353067398071)
(X_172  1.0421568155288696)
(X_173  1.0499999523162842)
(X_174  0.949999988079071)
(X_175  0.949999988079071)
(X_176  1.0382353067398071)
(X_177  1.0382353067398071)
(X_178  0.9421568512916565)
(X_179  0.9421568512916565)
(X_180  1.0460784435272217)
(X_181  1.0460784435272217)
(X_182  1.0460784435272217)
(X_183  1.0499999523162842)
(X_184  1.0460784435272217)
(X_185  1.0460784435272217)
(X_186  1.0460784435272217)
(X_187  1.0460784435272217)
(X_188  1.0460784435272217)
(X_189  0.9460784196853638)
(X_190  0.9460784196853638)
(X_191  1.0460784435272217)
(X_192  1.0499999523162842)
(X_193  1.0499999523162842)
(X_194  0.949999988079071)
(X_195  1.0499999523162842)
(X_196  0.7107843160629272)
(X_197  0.8147059082984924)
(X_198  0.8186274766921997)
(X_199  0.8264706134796143)
(X_200  0.8303921818733215)
(X_201  0.8382353186607361)
(X_202  0.8421568870544434)
(X_203  0.8460784554481506)
(X_204  0.75)
(X_205  0.8500000238418579)
(X_206  0.8500000238418579)
(X_207  0.8539215922355652)
(X_208  0.7539215683937073)
(X_209  0.7578431367874146)
(X_210  0.7578431367874146)
(X_211  0.7578431367874146)
(X_212  0.8735294342041016)
(X_213  0.8735294342041016)
(X_214  0.7735294103622437)
(X_215  0.7735294103622437)
(X_216  0.7735294103622437)
(X_217  0.8735294342041016)
(X_218  0.8735294342041016)
(X_219  0.8735294342041016)
(X_220  0.9127451181411743)
(X_221  0.8127450942993164)
(X_222  0.8127450942993164)
(X_223  0.9127451181411743)
(X_224  0.13431373238563538)
(X_225  0.15392157435417175)
(X_226  0.15784314274787903)
(X_227  0.23823529481887817)
(X_228  0.23039215803146362)
(X_229  0.1460784375667572)
(X_230  0.16568627953529358)
(X_231  0.1774509847164154)
(X_232  0.24607843160629272)
(X_233  0.13431373238563538)
(X_234  0.15392157435417175)
(X_235  0.18137255311012268)
(X_236  0.16960784792900085)
(X_237  0.13431373238563538)
(X_238  0.15392157435417175)
(X_239  0.20490197837352753)
(X_240  0.1617647111415863)
(X_241  0.16960784792900085)
(X_242  0.2539215683937073)
(X_243  0.23039215803146362)
(X_244  0.2343137264251709)
(X_245  0.2696078419685364)
(X_246  0.28921568393707275)
(X_247  0.2813725471496582)
(X_248  0.16960784792900085)
(X_249  0.18137255311012268)
(X_250  0.20098040997982025)
(X_251  0.21666668355464935)
(X_252  0.10686275362968445)
(X_253  0.13431373238563538)
(X_254  0.15392157435417175)
(X_255  0.15784314274787903)
(X_256  0.15784314274787903)
(X_257  0.25)
(X_258  0.22254902124404907)
(X_259  0.08725491166114807)
(X_260  0.15784314274787903)
(X_261  0.11862745881080627)
(X_262  0.19901961088180542)
(X_263  0.2186274528503418)
(X_264  0.1460784375667572)
(X_265  0.15000000596046448)
(X_266  0.13823530077934265)
(X_267  0.13431373238563538)
(X_268  0.07156863063573837)
(X_269  0.19901961088180542)
(X_270  0.22254902124404907)
(X_271  0.23039215803146362)
(X_272  0.23823529481887817)
(X_273  0.24607843160629272)
(X_274  0.25)
(X_275  0.15000000596046448)
(X_276  0.19901961088180542)
(X_277  0.21470588445663452)
(X_278  0.14215686917304993)
(X_279  0.1617647111415863)
(X_280  0.2186274528503418)
(X_281  0.22647058963775635)
(X_282  0.12647059559822083)
(X_283  0.1303921639919281)
(X_284  0.1460784375667572)
(X_285  0.25)
(X_286  0.22647058963775635)
(X_287  0.19117647409439087)
(X_288  0.13431373238563538)
(X_289  0.11862745881080627)
(X_290  0.19901961088180542)
(X_291  0.19509804248809814)
(X_292  0.12254902720451355)
(X_293  0.15000000596046448)
(X_294  0.1303921639919281)
(X_295  0.09509804844856262)
(X_296  0.23039215803146362)
(X_297  0.22647058963775635)
(X_298  0.22254902124404907)
(X_299  0.114705890417099)
(X_300  0.19901961088180542)
(X_301  0.1872549057006836)
(X_302  0.19509804248809814)
(X_303  0.11862745881080627)
(X_304  0.13431373238563538)
(X_305  0.22254902124404907)
(X_306  0.10686275362968445)
(X_307  0.09509804844856262)
(X_308  0.23039215803146362)
(X_309  0.13431373238563538)
(X_310  0.13431373238563538)
(X_311  0.12647059559822083)
(X_312  0.2343137264251709)
(X_313  0.24607843160629272)
(X_314  0.2343137264251709)
(X_315  0.11078432202339172)
(X_316  0.17549020051956177)
(X_317  0.23823529481887817)
(X_318  0.27352941036224365)
(X_319  0.2617647051811218)
(X_320  0.2656862735748291)
(X_321  0.1931372582912445)
(X_322  0.1931372582912445)
(X_323  0.1617647111415863)
(X_324  0.22254902124404907)
(X_325  0.09509804844856262)
(X_326  0.07941177487373352)
(X_327  0.19509804248809814)
(X_328  0.2029411792755127)
(X_329  0.2029411792755127)
(X_330  0.2186274528503418)
(X_331  0.24607843160629272)
(X_332  0.14215686917304993)
(X_333  0.1303921639919281)
(X_334  0.11862745881080627)
(X_335  0.10686275362968445)
(X_336  0.09509804844856262)
(X_337  0.22647058963775635)
(X_338  0.24607843160629272)
(X_339  0.24215686321258545)
(X_340  0.23823529481887817)
(X_341  0.24607843160629272)
(X_342  0.1460784375667572)
(X_343  0.13823530077934265)
(X_344  0.31666669249534607)
(X_345  0.29901960492134094)
(X_346  0.3499999940395355)
(X_347  0.34607842564582825)
(X_348  0.3499999940395355)
(X_349  0.3696078360080719)
(X_350  0.34215685725212097)
(X_351  0.3794117867946625)
(X_352  0.2617647051811218)
(X_353  0.22254902124404907)
(X_354  0.19901961088180542)
(X_355  0.20686274766921997)
(X_356  0.22254902124404907)
(X_357  0.2186274528503418)
(X_358  0.20686274766921997)
(X_359  0.0990196168422699)
(X_360  0.19117647409439087)
(X_361  0.2029411792755127)
(X_362  0.12647059559822083)
(X_363  0.24607843160629272)
(X_364  0.0833333432674408)
(X_365  0.10294118523597717)
(X_366  0.20686274766921997)
(X_367  0.10294118523597717)
(X_368  0.23039215803146362)
(X_369  0.2970588207244873)
(X_370  0.26764705777168274)
(X_371  0.31078431010246277)
(X_372  0.39313724637031555)
(X_373  0.40882351994514465)
(X_374  0.4049019515514374)
(X_375  0.3970588147640228)
(X_376  0.41274508833885193)
(X_377  0.40882351994514465)
(X_378  0.3186274468898773)
(X_379  0.21274511516094208)
(X_380  0.3911764919757843)
(X_381  0.344117671251297)
(X_382  0.2656862735748291)
(X_383  0.11862745881080627)
(X_384  0.1303921639919281)
(X_385  0.18137255311012268)
(X_386  0.3127451241016388)
(X_387  0.32058826088905334)
(X_388  0.3088235557079315)
(X_389  0.28921568393707275)
(X_390  0.2656862735748291)
(X_391  0.23823529481887817)
(X_392  0.22254902124404907)
(X_393  0.2343137264251709)
(X_394  0.14215686917304993)
(X_395  0.1617647111415863)
(X_396  0.31666669249534607)
(X_397  0.4068627655506134)
(X_398  0.4852941334247589)
(X_399  0.42450979351997375)
(X_400  0.3578431308269501)
(X_401  0.3382352888584137)
(X_402  0.3068627417087555)
(X_403  0.3950980603694916)
(X_404  0.31078431010246277)
(X_405  0.3068627417087555)
(X_406  0.240196093916893)
(X_407  0.1617647111415863)
(X_408  0.4225490391254425)
(X_409  0.4225490391254425)
(X_410  0.36764708161354065)
(X_411  0.30490198731422424)
(X_412  0.3284313976764679)
(X_413  0.3382352888584137)
(X_414  0.4323529303073883)
(X_415  0.5598039627075195)
(X_416  0.49313727021217346)
(X_417  0.457843154668808)
(X_418  0.29901960492134094)
(X_419  0.24803923070430756)
(X_420  0.16568627953529358)
(X_421  0.2088235467672348)
(X_422  0.2754901945590973)
(X_423  0.3343137204647064)
(X_424  0.3892156779766083)
(X_425  0.40882351994514465)
(X_426  0.3813725411891937)
(X_427  0.4421568810939789)
(X_428  0.4068627655506134)
(X_429  0.31078431010246277)
(X_430  0.31470587849617004)
(X_431  0.32647058367729187)
(X_432  0.34215685725212097)
(X_433  0.4696078598499298)
(X_434  0.385294109582901)
(X_435  0.39313724637031555)
(X_436  0.4735294282436371)
(X_437  0.5480391979217529)
(X_438  0.5558823943138123)
(X_439  0.4852941334247589)
(X_440  0.4539215862751007)
(X_441  0.5009803771972656)
(X_442  0.42450979351997375)
(X_443  0.3970588147640228)
(X_444  0.4323529303073883)
(X_445  0.44019606709480286)
(X_446  0.45196080207824707)
(X_447  0.5558823943138123)
(X_448  0.551960825920105)
(X_449  0.44411763548851013)
(X_450  0.4205882251262665)
(X_451  0.48137256503105164)
(X_452  0.45000001788139343)
(X_453  0.43039217591285706)
(X_454  0.4068627655506134)
(X_455  0.387254923582077)
(X_456  0.3637255132198334)
(X_457  0.49313727021217346)
(X_458  0.595098078250885)
(X_459  0.4990196228027344)
(X_460  0.4990196228027344)
(X_461  0.5382353067398071)
(X_462  0.5696078538894653)
(X_463  0.5617647171020508)
(X_464  0.522549033164978)
(X_465  0.5892156958580017)
(X_466  0.593137264251709)
(X_467  0.6303921937942505)
(X_468  0.5480391979217529)
(X_469  0.45000001788139343)
(X_470  0.40294119715690613)
(X_471  0.43039217591285706)
(X_472  0.3911764919757843)
(X_473  0.4421568810939789)
(X_474  0.5049019455909729)
(X_475  0.5362744927406311)
(X_476  0.4049019515514374)
(X_477  0.3696078360080719)
(X_478  0.43431374430656433)
(X_479  0.4225490391254425)
(X_480  0.3186274468898773)
(X_481  0.3068627417087555)
(X_482  0.2872548997402191)
(X_483  0.3715686500072479)
(X_484  0.4852941334247589)
(X_485  0.5911765098571777)
(X_486  0.5735294222831726)
(X_487  0.5617647171020508)
(X_488  0.5147058963775635)
(X_489  0.5068627595901489)
(X_490  0.522549033164978)
(X_491  0.5303921699523926)
(X_492  0.5068627595901489)
(X_493  0.6460784673690796)
(X_494  0.6617647409439087)
(X_495  0.6774510145187378)
(X_496  0.6852941513061523)
(X_497  0.595098078250885)
(X_498  0.457843154668808)
(X_499  0.2872548997402191)
(X_500  0.41862747073173523)
(X_501  0.31470587849617004)
(X_502  0.31078431010246277)
(X_503  0.3029411733150482)
(X_504  0.4264706075191498)
(X_505  0.2911764681339264)
(X_506  0.28333333134651184)
(X_507  0.31470587849617004)
(X_508  0.33039215207099915)
(X_509  0.40294119715690613)
(X_510  0.3715686500072479)
(X_511  0.3598039448261261)
(X_512  0.479411780834198)
(X_513  0.479411780834198)
(X_514  0.5715686678886414)
(X_515  0.45196080207824707)
(X_516  0.42843136191368103)
(X_517  0.40882351994514465)
(X_518  0.4009803831577301)
(X_519  0.4009803831577301)
(X_520  0.3656862676143646)
(X_521  0.3813725411891937)
(X_522  0.39313724637031555)
(X_523  0.4598039388656616)
(X_524  0.5656862854957581)
(X_525  0.6813725829124451)
(X_526  0.6186274886131287)
(X_527  0.5833333730697632)
(X_528  0.42450979351997375)
(X_529  0.3813725411891937)
(X_530  0.3343137204647064)
(X_531  0.31078431010246277)
(X_532  0.43431374430656433)
(X_533  0.39901962876319885)
(X_534  0.3794117867946625)
(X_535  0.3754902184009552)
(X_536  0.3480392396450043)
(X_537  0.20490197837352753)
(X_538  0.21274511516094208)
(X_539  0.2558823525905609)
(X_540  0.4911764860153198)
(X_541  0.457843154668808)
(X_542  0.3401961028575897)
(X_543  0.3401961028575897)
(X_544  0.3950980603694916)
(X_545  0.31470587849617004)
(X_546  0.29509803652763367)
(X_547  0.27156862616539)
(X_548  0.3950980603694916)
(X_549  0.4225490391254425)
(X_550  0.3068627417087555)
(X_551  0.3029411733150482)
(X_552  0.44607844948768616)
(X_553  0.4852941334247589)
(X_554  0.5323529243469238)
(X_555  0.5029411911964417)
(X_556  0.6813725829124451)
(X_557  0.5539215803146362)
(X_558  0.5264706015586853)
(X_559  0.6225490570068359)
(X_560  0.28921568393707275)
(X_561  0.16960784792900085)
(X_562  0.15000000596046448)
(X_563  0.11862745881080627)
(X_564  0.09117648005485535)
(X_565  0.11862745881080627)
(X_566  0.240196093916893)
(X_567  0.3656862676143646)
(X_568  0.41274508833885193)
(X_569  0.3558823764324188)
(X_570  0.2343137264251709)
(X_571  0.24607843160629272)
(X_572  0.22843138873577118)
(X_573  0.26372548937797546)
(X_574  0.24803923070430756)
(X_575  0.23235295712947845)
(X_576  0.1931372582912445)
(X_577  0.25196078419685364)
(X_578  0.25196078419685364)
(X_579  0.2088235467672348)
(X_580  0.18921568989753723)
(X_581  0.28921568393707275)
(X_582  0.3480392396450043)
(X_583  0.4421568810939789)
(X_584  0.551960825920105)
(X_585  0.45196080207824707)
(X_586  0.45588237047195435)
(X_587  0.4637255072593689)
(X_588  0.2852941155433655)
(X_589  0.22058825194835663)
(X_590  0.24411766231060028)
(X_591  0.22843138873577118)
(X_592  0.2088235467672348)
(X_593  0.24803923070430756)
(X_594  0.34607842564582825)
(X_595  0.5401960611343384)
(X_596  0.344117671251297)
(X_597  0.2813725471496582)
(X_598  0.2343137264251709)
(X_599  0.15000000596046448)
(X_600  0.1774509847164154)
(X_601  0.18529412150382996)
(X_602  0.18529412150382996)
(X_603  0.19705882668495178)
(X_604  0.22254902124404907)
(X_605  0.2539215683937073)
(X_606  0.24215686321258545)
(X_607  0.22254902124404907)
(X_608  0.2343137264251709)
(X_609  0.25)
(X_610  0.2970588207244873)
(X_611  0.3715686500072479)
(X_612  0.4539215862751007)
(X_613  0.3696078360080719)
(X_614  0.4852941334247589)
(X_615  0.4892157018184662)
(X_616  0.5009803771972656)
(X_617  0.5362744927406311)
(X_618  0.44019606709480286)
(X_619  0.3970588147640228)
(X_620  0.36176469922065735)
(X_621  0.457843154668808)
(X_622  0.4421568810939789)
(X_623  0.4107843339443207)
(X_624  0.23039215803146362)
(X_625  0.22647058963775635)
(X_626  0.22647058963775635)
(X_627  0.2343137264251709)
(X_628  0.13431373238563538)
(X_629  0.1303921639919281)
(X_630  0.13431373238563538)
(X_631  0.14215686917304993)
(X_632  0.27352941036224365)
(X_633  0.2774509787559509)
(X_634  0.1303921639919281)
(X_635  0.09509804844856262)
(X_636  0.11078432202339172)
(X_637  0.2186274528503418)
(X_638  0.23823529481887817)
(X_639  0.28921568393707275)
(X_640  0.2088235467672348)
(X_641  0.23235295712947845)
(X_642  0.3637255132198334)
(X_643  0.38333335518836975)
(X_644  0.2872548997402191)
(X_645  0.28333333134651184)
(X_646  0.33627453446388245)
(X_647  0.2852941155433655)
(X_648  0.3127451241016388)
(X_649  0.2754901945590973)
(X_650  0.3637255132198334)
(X_651  0.30098041892051697)
(X_652  0.2343137264251709)
(X_653  0.12254902720451355)
(X_654  0.10686275362968445)
(X_655  0.10686275362968445)
(X_656  0.1303921639919281)
(X_657  0.15000000596046448)
(X_658  0.1460784375667572)
(X_659  0.12647059559822083)
(X_660  0.21078431606292725)
(X_661  0.25)
(X_662  0.2539215683937073)
(X_663  0.24215686321258545)
(X_664  0.1460784375667572)
(X_665  0.23039215803146362)
(X_666  0.22254902124404907)
(X_667  0.15392157435417175)
(X_668  0.14215686917304993)
(X_669  0.17352941632270813)
(X_670  0.2245098203420639)
(X_671  0.27156862616539)
(X_672  0.33627453446388245)
(X_673  0.20098040997982025)
(X_674  0.15000000596046448)
(X_675  0.13823530077934265)
(X_676  0.18137255311012268)
(X_677  0.32058826088905334)
(X_678  0.29313725233078003)
(X_679  0.23823529481887817)
(X_680  0.09509804844856262)
(X_681  0.19901961088180542)
(X_682  0.10686275362968445)
(X_683  0.114705890417099)
(X_684  0.21470588445663452)
(X_685  0.10686275362968445)
(X_686  0.0990196168422699)
(X_687  0.09509804844856262)
(X_688  0.21470588445663452)
(X_689  0.20686274766921997)
(X_690  0.0990196168422699)
(X_691  0.09117648005485535)
(X_692  0.19509804248809814)
(X_693  0.2029411792755127)
(X_694  0.114705890417099)
(X_695  0.22254902124404907)
(X_696  0.22647058963775635)
(X_697  0.23039215803146362)
(X_698  0.2343137264251709)
(X_699  0.23823529481887817)
(X_700  0.2696078419685364)
(X_701  0.16568627953529358)
(X_702  0.1460784375667572)
(X_703  0.2343137264251709)
(X_704  0.15000000596046448)
(X_705  0.16960784792900085)
(X_706  0.15000000596046448)
(X_707  0.114705890417099)
(X_708  0.08725491166114807)
(X_709  0.09117648005485535)
(X_710  0.09509804844856262)
(X_711  0.0990196168422699)
(X_712  0.19901961088180542)
(X_713  0.09509804844856262)
(X_714  0.09117648005485535)
(X_715  0.08725491166114807)
(X_716  0.19117647409439087)
(X_717  0.18333333730697632)
(X_718  0.07549020648002625)
(X_719  0.07156863063573837)
(X_720  0.07156863063573837)
(X_721  0.07941177487373352)
(X_722  0.09117648005485535)
(X_723  0.19901961088180542)
(X_724  0.2029411792755127)
(X_725  0.20686274766921997)
(X_726  0.21078431606292725)
(X_727  0.21078431606292725)
(X_728  0.19509804248809814)
(X_729  0.11862745881080627)
(X_730  0.2343137264251709)
(X_731  0.22647058963775635)
(X_732  0.21470588445663452)
(X_733  0.20686274766921997)
(X_734  0.19509804248809814)
(X_735  0.18333333730697632)
(X_736  0.17941176891326904)
(X_737  0.17941176891326904)
(X_738  0.07549020648002625)
(X_739  0.07549020648002625)
(X_740  0.07549020648002625)
(X_741  0.07549020648002625)
(X_742  0.07941177487373352)
(X_743  0.07941177487373352)
(X_744  0.07549020648002625)
(X_745  0.0676470622420311)
(X_746  0.15980392694473267)
(X_747  0.05588235333561897)
(X_748  0.05980392172932625)
(X_749  0.16764706373214722)
(X_750  0.07549020648002625)
(X_751  0.18333333730697632)
(X_752  0.1715686321258545)
(X_753  0.17549020051956177)
(X_754  0.17941176891326904)
(X_755  0.18333333730697632)
(X_756  0.15980392694473267)
(X_757  0.1872549057006836)
(X_758  0.21078431606292725)
(X_759  0.20686274766921997)
(X_760  0.08725491166114807)
(X_761  0.07156863063573837)
(X_762  0.0676470622420311)
(X_763  0.0676470622420311)
(X_764  0.07941177487373352)
(X_765  0.07549020648002625)
(X_766  0.0676470622420311)
(X_767  0.05980392172932625)
(X_768  0.05980392172932625)
(X_769  0.0676470622420311)
(X_770  0.07549020648002625)
(X_771  0.07941177487373352)
(X_772  0.07156863063573837)
(X_773  0.0676470622420311)
(X_774  0.06372549384832382)
(X_775  0.05980392172932625)
(X_776  0.05980392172932625)
(X_777  0.16764706373214722)
(X_778  0.07549020648002625)
(X_779  0.17941176891326904)
(X_780  0.05588235333561897)
(X_781  0.05588235333561897)
(X_782  0.06372549384832382)
(X_783  0.16764706373214722)
(Y_0 -33.14535903930664)
(Y_1 75.88927459716797)
(Y_2 -19.043420791625977)
(Y_3 -23.42401123046875))