((X_0  0.15980392694473267)
(X_1  0.15980392694473267)
(X_2  0.05980392172932625)
(X_3  0.05980392172932625)
(X_4  0.1558823585510254)
(X_5  0.15196079015731812)
(X_6  0.04411764815449715)
(X_7  0.04019607976078987)
(X_8  0.15980392694473267)
(X_9  0.15980392694473267)
(X_10  0.1558823585510254)
(X_11  0.05588235333561897)
(X_12  0.0519607849419117)
(X_13  0.15196079015731812)
(X_14  0.14411765336990356)
(X_15  0.1401960849761963)
(X_16  0.04019607976078987)
(X_17  0.04019607976078987)
(X_18  0.036274511367082596)
(X_19  0.04019607976078987)
(X_20  0.1401960849761963)
(X_21  0.14803922176361084)
(X_22  0.05588235333561897)
(X_23  0.05980392172932625)
(X_24  0.14411765336990356)
(X_25  0.14411765336990356)
(X_26  0.1401960849761963)
(X_27  0.1401960849761963)
(X_28  0.13235294818878174)
(X_29  0.136274516582489)
(X_30  0.04019607976078987)
(X_31  0.04411764815449715)
(X_32  0.04803921654820442)
(X_33  0.05588235333561897)
(X_34  0.05980392172932625)
(X_35  0.06372549384832382)
(X_36  0.04411764815449715)
(X_37  0.04803921654820442)
(X_38  0.04803921654820442)
(X_39  0.036274511367082596)
(X_40  0.028431374579668045)
(X_41  0.028431374579668045)
(X_42  0.04019607976078987)
(X_43  0.0519607849419117)
(X_44  0.0676470622420311)
(X_45  0.0676470622420311)
(X_46  0.06372549384832382)
(X_47  0.05588235333561897)
(X_48  0.04803921654820442)
(X_49  0.036274511367082596)
(X_50  0.02450980618596077)
(X_51  0.01666666939854622)
(X_52  0.14411765336990356)
(X_53  0.14411765336990356)
(X_54  0.14803922176361084)
(X_55  0.15196079015731812)
(X_56  0.15196079015731812)
(X_57  0.04803921654820442)
(X_58  0.04411764815449715)
(X_59  0.04019607976078987)
(X_60  0.04019607976078987)
(X_61  0.04019607976078987)
(X_62  0.04411764815449715)
(X_63  0.04411764815449715)
(X_64  0.04411764815449715)
(X_65  0.0519607849419117)
(X_66  0.05588235333561897)
(X_67  0.04803921654820442)
(X_68  0.036274511367082596)
(X_69  0.028431374579668045)
(X_70  0.036274511367082596)
(X_71  0.04411764815449715)
(X_72  0.012745101936161518)
(X_73  0.012745101936161518)
(X_74  0.01666666939854622)
(X_75  0.12450980395078659)
(X_76  0.136274516582489)
(X_77  0.14411765336990356)
(X_78  0.15196079015731812)
(X_79  0.1558823585510254)
(X_80  0.12450980395078659)
(X_81  0.12843137979507446)
(X_82  0.13235294818878174)
(X_83  0.136274516582489)
(X_84  0.1401960849761963)
(X_85  0.04411764815449715)
(X_86  0.14411765336990356)
(X_87  0.14411765336990356)
(X_88  0.14411765336990356)
(X_89  0.136274516582489)
(X_90  0.13235294818878174)
(X_91  0.12843137979507446)
(X_92  0.12843137979507446)
(X_93  0.028431374579668045)
(X_94  0.03235294297337532)
(X_95  0.04019607976078987)
(X_96  0.04411764815449715)
(X_97  0.14411765336990356)
(X_98  0.136274516582489)
(X_99  0.13235294818878174)
(X_100  0.16372549533843994)
(X_101  0.1558823585510254)
(X_102  0.14411765336990356)
(X_103  0.13235294818878174)
(X_104  0.12843137979507446)
(X_105  0.028431374579668045)
(X_106  0.03235294297337532)
(X_107  0.036274511367082596)
(X_108  0.16372549533843994)
(X_109  0.05980392172932625)
(X_110  0.05588235333561897)
(X_111  0.15196079015731812)
(X_112  0.004901961423456669)
(X_113  0.01666666939854622)
(X_114  0.04019607976078987)
(X_115  0.15980392694473267)
(X_116  0.1715686321258545)
(X_117  0.07156863063573837)
(X_118  0.0676470622420311)
(X_119  0.16372549533843994)
(X_120  0.0833333432674408)
(X_121  0.0519607849419117)
(X_122  0.01666666939854622)
(X_123  0.004901961423456669)
(X_124  0.02450980618596077)
(X_125  0.04019607976078987)
(X_126  0.036274511367082596)
(X_127  0.028431374579668045)
(X_128  0.10882353037595749)
(X_129  0.12450980395078659)
(X_130  0.15196079015731812)
(X_131  0.1715686321258545)
(X_132  0.1872549057006836)
(X_133  0.19117647409439087)
(X_134  0.0833333432674408)
(X_135  0.17941176891326904)
(X_136  0.05980392172932625)
(X_137  0.04803921654820442)
(X_138  0.12843137979507446)
(X_139  0.11274509876966476)
(X_140  0.39901962876319885)
(X_141  0.4107843339443207)
(X_142  0.4264706075191498)
(X_143  0.4382353127002716)
(X_144  0.44607844948768616)
(X_145  0.34215685725212097)
(X_146  0.3343137204647064)
(X_147  0.4264706075191498)
(X_148  0.2754901945590973)
(X_149  0.3088235557079315)
(X_150  0.22254902124404907)
(X_151  0.16372549533843994)
(X_152  0.14411765336990356)
(X_153  0.14803922176361084)
(X_154  0.15196079015731812)
(X_155  0.14803922176361084)
(X_156  0.11078432202339172)
(X_157  0.15784314274787903)
(X_158  0.33627453446388245)
(X_159  0.4107843339443207)
(X_160  0.46176472306251526)
(X_161  0.3735294044017792)
(X_162  0.3696078360080719)
(X_163  0.457843154668808)
(X_164  0.29509803652763367)
(X_165  0.28333333134651184)
(X_166  0.36764708161354065)
(X_167  0.35196080803871155)
(X_168  0.39313724637031555)
(X_169  0.49313727021217346)
(X_170  0.4852941334247589)
(X_171  0.47745099663734436)
(X_172  0.4696078598499298)
(X_173  0.3578431308269501)
(X_174  0.3499999940395355)
(X_175  0.34215685725212097)
(X_176  0.4696078598499298)
(X_177  0.43039217591285706)
(X_178  0.3715686500072479)
(X_179  0.3088235557079315)
(X_180  0.1617647111415863)
(X_181  0.23823529481887817)
(X_182  0.23823529481887817)
(X_183  0.24607843160629272)
(X_184  0.3245098292827606)
(X_185  0.3480392396450043)
(X_186  0.387254923582077)
(X_187  0.4225490391254425)
(X_188  0.3343137204647064)
(X_189  0.33039215207099915)
(X_190  0.31078431010246277)
(X_191  0.39901962876319885)
(X_192  0.457843154668808)
(X_193  0.457843154668808)
(X_194  0.3539215624332428)
(X_195  0.4539215862751007)
(X_196  0.3578431308269501)
(X_197  0.45000001788139343)
(X_198  0.43431374430656433)
(X_199  0.4225490391254425)
(X_200  0.41470590233802795)
(X_201  0.41470590233802795)
(X_202  0.4225490391254425)
(X_203  0.4264706075191498)
(X_204  0.28333333134651184)
(X_205  0.4107843339443207)
(X_206  0.43039217591285706)
(X_207  0.41470590233802795)
(X_208  0.27941176295280457)
(X_209  0.2558823525905609)
(X_210  0.2598039209842682)
(X_211  0.27156862616539)
(X_212  0.40294119715690613)
(X_213  0.39901962876319885)
(X_214  0.387254923582077)
(X_215  0.38333335518836975)
(X_216  0.2872548997402191)
(X_217  0.39901962876319885)
(X_218  0.4107843339443207)
(X_219  0.4225490391254425)
(X_220  0.3715686500072479)
(X_221  0.28333333134651184)
(X_222  0.29901960492134094)
(X_223  0.4107843339443207)
(X_224  0.3656862676143646)
(X_225  0.3735294044017792)
(X_226  0.3735294044017792)
(X_227  0.4539215862751007)
(X_228  0.4264706075191498)
(X_229  0.31470587849617004)
(X_230  0.3225490152835846)
(X_231  0.3382352888584137)
(X_232  0.29901960492134094)
(X_233  0.31078431010246277)
(X_234  0.29509803652763367)
(X_235  0.26764705777168274)
(X_236  0.26764705777168274)
(X_237  0.29901960492134094)
(X_238  0.3225490152835846)
(X_239  0.3225490152835846)
(X_240  0.2911764681339264)
(X_241  0.3911764919757843)
(X_242  0.4068627655506134)
(X_243  0.41862747073173523)
(X_244  0.4068627655506134)
(X_245  0.38333335518836975)
(X_246  0.3950980603694916)
(X_247  0.43039217591285706)
(X_248  0.36176469922065735)
(X_249  0.3343137204647064)
(X_250  0.3029411733150482)
(X_251  0.28333333134651184)
(X_252  0.26372548937797546)
(X_253  0.27941176295280457)
(X_254  0.28333333134651184)
(X_255  0.27156862616539)
(X_256  0.344117671251297)
(X_257  0.32058826088905334)
(X_258  0.31666669249534607)
(X_259  0.32058826088905334)
(X_260  0.1460784375667572)
(X_261  0.16960784792900085)
(X_262  0.3088235557079315)
(X_263  0.26764705777168274)
(X_264  0.34215685725212097)
(X_265  0.39313724637031555)
(X_266  0.3735294044017792)
(X_267  0.33039215207099915)
(X_268  0.41274508833885193)
(X_269  0.5049019455909729)
(X_270  0.5166666507720947)
(X_271  0.5401960611343384)
(X_272  0.5480391979217529)
(X_273  0.5480391979217529)
(X_274  0.5676470994949341)
(X_275  0.5029411911964417)
(X_276  0.49313727021217346)
(X_277  0.4539215862751007)
(X_278  0.29901960492134094)
(X_279  0.25196078419685364)
(X_280  0.10294118523597717)
(X_281  0.2186274528503418)
(X_282  0.2343137264251709)
(X_283  0.1303921639919281)
(X_284  0.11078432202339172)
(X_285  0.1872549057006836)
(X_286  0.17941176891326904)
(X_287  0.17549020051956177)
(X_288  0.13823530077934265)
(X_289  0.18921568989753723)
(X_290  0.27156862616539)
(X_291  0.3578431308269501)
(X_292  0.4323529303073883)
(X_293  0.47156864404678345)
(X_294  0.45588237047195435)
(X_295  0.4205882251262665)
(X_296  0.46176472306251526)
(X_297  0.4421568810939789)
(X_298  0.43431374430656433)
(X_299  0.3499999940395355)
(X_300  0.46176472306251526)
(X_301  0.4735294282436371)
(X_302  0.4852941334247589)
(X_303  0.4009803831577301)
(X_304  0.4911764860153198)
(X_305  0.479411780834198)
(X_306  0.4637255072593689)
(X_307  0.45196080207824707)
(X_308  0.3754902184009552)
(X_309  0.3911764919757843)
(X_310  0.3068627417087555)
(X_311  0.31078431010246277)
(X_312  0.3068627417087555)
(X_313  0.29901960492134094)
(X_314  0.29509803652763367)
(X_315  0.39901962876319885)
(X_316  0.43039217591285706)
(X_317  0.4735294282436371)
(X_318  0.5009803771972656)
(X_319  0.47745099663734436)
(X_320  0.41862747073173523)
(X_321  0.28333333134651184)
(X_322  0.27941176295280457)
(X_323  0.3950980603694916)
(X_324  0.3068627417087555)
(X_325  0.2872548997402191)
(X_326  0.3715686500072479)
(X_327  0.38333335518836975)
(X_328  0.4068627655506134)
(X_329  0.41862747073173523)
(X_330  0.41470590233802795)
(X_331  0.4107843339443207)
(X_332  0.33627453446388245)
(X_333  0.3715686500072479)
(X_334  0.32647058367729187)
(X_335  0.385294109582901)
(X_336  0.27156862616539)
(X_337  0.3754902184009552)
(X_338  0.3794117867946625)
(X_339  0.3794117867946625)
(X_340  0.38333335518836975)
(X_341  0.2872548997402191)
(X_342  0.29901960492134094)
(X_343  0.3068627417087555)
(X_344  0.3794117867946625)
(X_345  0.2872548997402191)
(X_346  0.27156862616539)
(X_347  0.2088235467672348)
(X_348  0.12647059559822083)
(X_349  0.0833333432674408)
(X_350  0.10294118523597717)
(X_351  0.24215686321258545)
(X_352  0.23039215803146362)
(X_353  0.22647058963775635)
(X_354  0.22647058963775635)
(X_355  0.24607843160629272)
(X_356  0.2813725471496582)
(X_357  0.30098041892051697)
(X_358  0.29313725233078003)
(X_359  0.2696078419685364)
(X_360  0.25)
(X_361  0.28921568393707275)
(X_362  0.25196078419685364)
(X_363  0.3068627417087555)
(X_364  0.22058825194835663)
(X_365  0.21274511516094208)
(X_366  0.19705882668495178)
(X_367  0.28921568393707275)
(X_368  0.28921568393707275)
(X_369  0.30098041892051697)
(X_370  0.21666668355464935)
(X_371  0.22843138873577118)
(X_372  0.16568627953529358)
(X_373  0.13823530077934265)
(X_374  0.11078432202339172)
(X_375  0.10686275362968445)
(X_376  0.20686274766921997)
(X_377  0.20686274766921997)
(X_378  0.11862745881080627)
(X_379  0.13431373238563538)
(X_380  0.24215686321258545)
(X_381  0.14215686917304993)
(X_382  0.24607843160629272)
(X_383  0.15392157435417175)
(X_384  0.1774509847164154)
(X_385  0.18921568989753723)
(X_386  0.16960784792900085)
(X_387  0.23823529481887817)
(X_388  0.2539215683937073)
(X_389  0.2696078419685364)
(X_390  0.2852941155433655)
(X_391  0.29313725233078003)
(X_392  0.2774509787559509)
(X_393  0.2656862735748291)
(X_394  0.25)
(X_395  0.24215686321258545)
(X_396  0.24607843160629272)
(X_397  0.25784313678741455)
(X_398  0.27352941036224365)
(X_399  0.2813725471496582)
(X_400  0.20490197837352753)
(X_401  0.16960784792900085)
(X_402  0.13823530077934265)
(X_403  0.23823529481887817)
(X_404  0.23039215803146362)
(X_405  0.20686274766921997)
(X_406  0.19509804248809814)
(X_407  0.0990196168422699)
(X_408  0.23823529481887817)
(X_409  0.14215686917304993)
(X_410  0.2343137264251709)
(X_411  0.2186274528503418)
(X_412  0.2186274528503418)
(X_413  0.22647058963775635)
(X_414  0.20686274766921997)
(X_415  0.17549020051956177)
(X_416  0.12254902720451355)
(X_417  0.22647058963775635)
(X_418  0.12254902720451355)
(X_419  0.11078432202339172)
(X_420  0.11078432202339172)
(X_421  0.0990196168422699)
(X_422  0.09117648005485535)
(X_423  0.09117648005485535)
(X_424  0.10294118523597717)
(X_425  0.12254902720451355)
(X_426  0.13431373238563538)
(X_427  0.14215686917304993)
(X_428  0.20686274766921997)
(X_429  0.10294118523597717)
(X_430  0.114705890417099)
(X_431  0.11078432202339172)
(X_432  0.07941177487373352)
(X_433  0.1558823585510254)
(X_434  0.17941176891326904)
(X_435  0.12647059559822083)
(X_436  0.17941176891326904)
(X_437  0.19117647409439087)
(X_438  0.18333333730697632)
(X_439  0.16372549533843994)
(X_440  0.16764706373214722)
(X_441  0.0833333432674408)
(X_442  0.07941177487373352)
(X_443  0.05980392172932625)
(X_444  0.07549020648002625)
(X_445  0.08725491166114807)
(X_446  0.09117648005485535)
(X_447  0.18333333730697632)
(X_448  0.1715686321258545)
(X_449  0.0676470622420311)
(X_450  0.05980392172932625)
(X_451  0.1558823585510254)
(X_452  0.15980392694473267)
(X_453  0.16764706373214722)
(X_454  0.17549020051956177)
(X_455  0.18333333730697632)
(X_456  0.16764706373214722)
(X_457  0.16764706373214722)
(X_458  0.16764706373214722)
(X_459  0.16764706373214722)
(X_460  0.0676470622420311)
(X_461  0.0676470622420311)
(X_462  0.0676470622420311)
(X_463  0.0676470622420311)
(X_464  0.0519607849419117)
(X_465  0.15196079015731812)
(X_466  0.15196079015731812)
(X_467  0.14803922176361084)
(X_468  0.14411765336990356)
(X_469  0.14411765336990356)
(X_470  0.1401960849761963)
(X_471  0.1401960849761963)
(X_472  0.15980392694473267)
(X_473  0.1558823585510254)
(X_474  0.14803922176361084)
(X_475  0.14411765336990356)
(X_476  0.04019607976078987)
(X_477  0.136274516582489)
(X_478  0.12843137979507446)
(X_479  0.12450980395078659)
(X_480  0.12450980395078659)
(X_481  0.03235294297337532)
(X_482  0.04019607976078987)
(X_483  0.14411765336990356)
(X_484  0.13235294818878174)
(X_485  0.13235294818878174)
(X_486  0.03235294297337532)
(X_487  0.03235294297337532)
(X_488  0.03235294297337532)
(X_489  0.03235294297337532)
(X_490  0.03235294297337532)
(X_491  0.03235294297337532)
(X_492  0.020588237792253494)
(X_493  0.020588237792253494)
(X_494  0.12058823555707932)
(X_495  0.12058823555707932)
(X_496  0.12058823555707932)
(X_497  0.12058823555707932)
(X_498  0.12058823555707932)
(X_499  0.020588237792253494)
(X_500  0.1401960849761963)
(X_501  0.036274511367082596)
(X_502  0.03235294297337532)
(X_503  0.02450980618596077)
(X_504  0.1401960849761963)
(X_505  0.136274516582489)
(X_506  0.028431374579668045)
(X_507  0.02450980618596077)
(X_508  0.02450980618596077)
(X_509  0.028431374579668045)
(X_510  0.13235294818878174)
(X_511  0.136274516582489)
(X_512  0.03235294297337532)
(X_513  0.03235294297337532)
(X_514  0.03235294297337532)
(X_515  0.03235294297337532)
(X_516  0.03235294297337532)
(X_517  0.03235294297337532)
(X_518  0.03235294297337532)
(X_519  0.03235294297337532)
(X_520  0.02450980618596077)
(X_521  0.02450980618596077)
(X_522  0.02450980618596077)
(X_523  0.028431374579668045)
(X_524  0.028431374579668045)
(X_525  0.12843137979507446)
(X_526  0.12843137979507446)
(X_527  0.12843137979507446)
(X_528  0.036274511367082596)
(X_529  0.03235294297337532)
(X_530  0.028431374579668045)
(X_531  0.02450980618596077)
(X_532  0.11666666716337204)
(X_533  0.11274509876966476)
(X_534  0.10490196198225021)
(X_535  0.10098039358854294)
(X_536  -0.0029411755967885256)
(X_537  -0.0029411755967885256)
(X_538  0.0009803927969187498)
(X_539  0.0009803927969187498)
(X_540  0.004901961423456669)
(X_541  0.004901961423456669)
(X_542  0.10490196198225021)
(X_543  0.10490196198225021)
(X_544  0.004901961423456669)
(X_545  0.004901961423456669)
(X_546  0.004901961423456669)
(X_547  0.004901961423456669)
(X_548  0.10490196198225021)
(X_549  0.10490196198225021)
(X_550  0.10490196198225021)
(X_551  0.10490196198225021)
(X_552  0.10490196198225021)
(X_553  0.10098039358854294)
(X_554  0.0009803927969187498)
(X_555  0.0009803927969187498)
(X_556  0.10490196198225021)
(X_557  0.0009803927969187498)
(X_558  0.0009803927969187498)
(X_559  0.10098039358854294)
(X_560  0.12058823555707932)
(X_561  0.11666666716337204)
(X_562  0.11274509876966476)
(X_563  0.10882353037595749)
(X_564  0.008823529817163944)
(X_565  0.004901961423456669)
(X_566  0.004901961423456669)
(X_567  0.004901961423456669)
(X_568  0.10882353037595749)
(X_569  0.10882353037595749)
(X_570  0.10882353037595749)
(X_571  0.10882353037595749)
(X_572  0.008823529817163944)
(X_573  0.008823529817163944)
(X_574  0.008823529817163944)
(X_575  0.008823529817163944)
(X_576  0.020588237792253494)
(X_577  0.020588237792253494)
(X_578  0.01666666939854622)
(X_579  0.11274509876966476)
(X_580  0.10882353037595749)
(X_581  0.10490196198225021)
(X_582  0.10098039358854294)
(X_583  0.10098039358854294)
(X_584  0.10882353037595749)
(X_585  0.012745101936161518)
(X_586  0.012745101936161518)
(X_587  0.012745101936161518)
(X_588  0.10098039358854294)
(X_589  0.0009803927969187498)
(X_590  0.10098039358854294)
(X_591  0.10098039358854294)
(X_592  0.0009803927969187498)
(X_593  -0.0029411755967885256)
(X_594  0.09705882519483566)
(X_595  0.09705882519483566)
(X_596  0.10098039358854294)
(X_597  0.10098039358854294)
(X_598  0.10098039358854294)
(X_599  0.10098039358854294)
(X_600  0.0009803927969187498)
(X_601  0.0009803927969187498)
(X_602  0.0009803927969187498)
(X_603  0.0009803927969187498)
(X_604  0.11274509876966476)
(X_605  0.11274509876966476)
(X_606  0.10882353037595749)
(X_607  0.10490196198225021)
(X_608  0.10490196198225021)
(X_609  0.10098039358854294)
(X_610  0.09705882519483566)
(X_611  0.09705882519483566)
(X_612  -0.010784312151372433)
(X_613  -0.010784312151372433)
(X_614  -0.006862743757665157)
(X_615  0.09705882519483566)
(X_616  0.08921568840742111)
(X_617  -0.010784312151372433)
(X_618  -0.006862743757665157)
(X_619  -0.006862743757665157)
(X_620  0.09705882519483566)
(X_621  0.09705882519483566)
(X_622  0.09313725680112839)
(X_623  0.09313725680112839)
(X_624  0.09313725680112839)
(X_625  0.09313725680112839)
(X_626  0.09313725680112839)
(X_627  0.09313725680112839)
(X_628  -0.006862743757665157)
(X_629  -0.006862743757665157)
(X_630  -0.006862743757665157)
(X_631  0.09313725680112839)
(X_632  0.10098039358854294)
(X_633  0.10098039358854294)
(X_634  0.004901961423456669)
(X_635  0.004901961423456669)
(X_636  0.008823529817163944)
(X_637  0.10882353037595749)
(X_638  0.11274509876966476)
(X_639  0.11274509876966476)
(X_640  0.09313725680112839)
(X_641  0.09705882519483566)
(X_642  0.10098039358854294)
(X_643  0.10882353037595749)
(X_644  0.10686275362968445)
(X_645  0.11078432202339172)
(X_646  0.21470588445663452)
(X_647  0.2186274528503418)
(X_648  0.22254902124404907)
(X_649  0.22254902124404907)
(X_650  0.22254902124404907)
(X_651  0.22254902124404907)
(X_652  0.2186274528503418)
(X_653  0.11862745881080627)
(X_654  0.11862745881080627)
(X_655  0.11862745881080627)
(X_656  0.11862745881080627)
(X_657  0.11862745881080627)
(X_658  0.11862745881080627)
(X_659  0.11862745881080627)
(X_660  0.2186274528503418)
(X_661  0.22254902124404907)
(X_662  0.22647058963775635)
(X_663  0.2343137264251709)
(X_664  0.14215686917304993)
(X_665  0.15000000596046448)
(X_666  0.15392157435417175)
(X_667  0.15784314274787903)
(X_668  0.1617647111415863)
(X_669  0.16568627953529358)
(X_670  0.17352941632270813)
(X_671  0.1774509847164154)
(X_672  0.9284313917160034)
(X_673  0.8284313678741455)
(X_674  0.8284313678741455)
(X_675  0.8284313678741455)
(X_676  0.8284313678741455)
(X_677  0.9284313917160034)
(X_678  0.9284313917160034)
(X_679  0.9284313917160034)
(X_680  0.9284313917160034)
(X_681  0.9284313917160034)
(X_682  0.9284313917160034)
(X_683  0.9284313917160034)
(X_684  0.9284313917160034)
(X_685  0.9284313917160034)
(X_686  0.8284313678741455)
(X_687  0.8284313678741455)
(X_688  0.9284313917160034)
(X_689  0.9323529601097107)
(X_690  0.8362745046615601)
(X_691  0.8441176414489746)
(X_692  0.9480392336845398)
(X_693  0.9558823704719543)
(X_694  0.8598039150238037)
(X_695  0.9637255072593689)
(X_696  0.9833333492279053)
(X_697  0.9833333492279053)
(X_698  0.9833333492279053)
(X_699  0.8833333253860474)
(X_700  0.949999988079071)
(X_701  0.949999988079071)
(X_702  0.949999988079071)
(X_703  0.949999988079071)
(X_704  0.949999988079071)
(X_705  0.949999988079071)
(X_706  0.949999988079071)
(X_707  0.949999988079071)
(X_708  0.949999988079071)
(X_709  0.949999988079071)
(X_710  0.949999988079071)
(X_711  1.0499999523162842)
(X_712  1.0499999523162842)
(X_713  0.949999988079071)
(X_714  0.949999988079071)
(X_715  0.949999988079071)
(X_716  1.0460784435272217)
(X_717  1.0460784435272217)
(X_718  0.949999988079071)
(X_719  0.949999988079071)
(X_720  0.949999988079071)
(X_721  0.949999988079071)
(X_722  0.949999988079071)
(X_723  1.0499999523162842)
(X_724  1.0421568155288696)
(X_725  1.0421568155288696)
(X_726  1.0421568155288696)
(X_727  1.0421568155288696)
(X_728  1.0460784435272217)
(X_729  1.0460784435272217)
(X_730  1.0460784435272217)
(X_731  1.0460784435272217)
(X_732  1.0460784435272217)
(X_733  0.9460784196853638)
(X_734  1.0460784435272217)
(X_735  1.0460784435272217)
(X_736  1.0460784435272217)
(X_737  1.0460784435272217)
(X_738  0.9460784196853638)
(X_739  0.9460784196853638)
(X_740  1.0460784435272217)
(X_741  0.9460784196853638)
(X_742  0.9460784196853638)
(X_743  0.9460784196853638)
(X_744  0.9421568512916565)
(X_745  1.0421568155288696)
(X_746  1.0421568155288696)
(X_747  0.9460784196853638)
(X_748  1.0460784435272217)
(X_749  1.0499999523162842)
(X_750  1.0499999523162842)
(X_751  1.0499999523162842)
(X_752  1.0499999523162842)
(X_753  1.0499999523162842)
(X_754  1.0499999523162842)
(X_755  1.0499999523162842)
(X_756  1.0499999523162842)
(X_757  1.0499999523162842)
(X_758  1.0499999523162842)
(X_759  1.0499999523162842)
(X_760  0.949999988079071)
(X_761  1.0499999523162842)
(X_762  1.0499999523162842)
(X_763  1.0499999523162842)
(X_764  0.949999988079071)
(X_765  0.949999988079071)
(X_766  0.949999988079071)
(X_767  0.949999988079071)
(X_768  0.949999988079071)
(X_769  0.949999988079071)
(X_770  0.949999988079071)
(X_771  0.949999988079071)
(X_772  0.9460784196853638)
(X_773  0.9460784196853638)
(X_774  0.9460784196853638)
(X_775  0.9460784196853638)
(X_776  0.9460784196853638)
(X_777  0.9460784196853638)
(X_778  0.9460784196853638)
(X_779  0.9460784196853638)
(X_780  0.949999988079071)
(X_781  0.949999988079071)
(X_782  0.949999988079071)
(X_783  0.949999988079071)
(Y_0 -27.346885681152344)
(Y_1 43.38887405395508)
(Y_2 -22.695499420166016)
(Y_3 8.383609771728516))