((X_0  0.19901961088180542)
(X_1  0.0990196168422699)
(X_2  0.09117648005485535)
(X_3  0.0676470622420311)
(X_4  0.14803922176361084)
(X_5  0.1401960849761963)
(X_6  0.04803921654820442)
(X_7  0.06372549384832382)
(X_8  0.1715686321258545)
(X_9  0.15980392694473267)
(X_10  0.15196079015731812)
(X_11  0.0519607849419117)
(X_12  0.15980392694473267)
(X_13  0.1715686321258545)
(X_14  0.1715686321258545)
(X_15  0.1715686321258545)
(X_16  0.02450980618596077)
(X_17  0.0519607849419117)
(X_18  0.07941177487373352)
(X_19  0.09117648005485535)
(X_20  0.18333333730697632)
(X_21  0.1715686321258545)
(X_22  0.06372549384832382)
(X_23  0.06372549384832382)
(X_24  0.15980392694473267)
(X_25  0.15980392694473267)
(X_26  0.06372549384832382)
(X_27  0.16764706373214722)
(X_28  0.12843137979507446)
(X_29  0.1401960849761963)
(X_30  0.05980392172932625)
(X_31  0.07156863063573837)
(X_32  0.07156863063573837)
(X_33  0.0676470622420311)
(X_34  0.05588235333561897)
(X_35  0.04803921654820442)
(X_36  0.04803921654820442)
(X_37  0.04803921654820442)
(X_38  0.0519607849419117)
(X_39  0.05588235333561897)
(X_40  0.05588235333561897)
(X_41  0.14803922176361084)
(X_42  0.136274516582489)
(X_43  0.028431374579668045)
(X_44  0.16372549533843994)
(X_45  0.1715686321258545)
(X_46  0.17941176891326904)
(X_47  0.07549020648002625)
(X_48  0.06372549384832382)
(X_49  0.05980392172932625)
(X_50  0.05980392172932625)
(X_51  0.0676470622420311)
(X_52  0.1558823585510254)
(X_53  0.15980392694473267)
(X_54  0.15980392694473267)
(X_55  0.16372549533843994)
(X_56  0.17941176891326904)
(X_57  0.0676470622420311)
(X_58  0.0519607849419117)
(X_59  0.04019607976078987)
(X_60  0.036274511367082596)
(X_61  0.03235294297337532)
(X_62  0.028431374579668045)
(X_63  0.02450980618596077)
(X_64  0.0519607849419117)
(X_65  0.05980392172932625)
(X_66  0.0676470622420311)
(X_67  0.0676470622420311)
(X_68  0.06372549384832382)
(X_69  0.05980392172932625)
(X_70  0.05980392172932625)
(X_71  0.05980392172932625)
(X_72  0.0519607849419117)
(X_73  0.0519607849419117)
(X_74  0.04803921654820442)
(X_75  0.14411765336990356)
(X_76  0.1401960849761963)
(X_77  0.14803922176361084)
(X_78  0.16764706373214722)
(X_79  0.18333333730697632)
(X_80  0.15196079015731812)
(X_81  0.1558823585510254)
(X_82  0.05588235333561897)
(X_83  0.15980392694473267)
(X_84  0.136274516582489)
(X_85  0.036274511367082596)
(X_86  0.13235294818878174)
(X_87  0.12843137979507446)
(X_88  0.12843137979507446)
(X_89  0.136274516582489)
(X_90  0.15196079015731812)
(X_91  0.0676470622420311)
(X_92  0.14411765336990356)
(X_93  0.04411764815449715)
(X_94  0.04411764815449715)
(X_95  0.036274511367082596)
(X_96  0.03235294297337532)
(X_97  0.04019607976078987)
(X_98  0.05588235333561897)
(X_99  0.1715686321258545)
(X_100  0.1401960849761963)
(X_101  0.1401960849761963)
(X_102  0.1401960849761963)
(X_103  0.1401960849761963)
(X_104  0.1401960849761963)
(X_105  0.04803921654820442)
(X_106  0.05980392172932625)
(X_107  0.0676470622420311)
(X_108  0.04803921654820442)
(X_109  0.0519607849419117)
(X_110  0.0519607849419117)
(X_111  0.1558823585510254)
(X_112  0.012745101936161518)
(X_113  0.03235294297337532)
(X_114  0.1558823585510254)
(X_115  0.1558823585510254)
(X_116  0.136274516582489)
(X_117  0.12058823555707932)
(X_118  0.028431374579668045)
(X_119  0.04019607976078987)
(X_120  0.0676470622420311)
(X_121  0.07156863063573837)
(X_122  0.07156863063573837)
(X_123  0.06372549384832382)
(X_124  0.04803921654820442)
(X_125  0.036274511367082596)
(X_126  0.02450980618596077)
(X_127  0.020588237792253494)
(X_128  0.136274516582489)
(X_129  0.1401960849761963)
(X_130  0.14411765336990356)
(X_131  0.15196079015731812)
(X_132  0.15196079015731812)
(X_133  0.15196079015731812)
(X_134  0.04411764815449715)
(X_135  0.136274516582489)
(X_136  0.04411764815449715)
(X_137  0.04803921654820442)
(X_138  0.14803922176361084)
(X_139  0.14803922176361084)
(X_140  0.14803922176361084)
(X_141  0.15196079015731812)
(X_142  0.14803922176361084)
(X_143  0.1401960849761963)
(X_144  0.136274516582489)
(X_145  0.06372549384832382)
(X_146  0.10686275362968445)
(X_147  0.24215686321258545)
(X_148  0.3245098292827606)
(X_149  0.33235296607017517)
(X_150  0.3401961028575897)
(X_151  0.344117671251297)
(X_152  0.3245098292827606)
(X_153  0.2813725471496582)
(X_154  0.22647058963775635)
(X_155  0.1872549057006836)
(X_156  0.01666666939854622)
(X_157  0.01666666939854622)
(X_158  0.12058823555707932)
(X_159  0.13235294818878174)
(X_160  0.14411765336990356)
(X_161  0.14803922176361084)
(X_162  0.04411764815449715)
(X_163  0.136274516582489)
(X_164  0.1401960849761963)
(X_165  0.04019607976078987)
(X_166  0.04411764815449715)
(X_167  0.14411765336990356)
(X_168  0.008823529817163944)
(X_169  0.012745101936161518)
(X_170  0.03235294297337532)
(X_171  0.1872549057006836)
(X_172  0.27352941036224365)
(X_173  0.36764708161354065)
(X_174  0.3343137204647064)
(X_175  0.3735294044017792)
(X_176  0.3539215624332428)
(X_177  0.3499999940395355)
(X_178  0.3539215624332428)
(X_179  0.46568629145622253)
(X_180  0.4735294282436371)
(X_181  0.44607844948768616)
(X_182  0.3950980603694916)
(X_183  0.3480392396450043)
(X_184  0.2343137264251709)
(X_185  0.20686274766921997)
(X_186  0.1715686321258545)
(X_187  0.14803922176361084)
(X_188  0.1401960849761963)
(X_189  0.04019607976078987)
(X_190  0.04019607976078987)
(X_191  0.136274516582489)
(X_192  0.1401960849761963)
(X_193  0.1401960849761963)
(X_194  0.1401960849761963)
(X_195  0.1401960849761963)
(X_196  0.05588235333561897)
(X_197  0.18333333730697632)
(X_198  0.25784313678741455)
(X_199  0.36764708161354065)
(X_200  0.4696078598499298)
(X_201  0.5088235139846802)
(X_202  0.47745099663734436)
(X_203  0.43039217591285706)
(X_204  0.33039215207099915)
(X_205  0.31078431010246277)
(X_206  0.29901960492134094)
(X_207  0.41862747073173523)
(X_208  0.3578431308269501)
(X_209  0.37745097279548645)
(X_210  0.3656862676143646)
(X_211  0.3382352888584137)
(X_212  0.457843154668808)
(X_213  0.3950980603694916)
(X_214  0.2970588207244873)
(X_215  0.21078431606292725)
(X_216  0.1558823585510254)
(X_217  0.12450980395078659)
(X_218  0.11274509876966476)
(X_219  0.10490196198225021)
(X_220  0.136274516582489)
(X_221  0.036274511367082596)
(X_222  0.036274511367082596)
(X_223  0.136274516582489)
(X_224  0.13431373238563538)
(X_225  0.2754901945590973)
(X_226  0.385294109582901)
(X_227  0.3892156779766083)
(X_228  0.3696078360080719)
(X_229  0.3813725411891937)
(X_230  0.36176469922065735)
(X_231  0.3186274468898773)
(X_232  0.28333333134651184)
(X_233  0.3382352888584137)
(X_234  0.3656862676143646)
(X_235  0.3499999940395355)
(X_236  0.34607842564582825)
(X_237  0.3539215624332428)
(X_238  0.32647058367729187)
(X_239  0.2754901945590973)
(X_240  0.29509803652763367)
(X_241  0.4107843339443207)
(X_242  0.4264706075191498)
(X_243  0.41470590233802795)
(X_244  0.3637255132198334)
(X_245  0.2774509787559509)
(X_246  0.18333333730697632)
(X_247  0.02450980618596077)
(X_248  0.07941177487373352)
(X_249  0.05980392172932625)
(X_250  0.036274511367082596)
(X_251  0.11666666716337204)
(X_252  0.3343137204647064)
(X_253  0.3578431308269501)
(X_254  0.37745097279548645)
(X_255  0.4735294282436371)
(X_256  0.457843154668808)
(X_257  0.4382353127002716)
(X_258  0.4107843339443207)
(X_259  0.387254923582077)
(X_260  0.29901960492134094)
(X_261  0.32647058367729187)
(X_262  0.4539215862751007)
(X_263  0.46176472306251526)
(X_264  0.46568629145622253)
(X_265  0.46176472306251526)
(X_266  0.4264706075191498)
(X_267  0.3911764919757843)
(X_268  0.3794117867946625)
(X_269  0.3950980603694916)
(X_270  0.41862747073173523)
(X_271  0.33039215207099915)
(X_272  0.3343137204647064)
(X_273  0.3382352888584137)
(X_274  0.34215685725212097)
(X_275  0.3499999940395355)
(X_276  0.3088235557079315)
(X_277  0.19705882668495178)
(X_278  0.18137255311012268)
(X_279  0.1617647111415863)
(X_280  0.3578431308269501)
(X_281  0.3225490152835846)
(X_282  0.31078431010246277)
(X_283  0.3225490152835846)
(X_284  0.31470587849617004)
(X_285  0.3911764919757843)
(X_286  0.39901962876319885)
(X_287  0.43039217591285706)
(X_288  0.4323529303073883)
(X_289  0.41274508833885193)
(X_290  0.4009803831577301)
(X_291  0.5088235139846802)
(X_292  0.5049019455909729)
(X_293  0.385294109582901)
(X_294  0.37745097279548645)
(X_295  0.3813725411891937)
(X_296  0.3598039448261261)
(X_297  0.28333333134651184)
(X_298  0.4107843339443207)
(X_299  0.43039217591285706)
(X_300  0.43431374430656433)
(X_301  0.43431374430656433)
(X_302  0.4421568810939789)
(X_303  0.3539215624332428)
(X_304  0.4049019515514374)
(X_305  0.41274508833885193)
(X_306  0.4166666567325592)
(X_307  0.42450979351997375)
(X_308  0.3950980603694916)
(X_309  0.3911764919757843)
(X_310  0.40294119715690613)
(X_311  0.31078431010246277)
(X_312  0.3029411733150482)
(X_313  0.29901960492134094)
(X_314  0.3382352888584137)
(X_315  0.3892156779766083)
(X_316  0.33039215207099915)
(X_317  0.2872548997402191)
(X_318  0.3715686500072479)
(X_319  0.3911764919757843)
(X_320  0.4068627655506134)
(X_321  0.3225490152835846)
(X_322  0.39313724637031555)
(X_323  0.479411780834198)
(X_324  0.41274508833885193)
(X_325  0.3813725411891937)
(X_326  0.4382353127002716)
(X_327  0.40294119715690613)
(X_328  0.29509803652763367)
(X_329  0.31078431010246277)
(X_330  0.3343137204647064)
(X_331  0.3539215624332428)
(X_332  0.3950980603694916)
(X_333  0.4068627655506134)
(X_334  0.3225490152835846)
(X_335  0.3382352888584137)
(X_336  0.3225490152835846)
(X_337  0.41470590233802795)
(X_338  0.38333335518836975)
(X_339  0.344117671251297)
(X_340  0.33627453446388245)
(X_341  0.3558823764324188)
(X_342  0.26764705777168274)
(X_343  0.2558823525905609)
(X_344  0.22843138873577118)
(X_345  0.1931372582912445)
(X_346  0.1774509847164154)
(X_347  0.18529412150382996)
(X_348  0.16960784792900085)
(X_349  0.16960784792900085)
(X_350  0.2598039209842682)
(X_351  0.47745099663734436)
(X_352  0.5245097875595093)
(X_353  0.5637255311012268)
(X_354  0.6264706254005432)
(X_355  0.5774509906768799)
(X_356  0.5696078538894653)
(X_357  0.5794118046760559)
(X_358  0.44607844948768616)
(X_359  0.344117671251297)
(X_360  0.36176469922065735)
(X_361  0.3578431308269501)
(X_362  0.3539215624332428)
(X_363  0.45000001788139343)
(X_364  0.48725491762161255)
(X_365  0.42843136191368103)
(X_366  0.43039217591285706)
(X_367  0.3715686500072479)
(X_368  0.38333335518836975)
(X_369  0.4107843339443207)
(X_370  0.27156862616539)
(X_371  0.20098040997982025)
(X_372  0.17352941632270813)
(X_373  0.1617647111415863)
(X_374  0.1617647111415863)
(X_375  0.2617647051811218)
(X_376  0.12254902720451355)
(X_377  0.08725491166114807)
(X_378  0.13823530077934265)
(X_379  0.3245098292827606)
(X_380  0.35196080803871155)
(X_381  0.2598039209842682)
(X_382  0.3911764919757843)
(X_383  0.3578431308269501)
(X_384  0.44411763548851013)
(X_385  0.5147058963775635)
(X_386  0.5460784435272217)
(X_387  0.5539215803146362)
(X_388  0.41470590233802795)
(X_389  0.4068627655506134)
(X_390  0.3950980603694916)
(X_391  0.3794117867946625)
(X_392  0.4264706075191498)
(X_393  0.36764708161354065)
(X_394  0.3127451241016388)
(X_395  0.2970588207244873)
(X_396  0.30098041892051697)
(X_397  0.2774509787559509)
(X_398  0.22647058963775635)
(X_399  0.08725491166114807)
(X_400  0.14411765336990356)
(X_401  0.14803922176361084)
(X_402  0.16764706373214722)
(X_403  0.1872549057006836)
(X_404  0.1872549057006836)
(X_405  0.0833333432674408)
(X_406  0.11862745881080627)
(X_407  0.2656862735748291)
(X_408  0.19705882668495178)
(X_409  0.1931372582912445)
(X_410  0.18921568989753723)
(X_411  0.1931372582912445)
(X_412  0.2088235467672348)
(X_413  0.23235295712947845)
(X_414  0.3598039448261261)
(X_415  0.3794117867946625)
(X_416  0.385294109582901)
(X_417  0.385294109582901)
(X_418  0.385294109582901)
(X_419  0.385294109582901)
(X_420  0.22058825194835663)
(X_421  0.21274511516094208)
(X_422  0.24803923070430756)
(X_423  0.2872548997402191)
(X_424  0.240196093916893)
(X_425  0.13823530077934265)
(X_426  0.10686275362968445)
(X_427  0.24607843160629272)
(X_428  0.23823529481887817)
(X_429  0.11862745881080627)
(X_430  0.09509804844856262)
(X_431  0.07941177487373352)
(X_432  0.07156863063573837)
(X_433  0.16764706373214722)
(X_434  0.1715686321258545)
(X_435  0.07941177487373352)
(X_436  0.2343137264251709)
(X_437  0.13823530077934265)
(X_438  0.1303921639919281)
(X_439  0.20686274766921997)
(X_440  0.19117647409439087)
(X_441  0.11862745881080627)
(X_442  0.1774509847164154)
(X_443  0.22843138873577118)
(X_444  0.27156862616539)
(X_445  0.2754901945590973)
(X_446  0.28333333134651184)
(X_447  0.387254923582077)
(X_448  0.19509804248809814)
(X_449  0.21078431606292725)
(X_450  0.23039215803146362)
(X_451  0.25)
(X_452  0.15000000596046448)
(X_453  0.22254902124404907)
(X_454  0.18333333730697632)
(X_455  0.1558823585510254)
(X_456  0.18333333730697632)
(X_457  0.17549020051956177)
(X_458  0.1715686321258545)
(X_459  0.16372549533843994)
(X_460  0.1558823585510254)
(X_461  0.15196079015731812)
(X_462  0.15196079015731812)
(X_463  0.14803922176361084)
(X_464  0.07549020648002625)
(X_465  0.07549020648002625)
(X_466  0.07156863063573837)
(X_467  0.16764706373214722)
(X_468  0.16372549533843994)
(X_469  0.16764706373214722)
(X_470  0.18333333730697632)
(X_471  0.19509804248809814)
(X_472  0.23823529481887817)
(X_473  0.23823529481887817)
(X_474  0.2343137264251709)
(X_475  0.2343137264251709)
(X_476  0.04803921654820442)
(X_477  0.0519607849419117)
(X_478  0.15980392694473267)
(X_479  0.1715686321258545)
(X_480  0.07156863063573837)
(X_481  0.05980392172932625)
(X_482  0.03235294297337532)
(X_483  0.012745101936161518)
(X_484  0.14803922176361084)
(X_485  0.14803922176361084)
(X_486  0.1401960849761963)
(X_487  0.036274511367082596)
(X_488  0.028431374579668045)
(X_489  0.028431374579668045)
(X_490  0.028431374579668045)
(X_491  0.028431374579668045)
(X_492  0.04411764815449715)
(X_493  0.04411764815449715)
(X_494  0.04411764815449715)
(X_495  0.136274516582489)
(X_496  0.13235294818878174)
(X_497  0.136274516582489)
(X_498  0.15196079015731812)
(X_499  0.16372549533843994)
(X_500  0.16764706373214722)
(X_501  0.06372549384832382)
(X_502  0.06372549384832382)
(X_503  0.05980392172932625)
(X_504  0.028431374579668045)
(X_505  0.02450980618596077)
(X_506  0.12450980395078659)
(X_507  0.02450980618596077)
(X_508  0.03235294297337532)
(X_509  0.028431374579668045)
(X_510  0.020588237792253494)
(X_511  0.10882353037595749)
(X_512  0.020588237792253494)
(X_513  0.020588237792253494)
(X_514  0.01666666939854622)
(X_515  0.012745101936161518)
(X_516  0.008823529817163944)
(X_517  0.008823529817163944)
(X_518  0.012745101936161518)
(X_519  0.012745101936161518)
(X_520  0.01666666939854622)
(X_521  0.020588237792253494)
(X_522  0.020588237792253494)
(X_523  0.012745101936161518)
(X_524  0.008823529817163944)
(X_525  0.012745101936161518)
(X_526  0.12450980395078659)
(X_527  0.13235294818878174)
(X_528  0.028431374579668045)
(X_529  0.02450980618596077)
(X_530  0.020588237792253494)
(X_531  0.01666666939854622)
(X_532  0.13235294818878174)
(X_533  0.12843137979507446)
(X_534  0.12450980395078659)
(X_535  0.12450980395078659)
(X_536  0.13235294818878174)
(X_537  0.036274511367082596)
(X_538  0.03235294297337532)
(X_539  0.02450980618596077)
(X_540  0.01666666939854622)
(X_541  0.01666666939854622)
(X_542  0.012745101936161518)
(X_543  0.012745101936161518)
(X_544  0.012745101936161518)
(X_545  0.11274509876966476)
(X_546  0.01666666939854622)
(X_547  0.020588237792253494)
(X_548  0.11274509876966476)
(X_549  0.11666666716337204)
(X_550  0.01666666939854622)
(X_551  0.11274509876966476)
(X_552  0.10882353037595749)
(X_553  0.10882353037595749)
(X_554  0.11666666716337204)
(X_555  0.12450980395078659)
(X_556  0.12843137979507446)
(X_557  0.02450980618596077)
(X_558  0.020588237792253494)
(X_559  0.11274509876966476)
(X_560  0.11274509876966476)
(X_561  0.012745101936161518)
(X_562  0.11274509876966476)
(X_563  0.12058823555707932)
(X_564  0.12843137979507446)
(X_565  0.12843137979507446)
(X_566  0.01666666939854622)
(X_567  0.008823529817163944)
(X_568  0.01666666939854622)
(X_569  0.01666666939854622)
(X_570  0.012745101936161518)
(X_571  0.012745101936161518)
(X_572  0.01666666939854622)
(X_573  0.01666666939854622)
(X_574  0.020588237792253494)
(X_575  0.02450980618596077)
(X_576  0.012745101936161518)
(X_577  0.020588237792253494)
(X_578  0.020588237792253494)
(X_579  0.11666666716337204)
(X_580  0.11274509876966476)
(X_581  0.10882353037595749)
(X_582  0.11666666716337204)
(X_583  0.12058823555707932)
(X_584  0.11666666716337204)
(X_585  0.01666666939854622)
(X_586  0.008823529817163944)
(X_587  0.004901961423456669)
(X_588  0.10098039358854294)
(X_589  0.0009803927969187498)
(X_590  0.10490196198225021)
(X_591  0.11274509876966476)
(X_592  0.020588237792253494)
(X_593  0.01666666939854622)
(X_594  0.10490196198225021)
(X_595  0.09705882519483566)
(X_596  0.11274509876966476)
(X_597  0.10882353037595749)
(X_598  0.008823529817163944)
(X_599  0.008823529817163944)
(X_600  0.008823529817163944)
(X_601  0.008823529817163944)
(X_602  0.012745101936161518)
(X_603  0.01666666939854622)
(X_604  0.10882353037595749)
(X_605  0.11274509876966476)
(X_606  0.11666666716337204)
(X_607  0.11274509876966476)
(X_608  0.10490196198225021)
(X_609  0.10490196198225021)
(X_610  0.10490196198225021)
(X_611  0.11274509876966476)
(X_612  0.012745101936161518)
(X_613  0.008823529817163944)
(X_614  0.10490196198225021)
(X_615  0.10098039358854294)
(X_616  0.11274509876966476)
(X_617  0.008823529817163944)
(X_618  0.10882353037595749)
(X_619  0.11274509876966476)
(X_620  0.01666666939854622)
(X_621  0.11666666716337204)
(X_622  0.008823529817163944)
(X_623  0.10098039358854294)
(X_624  0.10882353037595749)
(X_625  0.10882353037595749)
(X_626  0.10490196198225021)
(X_627  0.10098039358854294)
(X_628  0.10098039358854294)
(X_629  0.10098039358854294)
(X_630  0.10490196198225021)
(X_631  0.10490196198225021)
(X_632  0.004901961423456669)
(X_633  0.012745101936161518)
(X_634  0.01666666939854622)
(X_635  0.012745101936161518)
(X_636  0.10490196198225021)
(X_637  0.10098039358854294)
(X_638  0.10098039358854294)
(X_639  0.10490196198225021)
(X_640  0.11666666716337204)
(X_641  0.11274509876966476)
(X_642  0.10882353037595749)
(X_643  0.10882353037595749)
(X_644  0.12058823555707932)
(X_645  0.008823529817163944)
(X_646  0.0009803927969187498)
(X_647  0.09705882519483566)
(X_648  0.10490196198225021)
(X_649  0.10490196198225021)
(X_650  0.004901961423456669)
(X_651  0.0009803927969187498)
(X_652  0.11274509876966476)
(X_653  0.10882353037595749)
(X_654  0.004901961423456669)
(X_655  0.004901961423456669)
(X_656  0.0009803927969187498)
(X_657  0.0009803927969187498)
(X_658  0.004901961423456669)
(X_659  0.004901961423456669)
(X_660  0.10882353037595749)
(X_661  0.11274509876966476)
(X_662  0.12058823555707932)
(X_663  0.01666666939854622)
(X_664  0.008823529817163944)
(X_665  0.0009803927969187498)
(X_666  0.0009803927969187498)
(X_667  0.004901961423456669)
(X_668  0.008823529817163944)
(X_669  0.004901961423456669)
(X_670  0.004901961423456669)
(X_671  0.004901961423456669)
(X_672  0.10882353037595749)
(X_673  0.004901961423456669)
(X_674  0.008823529817163944)
(X_675  0.01666666939854622)
(X_676  0.004901961423456669)
(X_677  0.08921568840742111)
(X_678  0.09313725680112839)
(X_679  0.10882353037595749)
(X_680  0.0009803927969187498)
(X_681  0.10882353037595749)
(X_682  0.10098039358854294)
(X_683  0.08921568840742111)
(X_684  0.08921568840742111)
(X_685  0.10098039358854294)
(X_686  0.0009803927969187498)
(X_687  -0.010784312151372433)
(X_688  0.10098039358854294)
(X_689  0.09705882519483566)
(X_690  0.08921568840742111)
(X_691  0.08921568840742111)
(X_692  0.09313725680112839)
(X_693  -0.006862743757665157)
(X_694  -0.010784312151372433)
(X_695  -0.014705880545079708)
(X_696  0.008823529817163944)
(X_697  0.10098039358854294)
(X_698  0.10098039358854294)
(X_699  0.10882353037595749)
(X_700  0.08529412001371384)
(X_701  -0.018627449870109558)
(X_702  -0.010784312151372433)
(X_703  -0.0029411755967885256)
(X_704  -0.006862743757665157)
(X_705  -0.018627449870109558)
(X_706  -0.014705880545079708)
(X_707  0.004901961423456669)
(X_708  -0.018627449870109558)
(X_709  -0.010784312151372433)
(X_710  -0.014705880545079708)
(X_711  0.07352941483259201)
(X_712  0.08137255162000656)
(X_713  -0.0029411755967885256)
(X_714  -0.0029411755967885256)
(X_715  -0.014705880545079708)
(X_716  0.10490196198225021)
(X_717  0.004901961423456669)
(X_718  0.004901961423456669)
(X_719  0.004901961423456669)
(X_720  0.008823529817163944)
(X_721  0.012745101936161518)
(X_722  0.012745101936161518)
(X_723  0.10882353037595749)
(X_724  -0.006862743757665157)
(X_725  0.08137255162000656)
(X_726  0.08137255162000656)
(X_727  0.09313725680112839)
(X_728  0.10490196198225021)
(X_729  0.0009803927969187498)
(X_730  0.004901961423456669)
(X_731  0.11274509876966476)
(X_732  0.10490196198225021)
(X_733  0.08921568840742111)
(X_734  0.08921568840742111)
(X_735  0.10098039358854294)
(X_736  0.10490196198225021)
(X_737  0.10882353037595749)
(X_738  0.0009803927969187498)
(X_739  -0.014705880545079708)
(X_740  0.08921568840742111)
(X_741  0.10098039358854294)
(X_742  0.09705882519483566)
(X_743  0.08137255162000656)
(X_744  0.08529412001371384)
(X_745  -0.014705880545079708)
(X_746  -0.014705880545079708)
(X_747  -0.018627449870109558)
(X_748  0.07745098322629929)
(X_749  0.07745098322629929)
(X_750  0.07352941483259201)
(X_751  0.07352941483259201)
(X_752  0.11666666716337204)
(X_753  0.10490196198225021)
(X_754  0.10098039358854294)
(X_755  0.10882353037595749)
(X_756  0.6303921937942505)
(X_757  0.522549033164978)
(X_758  0.522549033164978)
(X_759  0.522549033164978)
(X_760  0.5029411911964417)
(X_761  0.5754902362823486)
(X_762  0.5676470994949341)
(X_763  0.5754902362823486)
(X_764  0.551960825920105)
(X_765  0.5480391979217529)
(X_766  0.42843136191368103)
(X_767  0.4049019515514374)
(X_768  0.4049019515514374)
(X_769  0.40882351994514465)
(X_770  0.39313724637031555)
(X_771  0.3696078360080719)
(X_772  0.3539215624332428)
(X_773  0.3539215624332428)
(X_774  0.34607842564582825)
(X_775  0.3343137204647064)
(X_776  0.3186274468898773)
(X_777  0.3068627417087555)
(X_778  0.29901960492134094)
(X_779  0.29901960492134094)
(X_780  0.26372548937797546)
(X_781  0.24411766231060028)
(X_782  0.23235295712947845)
(X_783  0.240196093916893)
(Y_0 -32.97733688354492)
(Y_1 59.19389343261719)
(Y_2 -27.36387825012207)
(Y_3 4.149779796600342))