((X_0  0.07549020648002625)
(X_1  0.07156863063573837)
(X_2  0.0676470622420311)
(X_3  0.0676470622420311)
(X_4  0.07156863063573837)
(X_5  0.07549020648002625)
(X_6  0.18333333730697632)
(X_7  0.1872549057006836)
(X_8  0.16372549533843994)
(X_9  0.16764706373214722)
(X_10  0.16764706373214722)
(X_11  0.1715686321258545)
(X_12  0.1715686321258545)
(X_13  0.17549020051956177)
(X_14  0.07549020648002625)
(X_15  0.07941177487373352)
(X_16  0.07941177487373352)
(X_17  0.07549020648002625)
(X_18  0.07156863063573837)
(X_19  0.07941177487373352)
(X_20  0.10294118523597717)
(X_21  0.13823530077934265)
(X_22  0.17352941632270813)
(X_23  0.2970588207244873)
(X_24  0.27941176295280457)
(X_25  0.29509803652763367)
(X_26  0.3186274468898773)
(X_27  0.34607842564582825)
(X_28  0.18333333730697632)
(X_29  0.18333333730697632)
(X_30  0.17549020051956177)
(X_31  0.16372549533843994)
(X_32  0.04803921654820442)
(X_33  0.04411764815449715)
(X_34  0.04411764815449715)
(X_35  0.04803921654820442)
(X_36  0.07156863063573837)
(X_37  0.17549020051956177)
(X_38  0.17549020051956177)
(X_39  0.17941176891326904)
(X_40  0.17941176891326904)
(X_41  0.17549020051956177)
(X_42  0.17549020051956177)
(X_43  0.17549020051956177)
(X_44  0.15980392694473267)
(X_45  0.05588235333561897)
(X_46  0.05588235333561897)
(X_47  0.05588235333561897)
(X_48  0.05980392172932625)
(X_49  0.07156863063573837)
(X_50  0.0833333432674408)
(X_51  0.19117647409439087)
(X_52  0.136274516582489)
(X_53  0.04803921654820442)
(X_54  0.05980392172932625)
(X_55  0.17549020051956177)
(X_56  0.07941177487373352)
(X_57  0.08725491166114807)
(X_58  0.19117647409439087)
(X_59  0.17941176891326904)
(X_60  0.16764706373214722)
(X_61  0.15980392694473267)
(X_62  0.07156863063573837)
(X_63  0.07941177487373352)
(X_64  0.07549020648002625)
(X_65  0.07941177487373352)
(X_66  0.18333333730697632)
(X_67  0.1872549057006836)
(X_68  0.18333333730697632)
(X_69  0.17941176891326904)
(X_70  0.17549020051956177)
(X_71  0.1715686321258545)
(X_72  0.06372549384832382)
(X_73  0.0676470622420311)
(X_74  0.0676470622420311)
(X_75  0.0676470622420311)
(X_76  0.06372549384832382)
(X_77  0.05588235333561897)
(X_78  0.14803922176361084)
(X_79  0.14411765336990356)
(X_80  0.16372549533843994)
(X_81  0.16764706373214722)
(X_82  0.17549020051956177)
(X_83  0.17941176891326904)
(X_84  0.0519607849419117)
(X_85  0.06372549384832382)
(X_86  0.07549020648002625)
(X_87  0.07156863063573837)
(X_88  0.15980392694473267)
(X_89  0.1558823585510254)
(X_90  0.1715686321258545)
(X_91  0.18333333730697632)
(X_92  0.16372549533843994)
(X_93  0.1715686321258545)
(X_94  0.17549020051956177)
(X_95  0.18333333730697632)
(X_96  0.18333333730697632)
(X_97  0.17941176891326904)
(X_98  0.17549020051956177)
(X_99  0.07156863063573837)
(X_100  0.1715686321258545)
(X_101  0.17549020051956177)
(X_102  0.0833333432674408)
(X_103  0.08725491166114807)
(X_104  0.1872549057006836)
(X_105  0.18333333730697632)
(X_106  0.17549020051956177)
(X_107  0.1715686321258545)
(X_108  0.0519607849419117)
(X_109  0.05588235333561897)
(X_110  0.06372549384832382)
(X_111  0.16764706373214722)
(X_112  0.16764706373214722)
(X_113  0.17549020051956177)
(X_114  0.18333333730697632)
(X_115  0.17941176891326904)
(X_116  0.0676470622420311)
(X_117  0.05980392172932625)
(X_118  0.16764706373214722)
(X_119  0.17549020051956177)
(X_120  0.0519607849419117)
(X_121  0.05588235333561897)
(X_122  0.06372549384832382)
(X_123  0.07156863063573837)
(X_124  0.17549020051956177)
(X_125  0.17549020051956177)
(X_126  0.17549020051956177)
(X_127  0.1715686321258545)
(X_128  0.05980392172932625)
(X_129  0.15980392694473267)
(X_130  0.06372549384832382)
(X_131  0.0676470622420311)
(X_132  0.07549020648002625)
(X_133  0.07941177487373352)
(X_134  0.0833333432674408)
(X_135  0.08725491166114807)
(X_136  0.16764706373214722)
(X_137  0.1715686321258545)
(X_138  0.1715686321258545)
(X_139  0.17549020051956177)
(X_140  0.13235294818878174)
(X_141  0.136274516582489)
(X_142  0.1401960849761963)
(X_143  0.14803922176361084)
(X_144  0.15196079015731812)
(X_145  0.05588235333561897)
(X_146  0.05588235333561897)
(X_147  0.0519607849419117)
(X_148  0.1558823585510254)
(X_149  0.15980392694473267)
(X_150  0.05980392172932625)
(X_151  0.16372549533843994)
(X_152  0.16372549533843994)
(X_153  0.16764706373214722)
(X_154  0.07156863063573837)
(X_155  0.07156863063573837)
(X_156  0.16372549533843994)
(X_157  0.15980392694473267)
(X_158  0.1558823585510254)
(X_159  0.05588235333561897)
(X_160  0.15980392694473267)
(X_161  0.16764706373214722)
(X_162  0.17941176891326904)
(X_163  0.18333333730697632)
(X_164  0.15196079015731812)
(X_165  0.14803922176361084)
(X_166  0.14411765336990356)
(X_167  0.1401960849761963)
(X_168  0.11078432202339172)
(X_169  0.0990196168422699)
(X_170  0.08725491166114807)
(X_171  0.09117648005485535)
(X_172  0.09509804844856262)
(X_173  0.09509804844856262)
(X_174  0.17549020051956177)
(X_175  0.1558823585510254)
(X_176  0.07941177487373352)
(X_177  0.17549020051956177)
(X_178  0.16764706373214722)
(X_179  0.15980392694473267)
(X_180  0.15980392694473267)
(X_181  0.15980392694473267)
(X_182  0.16764706373214722)
(X_183  0.16764706373214722)
(X_184  0.07156863063573837)
(X_185  0.07156863063573837)
(X_186  0.07156863063573837)
(X_187  0.07156863063573837)
(X_188  0.07156863063573837)
(X_189  0.07549020648002625)
(X_190  0.17941176891326904)
(X_191  0.17941176891326904)
(X_192  0.2029411792755127)
(X_193  0.19509804248809814)
(X_194  0.1872549057006836)
(X_195  0.17549020051956177)
(X_196  0.520588219165802)
(X_197  0.4852941334247589)
(X_198  0.44607844948768616)
(X_199  0.4225490391254425)
(X_200  0.3029411733150482)
(X_201  0.27156862616539)
(X_202  0.22058825194835663)
(X_203  0.18137255311012268)
(X_204  0.10294118523597717)
(X_205  0.09117648005485535)
(X_206  0.07549020648002625)
(X_207  0.06372549384832382)
(X_208  0.05588235333561897)
(X_209  0.05588235333561897)
(X_210  0.05980392172932625)
(X_211  0.16372549533843994)
(X_212  0.15980392694473267)
(X_213  0.16372549533843994)
(X_214  0.07156863063573837)
(X_215  0.07549020648002625)
(X_216  0.07941177487373352)
(X_217  0.07941177487373352)
(X_218  0.17549020051956177)
(X_219  0.17549020051956177)
(X_220  0.17549020051956177)
(X_221  0.1715686321258545)
(X_222  0.05980392172932625)
(X_223  0.0519607849419117)
(X_224  0.46568629145622253)
(X_225  0.36176469922065735)
(X_226  0.36176469922065735)
(X_227  0.3735294044017792)
(X_228  0.385294109582901)
(X_229  0.3892156779766083)
(X_230  0.37745097279548645)
(X_231  0.3656862676143646)
(X_232  0.45000001788139343)
(X_233  0.4225490391254425)
(X_234  0.36764708161354065)
(X_235  0.29313725233078003)
(X_236  0.22647058963775635)
(X_237  0.19117647409439087)
(X_238  0.18333333730697632)
(X_239  0.19117647409439087)
(X_240  0.0833333432674408)
(X_241  0.07549020648002625)
(X_242  0.07156863063573837)
(X_243  0.0676470622420311)
(X_244  0.07549020648002625)
(X_245  0.1872549057006836)
(X_246  0.19901961088180542)
(X_247  0.10686275362968445)
(X_248  0.21078431606292725)
(X_249  0.10294118523597717)
(X_250  0.08725491166114807)
(X_251  0.17549020051956177)
(X_252  0.35196080803871155)
(X_253  0.3558823764324188)
(X_254  0.26764705777168274)
(X_255  0.38333335518836975)
(X_256  0.39901962876319885)
(X_257  0.3950980603694916)
(X_258  0.3794117867946625)
(X_259  0.26372548937797546)
(X_260  0.3558823764324188)
(X_261  0.3637255132198334)
(X_262  0.3715686500072479)
(X_263  0.36764708161354065)
(X_264  0.35196080803871155)
(X_265  0.33627453446388245)
(X_266  0.22058825194835663)
(X_267  0.21666668355464935)
(X_268  0.19705882668495178)
(X_269  0.22843138873577118)
(X_270  0.27156862616539)
(X_271  0.29901960492134094)
(X_272  0.31078431010246277)
(X_273  0.3068627417087555)
(X_274  0.29901960492134094)
(X_275  0.29509803652763367)
(X_276  0.3186274468898773)
(X_277  0.31470587849617004)
(X_278  0.4068627655506134)
(X_279  0.40294119715690613)
(X_280  0.4166666567325592)
(X_281  0.40882351994514465)
(X_282  0.39313724637031555)
(X_283  0.3735294044017792)
(X_284  0.34215685725212097)
(X_285  0.39901962876319885)
(X_286  0.35196080803871155)
(X_287  0.22058825194835663)
(X_288  0.3598039448261261)
(X_289  0.344117671251297)
(X_290  0.32058826088905334)
(X_291  0.30098041892051697)
(X_292  0.28921568393707275)
(X_293  0.2852941155433655)
(X_294  0.1774509847164154)
(X_295  0.17352941632270813)
(X_296  0.3127451241016388)
(X_297  0.3284313976764679)
(X_298  0.3480392396450043)
(X_299  0.2558823525905609)
(X_300  0.2558823525905609)
(X_301  0.3598039448261261)
(X_302  0.2754901945590973)
(X_303  0.2872548997402191)
(X_304  0.3715686500072479)
(X_305  0.27156862616539)
(X_306  0.26764705777168274)
(X_307  0.26372548937797546)
(X_308  0.6245098114013672)
(X_309  0.6245098114013672)
(X_310  0.6245098114013672)
(X_311  0.6245098114013672)
(X_312  0.6166666746139526)
(X_313  0.6009804010391235)
(X_314  0.5813725590705872)
(X_315  0.5696078538894653)
(X_316  0.5068627595901489)
(X_317  0.47156864404678345)
(X_318  0.4205882251262665)
(X_319  0.3813725411891937)
(X_320  0.3656862676143646)
(X_321  0.4539215862751007)
(X_322  0.44607844948768616)
(X_323  0.4382353127002716)
(X_324  0.2245098203420639)
(X_325  0.31666669249534607)
(X_326  0.30490198731422424)
(X_327  0.30098041892051697)
(X_328  0.2088235467672348)
(X_329  0.2245098203420639)
(X_330  0.23627452552318573)
(X_331  0.24411766231060028)
(X_332  0.40294119715690613)
(X_333  0.3950980603694916)
(X_334  0.2872548997402191)
(X_335  0.3754902184009552)
(X_336  0.27941176295280457)
(X_337  0.38333335518836975)
(X_338  0.2911764681339264)
(X_339  0.40294119715690613)
(X_340  0.41470590233802795)
(X_341  0.43039217591285706)
(X_342  0.34607842564582825)
(X_343  0.3578431308269501)
(X_344  0.5323529243469238)
(X_345  0.5323529243469238)
(X_346  0.44019606709480286)
(X_347  0.4598039388656616)
(X_348  0.5754902362823486)
(X_349  0.5754902362823486)
(X_350  0.5558823943138123)
(X_351  0.5323529243469238)
(X_352  0.5264706015586853)
(X_353  0.5068627595901489)
(X_354  0.5833333730697632)
(X_355  0.4754902124404907)
(X_356  0.4637255072593689)
(X_357  0.42843136191368103)
(X_358  0.3696078360080719)
(X_359  0.4264706075191498)
(X_360  0.3794117867946625)
(X_361  0.36764708161354065)
(X_362  0.3480392396450043)
(X_363  0.33235296607017517)
(X_364  0.27156862616539)
(X_365  0.26372548937797546)
(X_366  0.25196078419685364)
(X_367  0.23235295712947845)
(X_368  0.32058826088905334)
(X_369  0.31666669249534607)
(X_370  0.3284313976764679)
(X_371  0.33627453446388245)
(X_372  0.23235295712947845)
(X_373  0.23627452552318573)
(X_374  0.24803923070430756)
(X_375  0.26764705777168274)
(X_376  0.39901962876319885)
(X_377  0.4225490391254425)
(X_378  0.43431374430656433)
(X_379  0.34215685725212097)
(X_380  0.39901962876319885)
(X_381  0.3911764919757843)
(X_382  0.3950980603694916)
(X_383  0.43039217591285706)
(X_384  0.48137256503105164)
(X_385  0.4166666567325592)
(X_386  0.42843136191368103)
(X_387  0.4205882251262665)
(X_388  0.5401960611343384)
(X_389  0.5323529243469238)
(X_390  0.5166666507720947)
(X_391  0.5049019455909729)
(X_392  0.1931372582912445)
(X_393  0.19705882668495178)
(X_394  0.2970588207244873)
(X_395  0.28921568393707275)
(X_396  0.2852941155433655)
(X_397  0.28921568393707275)
(X_398  0.30490198731422424)
(X_399  0.32058826088905334)
(X_400  0.3715686500072479)
(X_401  0.3598039448261261)
(X_402  0.344117671251297)
(X_403  0.3284313976764679)
(X_404  0.23627452552318573)
(X_405  0.27156862616539)
(X_406  0.31470587849617004)
(X_407  0.44607844948768616)
(X_408  0.34215685725212097)
(X_409  0.31078431010246277)
(X_410  0.26764705777168274)
(X_411  0.2245098203420639)
(X_412  0.20490197837352753)
(X_413  0.3127451241016388)
(X_414  0.33627453446388245)
(X_415  0.3558823764324188)
(X_416  0.27941176295280457)
(X_417  0.28333333134651184)
(X_418  0.387254923582077)
(X_419  0.3911764919757843)
(X_420  0.09509804844856262)
(X_421  0.10686275362968445)
(X_422  0.114705890417099)
(X_423  0.21470588445663452)
(X_424  0.20686274766921997)
(X_425  0.2029411792755127)
(X_426  0.21470588445663452)
(X_427  0.12647059559822083)
(X_428  0.1303921639919281)
(X_429  0.24607843160629272)
(X_430  0.2656862735748291)
(X_431  0.2774509787559509)
(X_432  0.2852941155433655)
(X_433  0.30098041892051697)
(X_434  0.2245098203420639)
(X_435  0.24411766231060028)
(X_436  0.22058825194835663)
(X_437  0.23627452552318573)
(X_438  0.24411766231060028)
(X_439  0.2245098203420639)
(X_440  0.1931372582912445)
(X_441  0.18137255311012268)
(X_442  0.20098040997982025)
(X_443  0.22843138873577118)
(X_444  0.2970588207244873)
(X_445  0.3127451241016388)
(X_446  0.33235296607017517)
(X_447  0.35196080803871155)
(X_448  0.06372549384832382)
(X_449  0.16372549533843994)
(X_450  0.16764706373214722)
(X_451  0.1715686321258545)
(X_452  0.07549020648002625)
(X_453  0.07941177487373352)
(X_454  0.18333333730697632)
(X_455  0.0833333432674408)
(X_456  0.08725491166114807)
(X_457  0.09117648005485535)
(X_458  0.09509804844856262)
(X_459  0.2029411792755127)
(X_460  0.21078431606292725)
(X_461  0.12254902720451355)
(X_462  0.2343137264251709)
(X_463  0.23823529481887817)
(X_464  0.23823529481887817)
(X_465  0.23823529481887817)
(X_466  0.13823530077934265)
(X_467  0.13823530077934265)
(X_468  0.13823530077934265)
(X_469  0.13823530077934265)
(X_470  0.13823530077934265)
(X_471  0.13823530077934265)
(X_472  0.24215686321258545)
(X_473  0.14215686917304993)
(X_474  0.1460784375667572)
(X_475  0.24607843160629272)
(X_476  0.04019607976078987)
(X_477  0.04019607976078987)
(X_478  0.04411764815449715)
(X_479  0.04803921654820442)
(X_480  0.0519607849419117)
(X_481  0.0519607849419117)
(X_482  0.05588235333561897)
(X_483  0.05588235333561897)
(X_484  0.0676470622420311)
(X_485  0.07156863063573837)
(X_486  0.07156863063573837)
(X_487  0.17941176891326904)
(X_488  0.1872549057006836)
(X_489  0.19509804248809814)
(X_490  0.2029411792755127)
(X_491  0.21078431606292725)
(X_492  0.19901961088180542)
(X_493  0.19901961088180542)
(X_494  0.0990196168422699)
(X_495  0.0990196168422699)
(X_496  0.19901961088180542)
(X_497  0.19901961088180542)
(X_498  0.0990196168422699)
(X_499  0.0990196168422699)
(X_500  0.0990196168422699)
(X_501  0.0990196168422699)
(X_502  0.0990196168422699)
(X_503  0.2029411792755127)
(X_504  0.02450980618596077)
(X_505  0.12450980395078659)
(X_506  0.12450980395078659)
(X_507  0.12843137979507446)
(X_508  0.13235294818878174)
(X_509  0.136274516582489)
(X_510  0.036274511367082596)
(X_511  0.036274511367082596)
(X_512  0.04803921654820442)
(X_513  0.04803921654820442)
(X_514  0.04803921654820442)
(X_515  0.0519607849419117)
(X_516  0.1558823585510254)
(X_517  0.15980392694473267)
(X_518  0.0676470622420311)
(X_519  0.1715686321258545)
(X_520  0.1558823585510254)
(X_521  0.1558823585510254)
(X_522  0.1558823585510254)
(X_523  0.05588235333561897)
(X_524  0.1558823585510254)
(X_525  0.05588235333561897)
(X_526  0.05588235333561897)
(X_527  0.05588235333561897)
(X_528  0.05588235333561897)
(X_529  0.05588235333561897)
(X_530  0.05588235333561897)
(X_531  0.1558823585510254)
(X_532  0.028431374579668045)
(X_533  0.028431374579668045)
(X_534  0.028431374579668045)
(X_535  0.03235294297337532)
(X_536  0.03235294297337532)
(X_537  0.036274511367082596)
(X_538  0.036274511367082596)
(X_539  0.036274511367082596)
(X_540  0.136274516582489)
(X_541  0.036274511367082596)
(X_542  0.13235294818878174)
(X_543  0.13235294818878174)
(X_544  0.136274516582489)
(X_545  0.04019607976078987)
(X_546  0.04411764815449715)
(X_547  0.14411765336990356)
(X_548  0.14411765336990356)
(X_549  0.14411765336990356)
(X_550  0.04411764815449715)
(X_551  0.04411764815449715)
(X_552  0.04411764815449715)
(X_553  0.04411764815449715)
(X_554  0.04411764815449715)
(X_555  0.04411764815449715)
(X_556  0.1401960849761963)
(X_557  0.1401960849761963)
(X_558  0.04019607976078987)
(X_559  0.04019607976078987)
(X_560  0.028431374579668045)
(X_561  0.03235294297337532)
(X_562  0.03235294297337532)
(X_563  0.03235294297337532)
(X_564  0.03235294297337532)
(X_565  0.036274511367082596)
(X_566  0.036274511367082596)
(X_567  0.036274511367082596)
(X_568  0.136274516582489)
(X_569  0.03235294297337532)
(X_570  0.03235294297337532)
(X_571  0.028431374579668045)
(X_572  0.12843137979507446)
(X_573  0.028431374579668045)
(X_574  0.03235294297337532)
(X_575  0.036274511367082596)
(X_576  0.1401960849761963)
(X_577  0.1401960849761963)
(X_578  0.04019607976078987)
(X_579  0.04019607976078987)
(X_580  0.04019607976078987)
(X_581  0.04019607976078987)
(X_582  0.04019607976078987)
(X_583  0.04019607976078987)
(X_584  0.036274511367082596)
(X_585  0.136274516582489)
(X_586  0.036274511367082596)
(X_587  0.136274516582489)
(X_588  0.12058823555707932)
(X_589  0.12058823555707932)
(X_590  0.12058823555707932)
(X_591  0.020588237792253494)
(X_592  0.020588237792253494)
(X_593  0.020588237792253494)
(X_594  0.020588237792253494)
(X_595  0.020588237792253494)
(X_596  0.03235294297337532)
(X_597  0.03235294297337532)
(X_598  0.028431374579668045)
(X_599  0.12450980395078659)
(X_600  0.12450980395078659)
(X_601  0.12843137979507446)
(X_602  0.12843137979507446)
(X_603  0.13235294818878174)
(X_604  0.13235294818878174)
(X_605  0.13235294818878174)
(X_606  0.03235294297337532)
(X_607  0.13235294818878174)
(X_608  0.13235294818878174)
(X_609  0.13235294818878174)
(X_610  0.03235294297337532)
(X_611  0.03235294297337532)
(X_612  0.028431374579668045)
(X_613  0.12843137979507446)
(X_614  0.12843137979507446)
(X_615  0.12843137979507446)
(X_616  0.012745101936161518)
(X_617  0.11274509876966476)
(X_618  0.11274509876966476)
(X_619  0.11274509876966476)
(X_620  0.10882353037595749)
(X_621  0.10882353037595749)
(X_622  0.008823529817163944)
(X_623  0.008823529817163944)
(X_624  0.12450980395078659)
(X_625  0.12058823555707932)
(X_626  0.12058823555707932)
(X_627  0.01666666939854622)
(X_628  0.11666666716337204)
(X_629  0.12058823555707932)
(X_630  0.12450980395078659)
(X_631  0.12450980395078659)
(X_632  0.12058823555707932)
(X_633  0.12058823555707932)
(X_634  0.12058823555707932)
(X_635  0.12058823555707932)
(X_636  0.12058823555707932)
(X_637  0.12058823555707932)
(X_638  0.12058823555707932)
(X_639  0.12058823555707932)
(X_640  0.12450980395078659)
(X_641  0.12450980395078659)
(X_642  0.12058823555707932)
(X_643  0.12058823555707932)
(X_644  0.10882353037595749)
(X_645  0.10882353037595749)
(X_646  0.008823529817163944)
(X_647  0.008823529817163944)
(X_648  0.008823529817163944)
(X_649  0.008823529817163944)
(X_650  0.10882353037595749)
(X_651  0.008823529817163944)
(X_652  0.012745101936161518)
(X_653  0.012745101936161518)
(X_654  0.008823529817163944)
(X_655  0.008823529817163944)
(X_656  0.10882353037595749)
(X_657  0.11274509876966476)
(X_658  0.11666666716337204)
(X_659  0.12058823555707932)
(X_660  0.11666666716337204)
(X_661  0.11666666716337204)
(X_662  0.01666666939854622)
(X_663  0.01666666939854622)
(X_664  0.01666666939854622)
(X_665  0.01666666939854622)
(X_666  0.01666666939854622)
(X_667  0.01666666939854622)
(X_668  0.02450980618596077)
(X_669  0.020588237792253494)
(X_670  0.020588237792253494)
(X_671  0.12058823555707932)
(X_672  0.020588237792253494)
(X_673  0.11666666716337204)
(X_674  0.11274509876966476)
(X_675  0.10882353037595749)
(X_676  0.10882353037595749)
(X_677  0.10882353037595749)
(X_678  0.10882353037595749)
(X_679  0.10882353037595749)
(X_680  0.10882353037595749)
(X_681  0.11274509876966476)
(X_682  0.11274509876966476)
(X_683  0.008823529817163944)
(X_684  0.0009803927969187498)
(X_685  0.09705882519483566)
(X_686  0.10098039358854294)
(X_687  0.10490196198225021)
(X_688  0.11274509876966476)
(X_689  0.10882353037595749)
(X_690  0.10882353037595749)
(X_691  0.11274509876966476)
(X_692  0.12058823555707932)
(X_693  0.12058823555707932)
(X_694  0.11274509876966476)
(X_695  0.10490196198225021)
(X_696  0.10098039358854294)
(X_697  0.0009803927969187498)
(X_698  0.0009803927969187498)
(X_699  0.004901961423456669)
(X_700  0.11274509876966476)
(X_701  0.10882353037595749)
(X_702  0.10882353037595749)
(X_703  0.11274509876966476)
(X_704  0.12058823555707932)
(X_705  0.12450980395078659)
(X_706  0.028431374579668045)
(X_707  0.028431374579668045)
(X_708  0.02450980618596077)
(X_709  0.02450980618596077)
(X_710  0.020588237792253494)
(X_711  0.012745101936161518)
(X_712  0.004901961423456669)
(X_713  0.0009803927969187498)
(X_714  -0.0029411755967885256)
(X_715  0.10098039358854294)
(X_716  0.004901961423456669)
(X_717  0.0009803927969187498)
(X_718  -0.0029411755967885256)
(X_719  0.0009803927969187498)
(X_720  0.008823529817163944)
(X_721  0.01666666939854622)
(X_722  0.01666666939854622)
(X_723  0.012745101936161518)
(X_724  0.0009803927969187498)
(X_725  0.0009803927969187498)
(X_726  0.0009803927969187498)
(X_727  0.004901961423456669)
(X_728  0.23039215803146362)
(X_729  0.21470588445663452)
(X_730  0.19509804248809814)
(X_731  0.17549020051956177)
(X_732  0.15980392694473267)
(X_733  0.14411765336990356)
(X_734  0.12450980395078659)
(X_735  0.10882353037595749)
(X_736  0.012745101936161518)
(X_737  0.012745101936161518)
(X_738  0.008823529817163944)
(X_739  0.008823529817163944)
(X_740  0.012745101936161518)
(X_741  0.01666666939854622)
(X_742  0.01666666939854622)
(X_743  0.020588237792253494)
(X_744  0.03235294297337532)
(X_745  0.020588237792253494)
(X_746  0.004901961423456669)
(X_747  0.0009803927969187498)
(X_748  0.004901961423456669)
(X_749  0.11274509876966476)
(X_750  0.11666666716337204)
(X_751  0.11666666716337204)
(X_752  0.10098039358854294)
(X_753  0.10098039358854294)
(X_754  0.10098039358854294)
(X_755  0.10490196198225021)
(X_756  0.8401960730552673)
(X_757  0.8127450942993164)
(X_758  0.7735294103622437)
(X_759  0.8303921818733215)
(X_760  0.7911764979362488)
(X_761  0.7480392456054688)
(X_762  0.7049019932746887)
(X_763  0.5735294222831726)
(X_764  0.44411763548851013)
(X_765  0.4166666567325592)
(X_766  0.4696078598499298)
(X_767  0.41470590233802795)
(X_768  0.3637255132198334)
(X_769  0.31666669249534607)
(X_770  0.2813725471496582)
(X_771  0.25784313678741455)
(X_772  0.18333333730697632)
(X_773  0.15980392694473267)
(X_774  0.03235294297337532)
(X_775  0.008823529817163944)
(X_776  0.004901961423456669)
(X_777  0.008823529817163944)
(X_778  0.11274509876966476)
(X_779  0.11274509876966476)
(X_780  0.10098039358854294)
(X_781  0.0009803927969187498)
(X_782  0.0009803927969187498)
(X_783  0.004901961423456669)
(Y_0 35.38909149169922)
(Y_1 -5.097208499908447)
(Y_2 12.46999740600586)
(Y_3 -42.53601837158203))