((X_0  0.05980392172932625)
(X_1  0.05588235333561897)
(X_2  0.05588235333561897)
(X_3  0.15980392694473267)
(X_4  0.0676470622420311)
(X_5  0.0676470622420311)
(X_6  0.15980392694473267)
(X_7  0.15196079015731812)
(X_8  0.1558823585510254)
(X_9  0.1558823585510254)
(X_10  0.15980392694473267)
(X_11  0.15980392694473267)
(X_12  0.15980392694473267)
(X_13  0.1558823585510254)
(X_14  0.0519607849419117)
(X_15  0.04803921654820442)
(X_16  0.07549020648002625)
(X_17  0.07156863063573837)
(X_18  0.0676470622420311)
(X_19  0.07156863063573837)
(X_20  0.07941177487373352)
(X_21  0.0833333432674408)
(X_22  0.0833333432674408)
(X_23  0.17941176891326904)
(X_24  0.0676470622420311)
(X_25  0.0676470622420311)
(X_26  0.0676470622420311)
(X_27  0.1715686321258545)
(X_28  0.06372549384832382)
(X_29  0.05980392172932625)
(X_30  0.0519607849419117)
(X_31  0.1558823585510254)
(X_32  0.15980392694473267)
(X_33  0.06372549384832382)
(X_34  0.05980392172932625)
(X_35  0.05588235333561897)
(X_36  0.0676470622420311)
(X_37  0.16764706373214722)
(X_38  0.1715686321258545)
(X_39  0.1715686321258545)
(X_40  0.16764706373214722)
(X_41  0.16764706373214722)
(X_42  0.16372549533843994)
(X_43  0.15980392694473267)
(X_44  0.16764706373214722)
(X_45  0.06372549384832382)
(X_46  0.05980392172932625)
(X_47  0.06372549384832382)
(X_48  0.07156863063573837)
(X_49  0.07549020648002625)
(X_50  0.07156863063573837)
(X_51  0.16764706373214722)
(X_52  0.15980392694473267)
(X_53  0.05980392172932625)
(X_54  0.06372549384832382)
(X_55  0.16372549533843994)
(X_56  0.16764706373214722)
(X_57  0.15980392694473267)
(X_58  0.04803921654820442)
(X_59  0.14803922176361084)
(X_60  0.15196079015731812)
(X_61  0.05980392172932625)
(X_62  0.05980392172932625)
(X_63  0.05980392172932625)
(X_64  0.05588235333561897)
(X_65  0.1558823585510254)
(X_66  0.15980392694473267)
(X_67  0.15980392694473267)
(X_68  0.1558823585510254)
(X_69  0.15196079015731812)
(X_70  0.15196079015731812)
(X_71  0.14803922176361084)
(X_72  0.15980392694473267)
(X_73  0.05588235333561897)
(X_74  0.0519607849419117)
(X_75  0.05588235333561897)
(X_76  0.05980392172932625)
(X_77  0.06372549384832382)
(X_78  0.15980392694473267)
(X_79  0.1558823585510254)
(X_80  0.1558823585510254)
(X_81  0.1558823585510254)
(X_82  0.1558823585510254)
(X_83  0.1558823585510254)
(X_84  0.0676470622420311)
(X_85  0.05588235333561897)
(X_86  0.04411764815449715)
(X_87  0.04019607976078987)
(X_88  0.14803922176361084)
(X_89  0.1558823585510254)
(X_90  0.15980392694473267)
(X_91  0.15980392694473267)
(X_92  0.14803922176361084)
(X_93  0.14803922176361084)
(X_94  0.15196079015731812)
(X_95  0.15196079015731812)
(X_96  0.14803922176361084)
(X_97  0.14411765336990356)
(X_98  0.1401960849761963)
(X_99  0.04019607976078987)
(X_100  0.1558823585510254)
(X_101  0.15196079015731812)
(X_102  0.04803921654820442)
(X_103  0.0519607849419117)
(X_104  0.1558823585510254)
(X_105  0.15980392694473267)
(X_106  0.1558823585510254)
(X_107  0.15196079015731812)
(X_108  0.05588235333561897)
(X_109  0.05588235333561897)
(X_110  0.05588235333561897)
(X_111  0.1558823585510254)
(X_112  0.16372549533843994)
(X_113  0.15196079015731812)
(X_114  0.1401960849761963)
(X_115  0.136274516582489)
(X_116  0.04411764815449715)
(X_117  0.0519607849419117)
(X_118  0.1558823585510254)
(X_119  0.05588235333561897)
(X_120  0.05980392172932625)
(X_121  0.05980392172932625)
(X_122  0.05980392172932625)
(X_123  0.05980392172932625)
(X_124  0.15980392694473267)
(X_125  0.1558823585510254)
(X_126  0.15196079015731812)
(X_127  0.04803921654820442)
(X_128  0.06372549384832382)
(X_129  0.05588235333561897)
(X_130  0.0519607849419117)
(X_131  0.0519607849419117)
(X_132  0.15980392694473267)
(X_133  0.15980392694473267)
(X_134  0.05588235333561897)
(X_135  0.0519607849419117)
(X_136  0.1558823585510254)
(X_137  0.1558823585510254)
(X_138  0.1558823585510254)
(X_139  0.1558823585510254)
(X_140  0.1558823585510254)
(X_141  0.14803922176361084)
(X_142  0.04019607976078987)
(X_143  0.1401960849761963)
(X_144  0.14411765336990356)
(X_145  0.15196079015731812)
(X_146  0.0519607849419117)
(X_147  0.04803921654820442)
(X_148  0.14803922176361084)
(X_149  0.15196079015731812)
(X_150  0.15196079015731812)
(X_151  0.15196079015731812)
(X_152  0.15196079015731812)
(X_153  0.14803922176361084)
(X_154  0.04411764815449715)
(X_155  0.04019607976078987)
(X_156  0.0676470622420311)
(X_157  0.15980392694473267)
(X_158  0.1558823585510254)
(X_159  0.1558823585510254)
(X_160  0.15980392694473267)
(X_161  0.15980392694473267)
(X_162  0.1558823585510254)
(X_163  0.15196079015731812)
(X_164  0.1558823585510254)
(X_165  0.1558823585510254)
(X_166  0.1558823585510254)
(X_167  0.1558823585510254)
(X_168  0.0519607849419117)
(X_169  0.04411764815449715)
(X_170  0.04019607976078987)
(X_171  0.04019607976078987)
(X_172  0.04803921654820442)
(X_173  0.0519607849419117)
(X_174  0.04803921654820442)
(X_175  0.04019607976078987)
(X_176  0.036274511367082596)
(X_177  0.04019607976078987)
(X_178  0.1401960849761963)
(X_179  0.1401960849761963)
(X_180  0.1401960849761963)
(X_181  0.136274516582489)
(X_182  0.13235294818878174)
(X_183  0.12843137979507446)
(X_184  0.06372549384832382)
(X_185  0.05980392172932625)
(X_186  0.0519607849419117)
(X_187  0.0519607849419117)
(X_188  0.05588235333561897)
(X_189  0.05980392172932625)
(X_190  0.15196079015731812)
(X_191  0.14803922176361084)
(X_192  0.0519607849419117)
(X_193  0.15196079015731812)
(X_194  0.14803922176361084)
(X_195  0.14803922176361084)
(X_196  0.14411765336990356)
(X_197  0.1401960849761963)
(X_198  0.1401960849761963)
(X_199  0.14411765336990356)
(X_200  0.0519607849419117)
(X_201  0.0519607849419117)
(X_202  0.04411764815449715)
(X_203  0.036274511367082596)
(X_204  0.04803921654820442)
(X_205  0.0519607849419117)
(X_206  0.0519607849419117)
(X_207  0.0519607849419117)
(X_208  0.0519607849419117)
(X_209  0.04803921654820442)
(X_210  0.04411764815449715)
(X_211  0.1401960849761963)
(X_212  0.16372549533843994)
(X_213  0.1558823585510254)
(X_214  0.04803921654820442)
(X_215  0.0519607849419117)
(X_216  0.05588235333561897)
(X_217  0.05588235333561897)
(X_218  0.14803922176361084)
(X_219  0.1401960849761963)
(X_220  0.14411765336990356)
(X_221  0.14411765336990356)
(X_222  0.04411764815449715)
(X_223  0.04019607976078987)
(X_224  0.2852941155433655)
(X_225  0.17352941632270813)
(X_226  0.18137255311012268)
(X_227  0.30098041892051697)
(X_228  0.20098040997982025)
(X_229  0.17352941632270813)
(X_230  0.13823530077934265)
(X_231  0.12254902720451355)
(X_232  0.16764706373214722)
(X_233  0.14411765336990356)
(X_234  0.12450980395078659)
(X_235  0.12843137979507446)
(X_236  0.14803922176361084)
(X_237  0.16372549533843994)
(X_238  0.15980392694473267)
(X_239  0.14803922176361084)
(X_240  0.13235294818878174)
(X_241  0.04411764815449715)
(X_242  0.05980392172932625)
(X_243  0.05980392172932625)
(X_244  0.04803921654820442)
(X_245  0.03235294297337532)
(X_246  0.12843137979507446)
(X_247  0.13235294818878174)
(X_248  0.05588235333561897)
(X_249  0.14411765336990356)
(X_250  0.036274511367082596)
(X_251  0.136274516582489)
(X_252  0.4696078598499298)
(X_253  0.46568629145622253)
(X_254  0.37745097279548645)
(X_255  0.4892157018184662)
(X_256  0.48137256503105164)
(X_257  0.46176472306251526)
(X_258  0.4539215862751007)
(X_259  0.3656862676143646)
(X_260  0.3950980603694916)
(X_261  0.3598039448261261)
(X_262  0.2970588207244873)
(X_263  0.23039215803146362)
(X_264  0.17549020051956177)
(X_265  0.14803922176361084)
(X_266  0.14411765336990356)
(X_267  0.04803921654820442)
(X_268  0.13823530077934265)
(X_269  0.1774509847164154)
(X_270  0.22843138873577118)
(X_271  0.2754901945590973)
(X_272  0.31078431010246277)
(X_273  0.3343137204647064)
(X_274  0.3578431308269501)
(X_275  0.3696078360080719)
(X_276  0.26764705777168274)
(X_277  0.21666668355464935)
(X_278  0.24215686321258545)
(X_279  0.18333333730697632)
(X_280  0.3539215624332428)
(X_281  0.3539215624332428)
(X_282  0.3578431308269501)
(X_283  0.36176469922065735)
(X_284  0.34215685725212097)
(X_285  0.4264706075191498)
(X_286  0.4421568810939789)
(X_287  0.3735294044017792)
(X_288  0.32647058367729187)
(X_289  0.32647058367729187)
(X_290  0.31470587849617004)
(X_291  0.3754902184009552)
(X_292  0.33627453446388245)
(X_293  0.33235296607017517)
(X_294  0.3715686500072479)
(X_295  0.4107843339443207)
(X_296  0.4382353127002716)
(X_297  0.46176472306251526)
(X_298  0.5009803771972656)
(X_299  0.42843136191368103)
(X_300  0.44019606709480286)
(X_301  0.4362744987010956)
(X_302  0.4323529303073883)
(X_303  0.42843136191368103)
(X_304  0.4362744987010956)
(X_305  0.44019606709480286)
(X_306  0.4480392038822174)
(X_307  0.4637255072593689)
(X_308  0.2911764681339264)
(X_309  0.27941176295280457)
(X_310  0.27156862616539)
(X_311  0.27156862616539)
(X_312  0.2598039209842682)
(X_313  0.24803923070430756)
(X_314  0.25196078419685364)
(X_315  0.3715686500072479)
(X_316  0.25196078419685364)
(X_317  0.26764705777168274)
(X_318  0.26764705777168274)
(X_319  0.23627452552318573)
(X_320  0.1931372582912445)
(X_321  0.2656862735748291)
(X_322  0.2774509787559509)
(X_323  0.2970588207244873)
(X_324  0.2558823525905609)
(X_325  0.3754902184009552)
(X_326  0.4068627655506134)
(X_327  0.3382352888584137)
(X_328  0.3539215624332428)
(X_329  0.3578431308269501)
(X_330  0.3578431308269501)
(X_331  0.3539215624332428)
(X_332  0.4892157018184662)
(X_333  0.4892157018184662)
(X_334  0.4852941334247589)
(X_335  0.4892157018184662)
(X_336  0.31078431010246277)
(X_337  0.38333335518836975)
(X_338  0.26764705777168274)
(X_339  0.38333335518836975)
(X_340  0.39901962876319885)
(X_341  0.387254923582077)
(X_342  0.27156862616539)
(X_343  0.26764705777168274)
(X_344  0.3284313976764679)
(X_345  0.33627453446388245)
(X_346  0.33627453446388245)
(X_347  0.3245098292827606)
(X_348  0.3088235557079315)
(X_349  0.30098041892051697)
(X_350  0.3088235557079315)
(X_351  0.31666669249534607)
(X_352  0.24803923070430756)
(X_353  0.35196080803871155)
(X_354  0.3637255132198334)
(X_355  0.3794117867946625)
(X_356  0.29509803652763367)
(X_357  0.3029411733150482)
(X_358  0.3029411733150482)
(X_359  0.40294119715690613)
(X_360  0.387254923582077)
(X_361  0.387254923582077)
(X_362  0.3911764919757843)
(X_363  0.3911764919757843)
(X_364  0.593137264251709)
(X_365  0.5617647171020508)
(X_366  0.550000011920929)
(X_367  0.6774510145187378)
(X_368  0.7127451300621033)
(X_369  0.708823561668396)
(X_370  0.6852941513061523)
(X_371  0.6696078777313232)
(X_372  0.6519607901573181)
(X_373  0.6166666746139526)
(X_374  0.5656862854957581)
(X_375  0.6186274886131287)
(X_376  0.5872549414634705)
(X_377  0.5676470994949341)
(X_378  0.5598039627075195)
(X_379  0.5558823943138123)
(X_380  0.520588219165802)
(X_381  0.5009803771972656)
(X_382  0.3735294044017792)
(X_383  0.34215685725212097)
(X_384  0.4107843339443207)
(X_385  0.27941176295280457)
(X_386  0.25196078419685364)
(X_387  0.23235295712947845)
(X_388  0.32058826088905334)
(X_389  0.33627453446388245)
(X_390  0.3558823764324188)
(X_391  0.36764708161354065)
(X_392  0.32647058367729187)
(X_393  0.3029411733150482)
(X_394  0.3950980603694916)
(X_395  0.4225490391254425)
(X_396  0.44607844948768616)
(X_397  0.34215685725212097)
(X_398  0.43039217591285706)
(X_399  0.4264706075191498)
(X_400  0.3539215624332428)
(X_401  0.44607844948768616)
(X_402  0.4382353127002716)
(X_403  0.34215685725212097)
(X_404  0.36176469922065735)
(X_405  0.39313724637031555)
(X_406  0.4205882251262665)
(X_407  0.5401960611343384)
(X_408  0.522549033164978)
(X_409  0.5147058963775635)
(X_410  0.5068627595901489)
(X_411  0.5068627595901489)
(X_412  0.5068627595901489)
(X_413  0.5990196466445923)
(X_414  0.5794118046760559)
(X_415  0.5676470994949341)
(X_416  0.40882351994514465)
(X_417  0.3813725411891937)
(X_418  0.4264706075191498)
(X_419  0.3715686500072479)
(X_420  0.1774509847164154)
(X_421  0.15784314274787903)
(X_422  0.2539215683937073)
(X_423  0.2617647051811218)
(X_424  0.2656862735748291)
(X_425  0.25784313678741455)
(X_426  0.2617647051811218)
(X_427  0.2696078419685364)
(X_428  0.1617647111415863)
(X_429  0.27352941036224365)
(X_430  0.29313725233078003)
(X_431  0.20098040997982025)
(X_432  0.3088235557079315)
(X_433  0.3127451241016388)
(X_434  0.3284313976764679)
(X_435  0.23627452552318573)
(X_436  0.20098040997982025)
(X_437  0.21274511516094208)
(X_438  0.24411766231060028)
(X_439  0.2872548997402191)
(X_440  0.3343137204647064)
(X_441  0.36176469922065735)
(X_442  0.3656862676143646)
(X_443  0.36176469922065735)
(X_444  0.4539215862751007)
(X_445  0.4735294282436371)
(X_446  0.49705883860588074)
(X_447  0.4049019515514374)
(X_448  0.08725491166114807)
(X_449  0.19117647409439087)
(X_450  0.17549020051956177)
(X_451  0.1558823585510254)
(X_452  0.05588235333561897)
(X_453  0.07941177487373352)
(X_454  0.19117647409439087)
(X_455  0.09117648005485535)
(X_456  0.12647059559822083)
(X_457  0.13431373238563538)
(X_458  0.13823530077934265)
(X_459  0.12647059559822083)
(X_460  0.10686275362968445)
(X_461  0.19117647409439087)
(X_462  0.19117647409439087)
(X_463  0.19509804248809814)
(X_464  0.24607843160629272)
(X_465  0.2696078419685364)
(X_466  0.18529412150382996)
(X_467  0.1774509847164154)
(X_468  0.15784314274787903)
(X_469  0.15784314274787903)
(X_470  0.1931372582912445)
(X_471  0.22843138873577118)
(X_472  0.33627453446388245)
(X_473  0.23627452552318573)
(X_474  0.240196093916893)
(X_475  0.344117671251297)
(X_476  0.07941177487373352)
(X_477  0.0833333432674408)
(X_478  0.07156863063573837)
(X_479  0.0519607849419117)
(X_480  0.04803921654820442)
(X_481  0.06372549384832382)
(X_482  0.07156863063573837)
(X_483  0.0676470622420311)
(X_484  0.04803921654820442)
(X_485  0.05588235333561897)
(X_486  0.06372549384832382)
(X_487  0.05588235333561897)
(X_488  0.14411765336990356)
(X_489  0.136274516582489)
(X_490  0.136274516582489)
(X_491  0.1401960849761963)
(X_492  0.14411765336990356)
(X_493  0.15980392694473267)
(X_494  0.07156863063573837)
(X_495  0.0676470622420311)
(X_496  0.15196079015731812)
(X_497  0.1558823585510254)
(X_498  0.18333333730697632)
(X_499  0.11078432202339172)
(X_500  0.11862745881080627)
(X_501  0.2186274528503418)
(X_502  0.114705890417099)
(X_503  0.10686275362968445)
(X_504  0.05980392172932625)
(X_505  0.16764706373214722)
(X_506  0.15980392694473267)
(X_507  0.1401960849761963)
(X_508  0.136274516582489)
(X_509  0.14803922176361084)
(X_510  0.14803922176361084)
(X_511  0.036274511367082596)
(X_512  0.15196079015731812)
(X_513  0.05980392172932625)
(X_514  0.0676470622420311)
(X_515  0.0676470622420311)
(X_516  0.16372549533843994)
(X_517  0.15980392694473267)
(X_518  0.16372549533843994)
(X_519  0.16764706373214722)
(X_520  0.1558823585510254)
(X_521  0.15980392694473267)
(X_522  0.16372549533843994)
(X_523  0.05980392172932625)
(X_524  0.05980392172932625)
(X_525  0.0676470622420311)
(X_526  0.07941177487373352)
(X_527  0.09509804844856262)
(X_528  0.10686275362968445)
(X_529  0.2029411792755127)
(X_530  0.09509804844856262)
(X_531  0.19117647409439087)
(X_532  0.028431374579668045)
(X_533  0.04019607976078987)
(X_534  0.04019607976078987)
(X_535  0.028431374579668045)
(X_536  0.02450980618596077)
(X_537  0.03235294297337532)
(X_538  0.13235294818878174)
(X_539  0.01666666939854622)
(X_540  0.02450980618596077)
(X_541  0.028431374579668045)
(X_542  0.036274511367082596)
(X_543  0.1401960849761963)
(X_544  0.1401960849761963)
(X_545  0.04019607976078987)
(X_546  0.04019607976078987)
(X_547  0.1401960849761963)
(X_548  0.04019607976078987)
(X_549  0.136274516582489)
(X_550  0.03235294297337532)
(X_551  0.036274511367082596)
(X_552  0.04411764815449715)
(X_553  0.0519607849419117)
(X_554  0.05588235333561897)
(X_555  0.05588235333561897)
(X_556  0.0676470622420311)
(X_557  0.16764706373214722)
(X_558  0.0676470622420311)
(X_559  0.0676470622420311)
(X_560  0.0009803927969187498)
(X_561  0.01666666939854622)
(X_562  0.020588237792253494)
(X_563  0.012745101936161518)
(X_564  0.01666666939854622)
(X_565  0.028431374579668045)
(X_566  0.02450980618596077)
(X_567  0.012745101936161518)
(X_568  0.11274509876966476)
(X_569  0.012745101936161518)
(X_570  0.01666666939854622)
(X_571  0.01666666939854622)
(X_572  0.01666666939854622)
(X_573  0.01666666939854622)
(X_574  0.012745101936161518)
(X_575  0.10882353037595749)
(X_576  0.012745101936161518)
(X_577  0.10490196198225021)
(X_578  0.10098039358854294)
(X_579  0.10490196198225021)
(X_580  0.11666666716337204)
(X_581  0.020588237792253494)
(X_582  0.020588237792253494)
(X_583  0.012745101936161518)
(X_584  0.020588237792253494)
(X_585  0.12058823555707932)
(X_586  0.02450980618596077)
(X_587  0.028431374579668045)
(X_588  0.08529412001371384)
(X_589  0.10098039358854294)
(X_590  0.008823529817163944)
(X_591  0.0009803927969187498)
(X_592  0.008823529817163944)
(X_593  0.020588237792253494)
(X_594  0.12058823555707932)
(X_595  0.10882353037595749)
(X_596  0.036274511367082596)
(X_597  0.028431374579668045)
(X_598  0.028431374579668045)
(X_599  0.12843137979507446)
(X_600  0.13235294818878174)
(X_601  0.12843137979507446)
(X_602  0.12058823555707932)
(X_603  0.11274509876966476)
(X_604  0.02450980618596077)
(X_605  0.020588237792253494)
(X_606  0.020588237792253494)
(X_607  0.12058823555707932)
(X_608  0.12843137979507446)
(X_609  0.12843137979507446)
(X_610  0.028431374579668045)
(X_611  0.020588237792253494)
(X_612  0.02450980618596077)
(X_613  0.12450980395078659)
(X_614  0.12058823555707932)
(X_615  0.12058823555707932)
(X_616  -0.006862743757665157)
(X_617  0.10490196198225021)
(X_618  0.10490196198225021)
(X_619  0.09705882519483566)
(X_620  0.10098039358854294)
(X_621  0.012745101936161518)
(X_622  0.01666666939854622)
(X_623  0.004901961423456669)
(X_624  0.09705882519483566)
(X_625  0.09313725680112839)
(X_626  0.08529412001371384)
(X_627  -0.010784312151372433)
(X_628  0.09705882519483566)
(X_629  0.09705882519483566)
(X_630  0.08921568840742111)
(X_631  0.07745098322629929)
(X_632  -0.006862743757665157)
(X_633  0.09705882519483566)
(X_634  0.10098039358854294)
(X_635  0.10098039358854294)
(X_636  0.09705882519483566)
(X_637  0.09705882519483566)
(X_638  0.09313725680112839)
(X_639  0.09705882519483566)
(X_640  0.09705882519483566)
(X_641  0.09705882519483566)
(X_642  0.09313725680112839)
(X_643  0.08921568840742111)
(X_644  0.10490196198225021)
(X_645  0.11274509876966476)
(X_646  0.008823529817163944)
(X_647  -0.0029411755967885256)
(X_648  -0.006862743757665157)
(X_649  0.10882353037595749)
(X_650  0.10882353037595749)
(X_651  0.10098039358854294)
(X_652  0.0009803927969187498)
(X_653  -0.006862743757665157)
(X_654  -0.010784312151372433)
(X_655  -0.0029411755967885256)
(X_656  0.10882353037595749)
(X_657  0.11274509876966476)
(X_658  0.10098039358854294)
(X_659  0.08921568840742111)
(X_660  0.08921568840742111)
(X_661  0.09705882519483566)
(X_662  0.004901961423456669)
(X_663  0.0009803927969187498)
(X_664  -0.006862743757665157)
(X_665  -0.010784312151372433)
(X_666  -0.010784312151372433)
(X_667  -0.006862743757665157)
(X_668  0.004901961423456669)
(X_669  0.004901961423456669)
(X_670  0.0009803927969187498)
(X_671  0.10098039358854294)
(X_672  0.012745101936161518)
(X_673  0.10490196198225021)
(X_674  -0.006862743757665157)
(X_675  0.09313725680112839)
(X_676  0.09705882519483566)
(X_677  0.10490196198225021)
(X_678  0.10490196198225021)
(X_679  0.10098039358854294)
(X_680  0.10490196198225021)
(X_681  0.09705882519483566)
(X_682  0.09313725680112839)
(X_683  -0.0029411755967885256)
(X_684  0.0009803927969187498)
(X_685  0.10490196198225021)
(X_686  0.10098039358854294)
(X_687  0.09313725680112839)
(X_688  0.11666666716337204)
(X_689  0.10882353037595749)
(X_690  0.10098039358854294)
(X_691  0.09705882519483566)
(X_692  0.10490196198225021)
(X_693  0.10490196198225021)
(X_694  0.10490196198225021)
(X_695  0.10098039358854294)
(X_696  0.09705882519483566)
(X_697  -0.006862743757665157)
(X_698  -0.006862743757665157)
(X_699  0.09705882519483566)
(X_700  0.11274509876966476)
(X_701  0.10490196198225021)
(X_702  -0.0029411755967885256)
(X_703  0.09705882519483566)
(X_704  0.10098039358854294)
(X_705  0.10882353037595749)
(X_706  0.008823529817163944)
(X_707  0.004901961423456669)
(X_708  -0.010784312151372433)
(X_709  -0.014705880545079708)
(X_710  -0.018627449870109558)
(X_711  -0.010784312151372433)
(X_712  -0.0029411755967885256)
(X_713  0.0009803927969187498)
(X_714  0.09705882519483566)
(X_715  0.09313725680112839)
(X_716  0.0009803927969187498)
(X_717  -0.006862743757665157)
(X_718  -0.010784312151372433)
(X_719  -0.006862743757665157)
(X_720  0.0009803927969187498)
(X_721  0.008823529817163944)
(X_722  0.008823529817163944)
(X_723  0.004901961423456669)
(X_724  -0.0029411755967885256)
(X_725  -0.010784312151372433)
(X_726  -0.014705880545079708)
(X_727  0.08921568840742111)
(X_728  0.12843137979507446)
(X_729  0.11666666716337204)
(X_730  0.004901961423456669)
(X_731  0.09705882519483566)
(X_732  0.09313725680112839)
(X_733  0.09313725680112839)
(X_734  0.08529412001371384)
(X_735  0.07745098322629929)
(X_736  0.008823529817163944)
(X_737  0.0009803927969187498)
(X_738  -0.006862743757665157)
(X_739  -0.010784312151372433)
(X_740  -0.010784312151372433)
(X_741  -0.010784312151372433)
(X_742  -0.022549020126461983)
(X_743  -0.030392156913876534)
(X_744  0.008823529817163944)
(X_745  -0.0029411755967885256)
(X_746  -0.010784312151372433)
(X_747  -0.010784312151372433)
(X_748  -0.010784312151372433)
(X_749  -0.006862743757665157)
(X_750  0.08921568840742111)
(X_751  -0.014705880545079708)
(X_752  0.12450980395078659)
(X_753  0.01666666939854622)
(X_754  0.10882353037595749)
(X_755  0.10882353037595749)
(X_756  0.6401960849761963)
(X_757  0.6245098114013672)
(X_758  0.6049019694328308)
(X_759  0.6852941513061523)
(X_760  0.6696078777313232)
(X_761  0.6500000357627869)
(X_762  0.6303921937942505)
(X_763  0.6186274886131287)
(X_764  0.4480392038822174)
(X_765  0.4323529303073883)
(X_766  0.5127450823783875)
(X_767  0.4892157018184662)
(X_768  0.4735294282436371)
(X_769  0.4539215862751007)
(X_770  0.43039217591285706)
(X_771  0.41470590233802795)
(X_772  0.3480392396450043)
(X_773  0.33235296607017517)
(X_774  0.21274511516094208)
(X_775  0.1931372582912445)
(X_776  0.18137255311012268)
(X_777  0.16960784792900085)
(X_778  0.15392157435417175)
(X_779  0.14215686917304993)
(X_780  0.17549020051956177)
(X_781  0.0676470622420311)
(X_782  0.05588235333561897)
(X_783  0.14803922176361084)
(Y_0 38.70527267456055)
(Y_1 -4.962005138397217)
(Y_2 10.695201873779297)
(Y_3 -44.41703796386719))