((X_0  1.0499999523162842)
(X_1  1.0421568155288696)
(X_2  0.9264705777168274)
(X_3  0.9264705777168274)
(X_4  0.9303921461105347)
(X_5  0.9303921461105347)
(X_6  0.9225490093231201)
(X_7  0.9107843041419983)
(X_8  0.8911764621734619)
(X_9  0.8794117569923401)
(X_10  0.8676470518112183)
(X_11  0.8676470518112183)
(X_12  0.863725483417511)
(X_13  0.9480392336845398)
(X_14  0.9205882549285889)
(X_15  0.8970588445663452)
(X_16  0.7813725471496582)
(X_17  0.8852941393852234)
(X_18  0.865686297416687)
(X_19  0.7303921580314636)
(X_20  0.8068627715110779)
(X_21  0.8029412031173706)
(X_22  0.679411768913269)
(X_23  0.6519607901573181)
(X_24  0.7441176772117615)
(X_25  0.7284314036369324)
(X_26  0.5970588326454163)
(X_27  0.6735294461250305)
(X_28  0.4852941334247589)
(X_29  0.4735294282436371)
(X_30  0.3578431308269501)
(X_31  0.34607842564582825)
(X_32  0.3382352888584137)
(X_33  0.3186274468898773)
(X_34  0.2911764681339264)
(X_35  0.3754902184009552)
(X_36  0.24803923070430756)
(X_37  0.23627452552318573)
(X_38  0.22058825194835663)
(X_39  0.20490197837352753)
(X_40  0.18921568989753723)
(X_41  0.27352941036224365)
(X_42  0.2539215683937073)
(X_43  0.23823529481887817)
(X_44  0.2029411792755127)
(X_45  0.21470588445663452)
(X_46  0.2186274528503418)
(X_47  0.10686275362968445)
(X_48  0.11078432202339172)
(X_49  0.114705890417099)
(X_50  0.0990196168422699)
(X_51  0.0676470622420311)
(X_52  0.17549020051956177)
(X_53  0.07156863063573837)
(X_54  0.07156863063573837)
(X_55  0.16764706373214722)
(X_56  0.16372549533843994)
(X_57  0.06372549384832382)
(X_58  0.05980392172932625)
(X_59  0.05980392172932625)
(X_60  0.05980392172932625)
(X_61  0.04803921654820442)
(X_62  0.03235294297337532)
(X_63  0.11666666716337204)
(X_64  0.06372549384832382)
(X_65  0.0676470622420311)
(X_66  0.06372549384832382)
(X_67  0.05588235333561897)
(X_68  0.14411765336990356)
(X_69  0.1401960849761963)
(X_70  0.14411765336990356)
(X_71  0.04803921654820442)
(X_72  0.04019607976078987)
(X_73  0.04411764815449715)
(X_74  0.036274511367082596)
(X_75  0.13235294818878174)
(X_76  0.1401960849761963)
(X_77  0.15196079015731812)
(X_78  0.04019607976078987)
(X_79  0.01666666939854622)
(X_80  0.04411764815449715)
(X_81  0.04803921654820442)
(X_82  0.05588235333561897)
(X_83  0.15980392694473267)
(X_84  0.11274509876966476)
(X_85  0.11666666716337204)
(X_86  0.12450980395078659)
(X_87  0.13235294818878174)
(X_88  0.04019607976078987)
(X_89  0.04411764815449715)
(X_90  0.04411764815449715)
(X_91  0.04411764815449715)
(X_92  0.10098039358854294)
(X_93  0.012745101936161518)
(X_94  0.028431374579668045)
(X_95  0.028431374579668045)
(X_96  0.12058823555707932)
(X_97  0.12058823555707932)
(X_98  0.13235294818878174)
(X_99  0.14803922176361084)
(X_100  0.14411765336990356)
(X_101  0.14411765336990356)
(X_102  0.1401960849761963)
(X_103  0.04803921654820442)
(X_104  0.07156863063573837)
(X_105  0.09117648005485535)
(X_106  0.09509804844856262)
(X_107  0.08725491166114807)
(X_108  0.07941177487373352)
(X_109  0.0676470622420311)
(X_110  0.04803921654820442)
(X_111  0.13235294818878174)
(X_112  0.04803921654820442)
(X_113  0.04803921654820442)
(X_114  0.04411764815449715)
(X_115  0.036274511367082596)
(X_116  0.03235294297337532)
(X_117  0.03235294297337532)
(X_118  0.036274511367082596)
(X_119  0.04019607976078987)
(X_120  0.04411764815449715)
(X_121  0.05588235333561897)
(X_122  0.0676470622420311)
(X_123  0.06372549384832382)
(X_124  0.14803922176361084)
(X_125  0.136274516582489)
(X_126  0.136274516582489)
(X_127  0.1401960849761963)
(X_128  0.10098039358854294)
(X_129  0.13235294818878174)
(X_130  0.18333333730697632)
(X_131  0.24607843160629272)
(X_132  0.2970588207244873)
(X_133  0.3284313976764679)
(X_134  0.3401961028575897)
(X_135  0.3480392396450043)
(X_136  0.41470590233802795)
(X_137  0.29901960492134094)
(X_138  0.2754901945590973)
(X_139  0.35196080803871155)
(X_140  0.13235294818878174)
(X_141  0.136274516582489)
(X_142  0.036274511367082596)
(X_143  0.13235294818878174)
(X_144  0.12058823555707932)
(X_145  0.020588237792253494)
(X_146  0.02450980618596077)
(X_147  0.12843137979507446)
(X_148  0.12450980395078659)
(X_149  0.12843137979507446)
(X_150  0.03235294297337532)
(X_151  0.03235294297337532)
(X_152  0.02450980618596077)
(X_153  0.12058823555707932)
(X_154  0.12058823555707932)
(X_155  0.020588237792253494)
(X_156  0.020588237792253494)
(X_157  0.07549020648002625)
(X_158  0.2696078419685364)
(X_159  0.3558823764324188)
(X_160  0.3950980603694916)
(X_161  0.3911764919757843)
(X_162  0.2911764681339264)
(X_163  0.39901962876319885)
(X_164  0.26372548937797546)
(X_165  0.2754901945590973)
(X_166  0.2911764681339264)
(X_167  0.4068627655506134)
(X_168  0.012745101936161518)
(X_169  0.13235294818878174)
(X_170  0.15196079015731812)
(X_171  0.15980392694473267)
(X_172  0.1558823585510254)
(X_173  0.15196079015731812)
(X_174  0.0519607849419117)
(X_175  0.05588235333561897)
(X_176  0.14803922176361084)
(X_177  0.136274516582489)
(X_178  0.020588237792253494)
(X_179  0.11666666716337204)
(X_180  0.12058823555707932)
(X_181  0.13235294818878174)
(X_182  0.04019607976078987)
(X_183  0.04803921654820442)
(X_184  0.24607843160629272)
(X_185  0.2852941155433655)
(X_186  0.3401961028575897)
(X_187  0.3715686500072479)
(X_188  0.3480392396450043)
(X_189  0.30490198731422424)
(X_190  0.19705882668495178)
(X_191  0.31666669249534607)
(X_192  0.2970588207244873)
(X_193  0.21274511516094208)
(X_194  0.23627452552318573)
(X_195  0.26372548937797546)
(X_196  0.20098040997982025)
(X_197  0.3245098292827606)
(X_198  0.3558823764324188)
(X_199  0.26764705777168274)
(X_200  0.2598039209842682)
(X_201  0.3401961028575897)
(X_202  0.3245098292827606)
(X_203  0.31666669249534607)
(X_204  0.1931372582912445)
(X_205  0.2617647051811218)
(X_206  0.11862745881080627)
(X_207  0.19117647409439087)
(X_208  0.09117648005485535)
(X_209  0.10294118523597717)
(X_210  0.10686275362968445)
(X_211  0.21078431606292725)
(X_212  0.3637255132198334)
(X_213  0.36764708161354065)
(X_214  0.26764705777168274)
(X_215  0.23235295712947845)
(X_216  0.1617647111415863)
(X_217  0.19901961088180542)
(X_218  0.21078431606292725)
(X_219  0.25784313678741455)
(X_220  0.30490198731422424)
(X_221  0.2970588207244873)
(X_222  0.2813725471496582)
(X_223  0.2656862735748291)
(X_224  0.3735294044017792)
(X_225  0.3656862676143646)
(X_226  0.3539215624332428)
(X_227  0.3499999940395355)
(X_228  0.34215685725212097)
(X_229  0.33039215207099915)
(X_230  0.31078431010246277)
(X_231  0.3950980603694916)
(X_232  0.2754901945590973)
(X_233  0.2598039209842682)
(X_234  0.240196093916893)
(X_235  0.3245098292827606)
(X_236  0.21274511516094208)
(X_237  0.20098040997982025)
(X_238  0.1774509847164154)
(X_239  0.1617647111415863)
(X_240  0.3029411733150482)
(X_241  0.387254923582077)
(X_242  0.3284313976764679)
(X_243  0.23823529481887817)
(X_244  0.1715686321258545)
(X_245  0.1558823585510254)
(X_246  0.16764706373214722)
(X_247  0.17941176891326904)
(X_248  0.18137255311012268)
(X_249  0.29313725233078003)
(X_250  0.1774509847164154)
(X_251  0.23039215803146362)
(X_252  0.24803923070430756)
(X_253  0.27156862616539)
(X_254  0.40294119715690613)
(X_255  0.4264706075191498)
(X_256  0.4264706075191498)
(X_257  0.4107843339443207)
(X_258  0.387254923582077)
(X_259  0.3715686500072479)
(X_260  0.240196093916893)
(X_261  0.32058826088905334)
(X_262  0.29313725233078003)
(X_263  0.18137255311012268)
(X_264  0.1774509847164154)
(X_265  0.16568627953529358)
(X_266  0.25)
(X_267  0.23039215803146362)
(X_268  0.22647058963775635)
(X_269  0.2617647051811218)
(X_270  0.2813725471496582)
(X_271  0.1617647111415863)
(X_272  0.1303921639919281)
(X_273  0.10686275362968445)
(X_274  0.1872549057006836)
(X_275  0.07156863063573837)
(X_276  0.23039215803146362)
(X_277  0.25)
(X_278  0.15392157435417175)
(X_279  0.1303921639919281)
(X_280  0.44607844948768616)
(X_281  0.4225490391254425)
(X_282  0.28333333134651184)
(X_283  0.23235295712947845)
(X_284  0.1931372582912445)
(X_285  0.1774509847164154)
(X_286  0.2774509787559509)
(X_287  0.2852941155433655)
(X_288  0.1617647111415863)
(X_289  0.2343137264251709)
(X_290  0.10294118523597717)
(X_291  0.09117648005485535)
(X_292  0.09509804844856262)
(X_293  0.09117648005485535)
(X_294  0.07549020648002625)
(X_295  0.15980392694473267)
(X_296  0.15196079015731812)
(X_297  0.0833333432674408)
(X_298  0.10686275362968445)
(X_299  0.114705890417099)
(X_300  0.22647058963775635)
(X_301  0.25784313678741455)
(X_302  0.2852941155433655)
(X_303  0.29313725233078003)
(X_304  0.08725491166114807)
(X_305  0.11862745881080627)
(X_306  0.15000000596046448)
(X_307  0.2617647051811218)
(X_308  0.387254923582077)
(X_309  0.3558823764324188)
(X_310  0.32058826088905334)
(X_311  0.21666668355464935)
(X_312  0.25196078419685364)
(X_313  0.3068627417087555)
(X_314  0.3656862676143646)
(X_315  0.3970588147640228)
(X_316  0.2558823525905609)
(X_317  0.3284313976764679)
(X_318  0.2970588207244873)
(X_319  0.2852941155433655)
(X_320  0.28921568393707275)
(X_321  0.18921568989753723)
(X_322  0.18137255311012268)
(X_323  0.2696078419685364)
(X_324  0.09117648005485535)
(X_325  0.09509804844856262)
(X_326  0.0833333432674408)
(X_327  0.06372549384832382)
(X_328  0.07549020648002625)
(X_329  0.23039215803146362)
(X_330  0.2852941155433655)
(X_331  0.3127451241016388)
(X_332  0.2774509787559509)
(X_333  0.20098040997982025)
(X_334  0.22843138873577118)
(X_335  0.25196078419685364)
(X_336  0.5009803771972656)
(X_337  0.4892157018184662)
(X_338  0.4852941334247589)
(X_339  0.5009803771972656)
(X_340  0.5166666507720947)
(X_341  0.49705883860588074)
(X_342  0.34607842564582825)
(X_343  0.29901960492134094)
(X_344  0.3696078360080719)
(X_345  0.3499999940395355)
(X_346  0.32647058367729187)
(X_347  0.4107843339443207)
(X_348  0.3068627417087555)
(X_349  0.3068627417087555)
(X_350  0.3029411733150482)
(X_351  0.39901962876319885)
(X_352  0.3911764919757843)
(X_353  0.40294119715690613)
(X_354  0.29901960492134094)
(X_355  0.27941176295280457)
(X_356  0.26764705777168274)
(X_357  0.3715686500072479)
(X_358  0.3715686500072479)
(X_359  0.3598039448261261)
(X_360  0.23627452552318573)
(X_361  0.23627452552318573)
(X_362  0.240196093916893)
(X_363  0.3480392396450043)
(X_364  0.3558823764324188)
(X_365  0.3754902184009552)
(X_366  0.41862747073173523)
(X_367  0.48137256503105164)
(X_368  0.5245097875595093)
(X_369  0.5088235139846802)
(X_370  0.34607842564582825)
(X_371  0.2911764681339264)
(X_372  0.3186274468898773)
(X_373  0.31470587849617004)
(X_374  0.40294119715690613)
(X_375  0.38333335518836975)
(X_376  0.26372548937797546)
(X_377  0.2558823525905609)
(X_378  0.2598039209842682)
(X_379  0.26764705777168274)
(X_380  0.26764705777168274)
(X_381  0.27941176295280457)
(X_382  0.27941176295280457)
(X_383  0.26372548937797546)
(X_384  0.2598039209842682)
(X_385  0.26764705777168274)
(X_386  0.3637255132198334)
(X_387  0.35196080803871155)
(X_388  0.33235296607017517)
(X_389  0.31666669249534607)
(X_390  0.32058826088905334)
(X_391  0.33627453446388245)
(X_392  0.2343137264251709)
(X_393  0.2539215683937073)
(X_394  0.18921568989753723)
(X_395  0.3245098292827606)
(X_396  0.35196080803871155)
(X_397  0.3598039448261261)
(X_398  0.3480392396450043)
(X_399  0.33627453446388245)
(X_400  0.33627453446388245)
(X_401  0.24803923070430756)
(X_402  0.25196078419685364)
(X_403  0.3284313976764679)
(X_404  0.29313725233078003)
(X_405  0.27352941036224365)
(X_406  0.18137255311012268)
(X_407  0.20098040997982025)
(X_408  0.23627452552318573)
(X_409  0.33235296607017517)
(X_410  0.30490198731422424)
(X_411  0.2852941155433655)
(X_412  0.30098041892051697)
(X_413  0.24803923070430756)
(X_414  0.28333333134651184)
(X_415  0.29509803652763367)
(X_416  0.24803923070430756)
(X_417  0.23627452552318573)
(X_418  0.24411766231060028)
(X_419  0.38333335518836975)
(X_420  0.09117648005485535)
(X_421  0.12647059559822083)
(X_422  0.1617647111415863)
(X_423  0.17352941632270813)
(X_424  0.1617647111415863)
(X_425  0.15000000596046448)
(X_426  0.15000000596046448)
(X_427  0.15784314274787903)
(X_428  0.1617647111415863)
(X_429  0.18529412150382996)
(X_430  0.20098040997982025)
(X_431  0.17352941632270813)
(X_432  0.12647059559822083)
(X_433  0.19901961088180542)
(X_434  0.11078432202339172)
(X_435  0.13823530077934265)
(X_436  0.2852941155433655)
(X_437  0.2774509787559509)
(X_438  0.25784313678741455)
(X_439  0.2343137264251709)
(X_440  0.24215686321258545)
(X_441  0.2774509787559509)
(X_442  0.20098040997982025)
(X_443  0.20098040997982025)
(X_444  0.19705882668495178)
(X_445  0.18137255311012268)
(X_446  0.18921568989753723)
(X_447  0.3245098292827606)
(X_448  0.22254902124404907)
(X_449  0.11078432202339172)
(X_450  0.19901961088180542)
(X_451  0.21078431606292725)
(X_452  0.23039215803146362)
(X_453  0.24215686321258545)
(X_454  0.23039215803146362)
(X_455  0.2186274528503418)
(X_456  0.14215686917304993)
(X_457  0.24215686321258545)
(X_458  0.23823529481887817)
(X_459  0.23039215803146362)
(X_460  0.22254902124404907)
(X_461  0.22647058963775635)
(X_462  0.13823530077934265)
(X_463  0.15000000596046448)
(X_464  0.13823530077934265)
(X_465  0.15784314274787903)
(X_466  0.2656862735748291)
(X_467  0.2617647051811218)
(X_468  0.2656862735748291)
(X_469  0.17352941632270813)
(X_470  0.16568627953529358)
(X_471  0.25)
(X_472  0.22647058963775635)
(X_473  0.22647058963775635)
(X_474  0.22647058963775635)
(X_475  0.12647059559822083)
(X_476  0.0833333432674408)
(X_477  0.07156863063573837)
(X_478  0.16372549533843994)
(X_479  0.1715686321258545)
(X_480  0.09117648005485535)
(X_481  0.0990196168422699)
(X_482  0.09117648005485535)
(X_483  0.07941177487373352)
(X_484  0.19509804248809814)
(X_485  0.19901961088180542)
(X_486  0.19509804248809814)
(X_487  0.08725491166114807)
(X_488  0.07941177487373352)
(X_489  0.0833333432674408)
(X_490  0.09509804844856262)
(X_491  0.10686275362968445)
(X_492  0.0990196168422699)
(X_493  0.11862745881080627)
(X_494  0.22647058963775635)
(X_495  0.2186274528503418)
(X_496  0.22254902124404907)
(X_497  0.23039215803146362)
(X_498  0.22254902124404907)
(X_499  0.10686275362968445)
(X_500  0.1872549057006836)
(X_501  0.08725491166114807)
(X_502  0.08725491166114807)
(X_503  0.08725491166114807)
(X_504  0.14411765336990356)
(X_505  0.03235294297337532)
(X_506  0.02450980618596077)
(X_507  0.03235294297337532)
(X_508  0.04803921654820442)
(X_509  0.05588235333561897)
(X_510  0.04803921654820442)
(X_511  0.04019607976078987)
(X_512  0.0519607849419117)
(X_513  0.05588235333561897)
(X_514  0.0519607849419117)
(X_515  0.04803921654820442)
(X_516  0.04019607976078987)
(X_517  0.04019607976078987)
(X_518  0.0519607849419117)
(X_519  0.05980392172932625)
(X_520  0.06372549384832382)
(X_521  0.07549020648002625)
(X_522  0.0833333432674408)
(X_523  0.07156863063573837)
(X_524  0.07156863063573837)
(X_525  0.17941176891326904)
(X_526  0.1715686321258545)
(X_527  0.1558823585510254)
(X_528  0.04411764815449715)
(X_529  0.04411764815449715)
(X_530  0.04411764815449715)
(X_531  0.14411765336990356)
(X_532  0.12450980395078659)
(X_533  0.11666666716337204)
(X_534  0.11274509876966476)
(X_535  0.11666666716337204)
(X_536  0.12843137979507446)
(X_537  0.03235294297337532)
(X_538  0.028431374579668045)
(X_539  0.020588237792253494)
(X_540  0.03235294297337532)
(X_541  0.036274511367082596)
(X_542  0.036274511367082596)
(X_543  0.03235294297337532)
(X_544  0.02450980618596077)
(X_545  0.12843137979507446)
(X_546  0.136274516582489)
(X_547  0.04411764815449715)
(X_548  0.14411765336990356)
(X_549  0.05588235333561897)
(X_550  0.05588235333561897)
(X_551  0.04803921654820442)
(X_552  0.14411765336990356)
(X_553  0.15196079015731812)
(X_554  0.14411765336990356)
(X_555  0.028431374579668045)
(X_556  0.12843137979507446)
(X_557  0.028431374579668045)
(X_558  0.12843137979507446)
(X_559  0.12843137979507446)
(X_560  0.11274509876966476)
(X_561  0.11274509876966476)
(X_562  0.10882353037595749)
(X_563  0.11274509876966476)
(X_564  0.11666666716337204)
(X_565  0.12058823555707932)
(X_566  0.01666666939854622)
(X_567  0.012745101936161518)
(X_568  0.02450980618596077)
(X_569  0.028431374579668045)
(X_570  0.03235294297337532)
(X_571  0.028431374579668045)
(X_572  0.020588237792253494)
(X_573  0.020588237792253494)
(X_574  0.12843137979507446)
(X_575  0.03235294297337532)
(X_576  0.028431374579668045)
(X_577  0.04019607976078987)
(X_578  0.04019607976078987)
(X_579  0.028431374579668045)
(X_580  0.02450980618596077)
(X_581  0.13235294818878174)
(X_582  0.12843137979507446)
(X_583  0.11666666716337204)
(X_584  0.12450980395078659)
(X_585  0.02450980618596077)
(X_586  0.02450980618596077)
(X_587  0.02450980618596077)
(X_588  0.10490196198225021)
(X_589  0.004901961423456669)
(X_590  0.004901961423456669)
(X_591  0.004901961423456669)
(X_592  0.004901961423456669)
(X_593  0.004901961423456669)
(X_594  0.10490196198225021)
(X_595  0.10490196198225021)
(X_596  0.10882353037595749)
(X_597  0.01666666939854622)
(X_598  0.020588237792253494)
(X_599  0.01666666939854622)
(X_600  0.012745101936161518)
(X_601  0.008823529817163944)
(X_602  0.012745101936161518)
(X_603  0.01666666939854622)
(X_604  0.008823529817163944)
(X_605  0.12058823555707932)
(X_606  0.12058823555707932)
(X_607  0.10490196198225021)
(X_608  0.10490196198225021)
(X_609  0.11666666716337204)
(X_610  0.11666666716337204)
(X_611  0.004901961423456669)
(X_612  0.11274509876966476)
(X_613  0.012745101936161518)
(X_614  0.11274509876966476)
(X_615  0.11274509876966476)
(X_616  0.10098039358854294)
(X_617  0.10098039358854294)
(X_618  0.004901961423456669)
(X_619  0.004901961423456669)
(X_620  0.0009803927969187498)
(X_621  0.09705882519483566)
(X_622  0.10098039358854294)
(X_623  0.10490196198225021)
(X_624  0.09313725680112839)
(X_625  0.10098039358854294)
(X_626  0.10882353037595749)
(X_627  0.004901961423456669)
(X_628  0.0009803927969187498)
(X_629  -0.0029411755967885256)
(X_630  0.0009803927969187498)
(X_631  0.004901961423456669)
(X_632  0.09705882519483566)
(X_633  0.008823529817163944)
(X_634  0.008823529817163944)
(X_635  -0.0029411755967885256)
(X_636  0.09705882519483566)
(X_637  0.10882353037595749)
(X_638  0.11274509876966476)
(X_639  0.0009803927969187498)
(X_640  0.0009803927969187498)
(X_641  0.0009803927969187498)
(X_642  0.10098039358854294)
(X_643  0.10098039358854294)
(X_644  0.10490196198225021)
(X_645  0.008823529817163944)
(X_646  0.11274509876966476)
(X_647  0.10882353037595749)
(X_648  0.10490196198225021)
(X_649  0.0009803927969187498)
(X_650  0.004901961423456669)
(X_651  0.10882353037595749)
(X_652  -0.010784312151372433)
(X_653  -0.0029411755967885256)
(X_654  0.004901961423456669)
(X_655  0.004901961423456669)
(X_656  -0.0029411755967885256)
(X_657  -0.006862743757665157)
(X_658  -0.006862743757665157)
(X_659  -0.0029411755967885256)
(X_660  0.09705882519483566)
(X_661  0.10882353037595749)
(X_662  0.10490196198225021)
(X_663  0.09313725680112839)
(X_664  0.09705882519483566)
(X_665  0.11274509876966476)
(X_666  0.11666666716337204)
(X_667  0.008823529817163944)
(X_668  -0.0029411755967885256)
(X_669  -0.0029411755967885256)
(X_670  -0.0029411755967885256)
(X_671  -0.0029411755967885256)
(X_672  0.09705882519483566)
(X_673  -0.0029411755967885256)
(X_674  -0.0029411755967885256)
(X_675  -0.0029411755967885256)
(X_676  -0.0029411755967885256)
(X_677  -0.0029411755967885256)
(X_678  0.09705882519483566)
(X_679  0.09705882519483566)
(X_680  -0.0029411755967885256)
(X_681  -0.0029411755967885256)
(X_682  -0.0029411755967885256)
(X_683  -0.0029411755967885256)
(X_684  -0.0029411755967885256)
(X_685  -0.0029411755967885256)
(X_686  -0.0029411755967885256)
(X_687  -0.0029411755967885256)
(X_688  0.09313725680112839)
(X_689  0.09313725680112839)
(X_690  -0.006862743757665157)
(X_691  -0.006862743757665157)
(X_692  0.09313725680112839)
(X_693  0.09313725680112839)
(X_694  -0.006862743757665157)
(X_695  -0.006862743757665157)
(X_696  0.09705882519483566)
(X_697  0.09705882519483566)
(X_698  0.09705882519483566)
(X_699  0.09705882519483566)
(X_700  0.09705882519483566)
(X_701  -0.0029411755967885256)
(X_702  -0.0029411755967885256)
(X_703  -0.0029411755967885256)
(X_704  -0.0029411755967885256)
(X_705  -0.0029411755967885256)
(X_706  -0.0029411755967885256)
(X_707  -0.0029411755967885256)
(X_708  -0.0029411755967885256)
(X_709  -0.0029411755967885256)
(X_710  0.09705882519483566)
(X_711  0.09705882519483566)
(X_712  0.09705882519483566)
(X_713  -0.0029411755967885256)
(X_714  -0.0029411755967885256)
(X_715  -0.0029411755967885256)
(X_716  0.09313725680112839)
(X_717  -0.006862743757665157)
(X_718  -0.006862743757665157)
(X_719  -0.006862743757665157)
(X_720  0.09313725680112839)
(X_721  0.09313725680112839)
(X_722  0.09313725680112839)
(X_723  0.09313725680112839)
(X_724  0.09705882519483566)
(X_725  0.09705882519483566)
(X_726  0.09705882519483566)
(X_727  0.09705882519483566)
(X_728  0.09705882519483566)
(X_729  -0.0029411755967885256)
(X_730  -0.0029411755967885256)
(X_731  0.09705882519483566)
(X_732  0.09705882519483566)
(X_733  0.09705882519483566)
(X_734  0.09705882519483566)
(X_735  -0.0029411755967885256)
(X_736  0.09705882519483566)
(X_737  -0.0029411755967885256)
(X_738  -0.0029411755967885256)
(X_739  -0.0029411755967885256)
(X_740  -0.0029411755967885256)
(X_741  0.09705882519483566)
(X_742  0.09705882519483566)
(X_743  0.09705882519483566)
(X_744  -0.006862743757665157)
(X_745  -0.006862743757665157)
(X_746  -0.006862743757665157)
(X_747  -0.006862743757665157)
(X_748  -0.006862743757665157)
(X_749  0.09313725680112839)
(X_750  -0.006862743757665157)
(X_751  -0.006862743757665157)
(X_752  0.09705882519483566)
(X_753  0.09705882519483566)
(X_754  -0.0029411755967885256)
(X_755  0.09705882519483566)
(X_756  0.09313725680112839)
(X_757  0.09313725680112839)
(X_758  -0.006862743757665157)
(X_759  -0.006862743757665157)
(X_760  -0.006862743757665157)
(X_761  -0.006862743757665157)
(X_762  -0.006862743757665157)
(X_763  0.09313725680112839)
(X_764  0.09705882519483566)
(X_765  -0.0029411755967885256)
(X_766  -0.0029411755967885256)
(X_767  -0.0029411755967885256)
(X_768  -0.0029411755967885256)
(X_769  -0.0029411755967885256)
(X_770  -0.0029411755967885256)
(X_771  -0.0029411755967885256)
(X_772  -0.006862743757665157)
(X_773  -0.006862743757665157)
(X_774  -0.006862743757665157)
(X_775  -0.006862743757665157)
(X_776  0.09313725680112839)
(X_777  0.09313725680112839)
(X_778  -0.006862743757665157)
(X_779  -0.006862743757665157)
(X_780  -0.006862743757665157)
(X_781  -0.006862743757665157)
(X_782  -0.006862743757665157)
(X_783  -0.006862743757665157)
(Y_0 -28.31836700439453)
(Y_1 39.5735969543457)
(Y_2 -26.9294376373291)
(Y_3 16.359216690063477))