((X_0  1.0421568155288696)
(X_1  0.9460784196853638)
(X_2  0.949999988079071)
(X_3  0.949999988079071)
(X_4  0.949999988079071)
(X_5  0.949999988079071)
(X_6  0.949999988079071)
(X_7  0.949999988079071)
(X_8  1.0499999523162842)
(X_9  1.0499999523162842)
(X_10  1.0382353067398071)
(X_11  0.9382352828979492)
(X_12  1.0129526853561401)
(X_13  1.0460784435272217)
(X_14  1.0460784435272217)
(X_15  0.9421568512916565)
(X_16  0.9421568512916565)
(X_17  0.949999988079071)
(X_18  0.949999988079071)
(X_19  0.949999988079071)
(X_20  0.9792040586471558)
(X_21  1.0499999523162842)
(X_22  1.0499999523162842)
(X_23  0.9460784196853638)
(X_24  1.0382353067398071)
(X_25  0.9382352828979492)
(X_26  0.9382352828979492)
(X_27  0.9421568512916565)
(X_28  1.034313678741455)
(X_29  1.0382353067398071)
(X_30  0.9382352828979492)
(X_31  0.9421568512916565)
(X_32  0.9421568512916565)
(X_33  0.9382352828979492)
(X_34  0.9343137145042419)
(X_35  0.9343137145042419)
(X_36  0.949999988079071)
(X_37  1.0499999523162842)
(X_38  0.949999988079071)
(X_39  0.949999988079071)
(X_40  0.949999988079071)
(X_41  1.0499999523162842)
(X_42  1.0499999523162842)
(X_43  1.0499999523162842)
(X_44  1.0382353067398071)
(X_45  1.0499999523162842)
(X_46  0.9804527163505554)
(X_47  0.9382352828979492)
(X_48  0.9382352828979492)
(X_49  0.9460784196853638)
(X_50  0.9460784196853638)
(X_51  0.9343137145042419)
(X_52  1.0499999523162842)
(X_53  1.0499999523162842)
(X_54  0.949999988079071)
(X_55  1.0499999523162842)
(X_56  1.0499999523162842)
(X_57  0.949999988079071)
(X_58  0.949999988079071)
(X_59  0.949999988079071)
(X_60  0.949999988079071)
(X_61  0.949999988079071)
(X_62  0.9421568512916565)
(X_63  0.9421568512916565)
(X_64  0.9382352828979492)
(X_65  0.9460784196853638)
(X_66  0.9460784196853638)
(X_67  0.9382352828979492)
(X_68  1.0264705419540405)
(X_69  0.9324394464492798)
(X_70  0.9303921461105347)
(X_71  0.9421568512916565)
(X_72  0.949999988079071)
(X_73  0.949999988079071)
(X_74  0.949999988079071)
(X_75  0.9382352828979492)
(X_76  1.0382353067398071)
(X_77  1.0499999523162842)
(X_78  1.0499999523162842)
(X_79  1.0421568155288696)
(X_80  1.0499999523162842)
(X_81  1.0460784435272217)
(X_82  1.0460784435272217)
(X_83  1.0421568155288696)
(X_84  0.6500000357627869)
(X_85  0.6539216041564941)
(X_86  0.6539216041564941)
(X_87  0.6539216041564941)
(X_88  0.6500000357627869)
(X_89  0.550000011920929)
(X_90  0.5460784435272217)
(X_91  0.5421568751335144)
(X_92  0.6068627834320068)
(X_93  0.522549033164978)
(X_94  0.5303921699523926)
(X_95  0.5147058963775635)
(X_96  0.5911765098571777)
(X_97  0.5794118046760559)
(X_98  0.5872549414634705)
(X_99  0.6029412150382996)
(X_100  0.5401960611343384)
(X_101  0.5441176295280457)
(X_102  0.5323529243469238)
(X_103  0.5088235139846802)
(X_104  0.5088235139846802)
(X_105  0.42450979351997375)
(X_106  0.4323529303073883)
(X_107  0.42450979351997375)
(X_108  0.3970588147640228)
(X_109  0.3970588147640228)
(X_110  0.3970588147640228)
(X_111  0.49313727021217346)
(X_112  0.20686274766921997)
(X_113  0.21078431606292725)
(X_114  0.21470588445663452)
(X_115  0.2186274528503418)
(X_116  0.2186274528503418)
(X_117  0.11862745881080627)
(X_118  0.11862745881080627)
(X_119  0.11862745881080627)
(X_120  0.2029411792755127)
(X_121  0.11862745881080627)
(X_122  0.1303921639919281)
(X_123  0.12254902720451355)
(X_124  0.19901961088180542)
(X_125  0.09117648005485535)
(X_126  0.0990196168422699)
(X_127  0.114705890417099)
(X_128  0.2343137264251709)
(X_129  0.23823529481887817)
(X_130  0.22647058963775635)
(X_131  0.2029411792755127)
(X_132  0.2029411792755127)
(X_133  0.2186274528503418)
(X_134  0.1303921639919281)
(X_135  0.22647058963775635)
(X_136  0.2029411792755127)
(X_137  0.1651015281677246)
(X_138  0.2029411792755127)
(X_139  0.20686274766921997)
(X_140  0.18333333730697632)
(X_141  0.18333333730697632)
(X_142  0.19117647409439087)
(X_143  0.19509804248809814)
(X_144  0.19901961088180542)
(X_145  0.0990196168422699)
(X_146  0.0990196168422699)
(X_147  0.14594705402851105)
(X_148  0.17941176891326904)
(X_149  0.19509804248809814)
(X_150  0.20686274766921997)
(X_151  0.21078431606292725)
(X_152  0.2029411792755127)
(X_153  0.2029411792755127)
(X_154  0.21078431606292725)
(X_155  0.2186274528503418)
(X_156  0.114705890417099)
(X_157  0.11862745881080627)
(X_158  0.21078431606292725)
(X_159  0.19117647409439087)
(X_160  0.19117647409439087)
(X_161  0.11078432202339172)
(X_162  0.12254902720451355)
(X_163  0.21470588445663452)
(X_164  0.19901961088180542)
(X_165  0.2029411792755127)
(X_166  0.2029411792755127)
(X_167  0.20686274766921997)
(X_168  0.20686274766921997)
(X_169  0.21078431606292725)
(X_170  0.114705890417099)
(X_171  0.21470588445663452)
(X_172  0.21470588445663452)
(X_173  0.114705890417099)
(X_174  0.114705890417099)
(X_175  0.11078432202339172)
(X_176  0.19117647409439087)
(X_177  0.19509804248809814)
(X_178  0.2029411792755127)
(X_179  0.20686274766921997)
(X_180  0.21078431606292725)
(X_181  0.20686274766921997)
(X_182  0.10686275362968445)
(X_183  0.10294118523597717)
(X_184  0.19901961088180542)
(X_185  0.20686274766921997)
(X_186  0.19901961088180542)
(X_187  0.18333333730697632)
(X_188  0.1872549057006836)
(X_189  0.10686275362968445)
(X_190  0.11862745881080627)
(X_191  0.21078431606292725)
(X_192  0.1872549057006836)
(X_193  0.1872549057006836)
(X_194  0.1872549057006836)
(X_195  0.19117647409439087)
(X_196  0.09117648005485535)
(X_197  0.19117647409439087)
(X_198  0.19509804248809814)
(X_199  0.19117647409439087)
(X_200  0.19117647409439087)
(X_201  0.1872549057006836)
(X_202  0.07941177487373352)
(X_203  0.07941177487373352)
(X_204  0.0990196168422699)
(X_205  0.09509804844856262)
(X_206  0.17632046341896057)
(X_207  0.1872549057006836)
(X_208  0.08725491166114807)
(X_209  0.07941177487373352)
(X_210  0.06372549384832382)
(X_211  0.0519607849419117)
(X_212  0.19117647409439087)
(X_213  0.19901961088180542)
(X_214  0.19901961088180542)
(X_215  0.1872549057006836)
(X_216  0.10603249073028564)
(X_217  0.11078432202339172)
(X_218  0.22254902124404907)
(X_219  0.21470588445663452)
(X_220  0.19117647409439087)
(X_221  0.13418234884738922)
(X_222  0.08725491166114807)
(X_223  0.18333333730697632)
(X_224  0.07941177487373352)
(X_225  0.05980392172932625)
(X_226  0.14309243857860565)
(X_227  0.19117647409439087)
(X_228  0.1303921639919281)
(X_229  0.13823530077934265)
(X_230  0.114705890417099)
(X_231  0.09117648005485535)
(X_232  0.21078431606292725)
(X_233  0.2186274528503418)
(X_234  0.21317675709724426)
(X_235  0.22254902124404907)
(X_236  0.19117647409439087)
(X_237  0.06372549384832382)
(X_238  0.18333333730697632)
(X_239  0.11862745881080627)
(X_240  0.09509804844856262)
(X_241  0.2029411792755127)
(X_242  0.19901961088180542)
(X_243  0.19117647409439087)
(X_244  0.2029411792755127)
(X_245  0.22254902124404907)
(X_246  0.20686274766921997)
(X_247  0.07156863063573837)
(X_248  0.0676470622420311)
(X_249  0.0990196168422699)
(X_250  0.11078432202339172)
(X_251  0.2029411792755127)
(X_252  0.07549020648002625)
(X_253  0.0833333432674408)
(X_254  0.09117648005485535)
(X_255  0.1872549057006836)
(X_256  0.17941176891326904)
(X_257  0.18333333730697632)
(X_258  0.20686274766921997)
(X_259  0.2343137264251709)
(X_260  0.26764705777168274)
(X_261  0.24803923070430756)
(X_262  0.3174969553947449)
(X_263  0.31666669249534607)
(X_264  0.2813725471496582)
(X_265  0.2343137264251709)
(X_266  0.20686274766921997)
(X_267  0.10294118523597717)
(X_268  0.14986862242221832)
(X_269  0.29313725233078003)
(X_270  0.3715686500072479)
(X_271  0.38333335518836975)
(X_272  0.27156862616539)
(X_273  0.3911764919757843)
(X_274  0.43431374430656433)
(X_275  0.46568629145622253)
(X_276  0.39230698347091675)
(X_277  0.3970588147640228)
(X_278  0.3970588147640228)
(X_279  0.3735294044017792)
(X_280  0.11332986503839493)
(X_281  0.21078431606292725)
(X_282  0.15784314274787903)
(X_283  0.19705882668495178)
(X_284  0.23627452552318573)
(X_285  0.38333335518836975)
(X_286  0.4382353127002716)
(X_287  0.4735294282436371)
(X_288  0.24803923070430756)
(X_289  0.25141409039497375)
(X_290  0.2088235467672348)
(X_291  0.2608291506767273)
(X_292  0.3754902184009552)
(X_293  0.26764705777168274)
(X_294  0.22843138873577118)
(X_295  0.20098040997982025)
(X_296  0.3245098292827606)
(X_297  0.15784314274787903)
(X_298  0.114705890417099)
(X_299  0.1774509847164154)
(X_300  0.4264706075191498)
(X_301  0.5441176295280457)
(X_302  0.5441176295280457)
(X_303  0.39313724637031555)
(X_304  0.3892156779766083)
(X_305  0.5088235139846802)
(X_306  0.4166666567325592)
(X_307  0.40882351994514465)
(X_308  0.344117671251297)
(X_309  0.3558823764324188)
(X_310  0.38333335518836975)
(X_311  0.33039215207099915)
(X_312  0.385294109582901)
(X_313  0.40882351994514465)
(X_314  0.37745097279548645)
(X_315  0.3343137204647064)
(X_316  0.20490197837352753)
(X_317  0.16960784792900085)
(X_318  0.16960784792900085)
(X_319  0.2905411720275879)
(X_320  0.4264706075191498)
(X_321  0.3539215624332428)
(X_322  0.3186274468898773)
(X_323  0.28333333134651184)
(X_324  0.1774509847164154)
(X_325  0.10294118523597717)
(X_326  0.05588235333561897)
(X_327  0.22254902124404907)
(X_328  0.36764708161354065)
(X_329  0.48137256503105164)
(X_330  0.47932523488998413)
(X_331  0.3792041540145874)
(X_332  0.2911764681339264)
(X_333  0.31470587849617004)
(X_334  0.34215685725212097)
(X_335  0.3656862676143646)
(X_336  0.3932746946811676)
(X_337  0.4696078598499298)
(X_338  0.46568629145622253)
(X_339  0.46176472306251526)
(X_340  0.46176472306251526)
(X_341  0.4382353127002716)
(X_342  0.3637255132198334)
(X_343  0.18921568989753723)
(X_344  0.2774509787559509)
(X_345  0.24607843160629272)
(X_346  0.15000000596046448)
(X_347  0.2088235467672348)
(X_348  0.27156862616539)
(X_349  0.28333333134651184)
(X_350  0.24803923070430756)
(X_351  0.3127451241016388)
(X_352  0.1872549057006836)
(X_353  0.16372549533843994)
(X_354  0.18333333730697632)
(X_355  0.27352941036224365)
(X_356  0.38333335518836975)
(X_357  0.4225490391254425)
(X_358  0.3754902184009552)
(X_359  0.3127451241016388)
(X_360  0.22058825194835663)
(X_361  0.240196093916893)
(X_362  0.2754901945590973)
(X_363  0.3029411733150482)
(X_364  0.24803923070430756)
(X_365  0.27941176295280457)
(X_366  0.27941176295280457)
(X_367  0.23627452552318573)
(X_368  0.2970588207244873)
(X_369  0.2852941155433655)
(X_370  0.17352941632270813)
(X_371  0.15392157435417175)
(X_372  0.11862745881080627)
(X_373  0.13431373238563538)
(X_374  0.18529412150382996)
(X_375  0.3598039448261261)
(X_376  0.4107843339443207)
(X_377  0.3416946828365326)
(X_378  0.3186274468898773)
(X_379  0.3186274468898773)
(X_380  0.3127451241016388)
(X_381  0.28921568393707275)
(X_382  0.2970588207244873)
(X_383  0.25196078419685364)
(X_384  0.29509803652763367)
(X_385  0.2754901945590973)
(X_386  0.20098040997982025)
(X_387  0.13823530077934265)
(X_388  0.2813725471496582)
(X_389  0.30490198731422424)
(X_390  0.3480392396450043)
(X_391  0.3950980603694916)
(X_392  0.24607843160629272)
(X_393  0.27352941036224365)
(X_394  0.2696078419685364)
(X_395  0.22254902124404907)
(X_396  0.2029411792755127)
(X_397  0.22647058963775635)
(X_398  0.25)
(X_399  0.24607843160629272)
(X_400  0.29313725233078003)
(X_401  0.36764708161354065)
(X_402  0.4735294282436371)
(X_403  0.5480391979217529)
(X_404  0.5558823943138123)
(X_405  0.5401960611343384)
(X_406  0.45588237047195435)
(X_407  0.48725491762161255)
(X_408  0.385294109582901)
(X_409  0.4323529303073883)
(X_410  0.47156864404678345)
(X_411  0.5323529243469238)
(X_412  0.4107843339443207)
(X_413  0.31666669249534607)
(X_414  0.31666669249534607)
(X_415  0.3715686500072479)
(X_416  0.2245098203420639)
(X_417  0.2558823525905609)
(X_418  0.3225490152835846)
(X_419  0.39313724637031555)
(X_420  0.1460784375667572)
(X_421  0.1617647111415863)
(X_422  0.1617647111415863)
(X_423  0.1774509847164154)
(X_424  0.25196078419685364)
(X_425  0.34215685725212097)
(X_426  0.3696078360080719)
(X_427  0.4421568810939789)
(X_428  0.3353389501571655)
(X_429  0.5127450823783875)
(X_430  0.5147058963775635)
(X_431  0.5343137383460999)
(X_432  0.47110646963119507)
(X_433  0.457843154668808)
(X_434  0.4382353127002716)
(X_435  0.3656862676143646)
(X_436  0.48725491762161255)
(X_437  0.4637255072593689)
(X_438  0.5391708612442017)
(X_439  0.5598039627075195)
(X_440  0.5284313559532166)
(X_441  0.3382352888584137)
(X_442  0.24411766231060028)
(X_443  0.1931372582912445)
(X_444  0.15784314274787903)
(X_445  0.1931372582912445)
(X_446  0.27156862616539)
(X_447  0.4539215862751007)
(X_448  0.5009803771972656)
(X_449  0.49705883860588074)
(X_450  0.3970588147640228)
(X_451  0.5166666507720947)
(X_452  0.44411763548851013)
(X_453  0.4637255072593689)
(X_454  0.5637255311012268)
(X_455  0.5558823943138123)
(X_456  0.5872549414634705)
(X_457  0.5558823943138123)
(X_458  0.5480391979217529)
(X_459  0.5009803771972656)
(X_460  0.3950980603694916)
(X_461  0.3401961028575897)
(X_462  0.3598039448261261)
(X_463  0.3715686500072479)
(X_464  0.3578431308269501)
(X_465  0.39313724637031555)
(X_466  0.42211735248565674)
(X_467  0.46176472306251526)
(X_468  0.3950980603694916)
(X_469  0.3480392396450043)
(X_470  0.32058826088905334)
(X_471  0.30490198731422424)
(X_472  0.30490198731422424)
(X_473  0.3245098292827606)
(X_474  0.3558823764324188)
(X_475  0.387254923582077)
(X_476  0.4323529303073883)
(X_477  0.42843136191368103)
(X_478  0.5053641200065613)
(X_479  0.5284313559532166)
(X_480  0.4323529303073883)
(X_481  0.4323529303073883)
(X_482  0.4323529303073883)
(X_483  0.42843136191368103)
(X_484  0.46176472306251526)
(X_485  0.4421568810939789)
(X_486  0.3539215624332428)
(X_487  0.3382352888584137)
(X_488  0.2598039209842682)
(X_489  0.23235295712947845)
(X_490  0.2598039209842682)
(X_491  0.2754901945590973)
(X_492  0.32647058367729187)
(X_493  0.37745097279548645)
(X_494  0.4009803831577301)
(X_495  0.39176124334335327)
(X_496  0.3754902184009552)
(X_497  0.31666669249534607)
(X_498  0.28921568393707275)
(X_499  0.2778185307979584)
(X_500  0.17352941632270813)
(X_501  0.18921568989753723)
(X_502  0.21274511516094208)
(X_503  0.23235295712947845)
(X_504  0.3656862676143646)
(X_505  0.36176469922065735)
(X_506  0.4539215862751007)
(X_507  0.45000001788139343)
(X_508  0.34215685725212097)
(X_509  0.3343137204647064)
(X_510  0.33039215207099915)
(X_511  0.32647058367729187)
(X_512  0.28333333134651184)
(X_513  0.26764705777168274)
(X_514  0.2872548997402191)
(X_515  0.28333333134651184)
(X_516  0.21666668355464935)
(X_517  0.18921568989753723)
(X_518  0.21274511516094208)
(X_519  0.22058825194835663)
(X_520  0.2598039209842682)
(X_521  0.3186274468898773)
(X_522  0.3539215624332428)
(X_523  0.3068627417087555)
(X_524  0.2245098203420639)
(X_525  0.1617647111415863)
(X_526  0.14215686917304993)
(X_527  0.16743941605091095)
(X_528  0.1303921639919281)
(X_529  0.13823530077934265)
(X_530  0.1460784375667572)
(X_531  0.15784314274787903)
(X_532  0.33235296607017517)
(X_533  0.31666669249534607)
(X_534  0.30490198731422424)
(X_535  0.3127451241016388)
(X_536  0.3245098292827606)
(X_537  0.22843138873577118)
(X_538  0.21666668355464935)
(X_539  0.20490197837352753)
(X_540  0.21666668355464935)
(X_541  0.19705882668495178)
(X_542  0.31666669249534607)
(X_543  0.32058826088905334)
(X_544  0.2617647051811218)
(X_545  0.13431373238563538)
(X_546  0.14215686917304993)
(X_547  0.13823530077934265)
(X_548  0.2774509787559509)
(X_549  0.32058826088905334)
(X_550  0.24411766231060028)
(X_551  0.2088235467672348)
(X_552  0.2539215683937073)
(X_553  0.21470588445663452)
(X_554  0.2029411792755127)
(X_555  0.09509804844856262)
(X_556  0.19117647409439087)
(X_557  0.09509804844856262)
(X_558  0.09509804844856262)
(X_559  0.10566587746143341)
(X_560  0.2539215683937073)
(X_561  0.12254902720451355)
(X_562  0.10294118523597717)
(X_563  0.12254902720451355)
(X_564  0.1617647111415863)
(X_565  0.1774509847164154)
(X_566  0.15784314274787903)
(X_567  0.1303921639919281)
(X_568  0.15993531048297882)
(X_569  0.1872549057006836)
(X_570  0.2186274528503418)
(X_571  0.14215686917304993)
(X_572  0.10686275362968445)
(X_573  0.09117648005485535)
(X_574  0.10294118523597717)
(X_575  0.09117648005485535)
(X_576  0.114705890417099)
(X_577  0.1303921639919281)
(X_578  0.1303921639919281)
(X_579  0.21078431606292725)
(X_580  0.19509804248809814)
(X_581  0.19509804248809814)
(X_582  0.19117647409439087)
(X_583  0.17941176891326904)
(X_584  0.12122955918312073)
(X_585  0.0676470622420311)
(X_586  0.0676470622420311)
(X_587  0.0676470622420311)
(X_588  0.22254902124404907)
(X_589  0.09117648005485535)
(X_590  0.07156863063573837)
(X_591  0.08725491166114807)
(X_592  0.12254902720451355)
(X_593  0.13823530077934265)
(X_594  0.21470588445663452)
(X_595  0.1872549057006836)
(X_596  0.17549020051956177)
(X_597  0.15196079015731812)
(X_598  0.07941177487373352)
(X_599  0.10686275362968445)
(X_600  0.0833333432674408)
(X_601  0.07156863063573837)
(X_602  0.07549020648002625)
(X_603  0.05980392172932625)
(X_604  0.18333333730697632)
(X_605  0.07941177487373352)
(X_606  0.16764706373214722)
(X_607  0.1558823585510254)
(X_608  0.16764706373214722)
(X_609  0.1872549057006836)
(X_610  0.1872549057006836)
(X_611  0.1715686321258545)
(X_612  0.15980392694473267)
(X_613  0.05980392172932625)
(X_614  0.12034178525209427)
(X_615  0.1558823585510254)
(X_616  0.17941176891326904)
(X_617  0.1715686321258545)
(X_618  0.06372549384832382)
(X_619  0.0676470622420311)
(X_620  0.07549020648002625)
(X_621  0.17941176891326904)
(X_622  0.1715686321258545)
(X_623  0.05980392172932625)
(X_624  0.19509804248809814)
(X_625  0.15980392694473267)
(X_626  0.17549020051956177)
(X_627  0.19901961088180542)
(X_628  0.07549020648002625)
(X_629  0.07465993613004684)
(X_630  0.15980392694473267)
(X_631  0.136274516582489)
(X_632  0.16372549533843994)
(X_633  0.12071963399648666)
(X_634  0.14651009440422058)
(X_635  0.09837829321622849)
(X_636  0.15196079015731812)
(X_637  0.16764706373214722)
(X_638  0.16764706373214722)
(X_639  0.1558823585510254)
(X_640  0.15196079015731812)
(X_641  0.15196079015731812)
(X_642  0.15196079015731812)
(X_643  0.14803922176361084)
(X_644  0.14803922176361084)
(X_645  0.15980392694473267)
(X_646  0.16764706373214722)
(X_647  0.09292961657047272)
(X_648  0.07724334299564362)
(X_649  0.14411765336990356)
(X_650  0.15196079015731812)
(X_651  0.06372549384832382)
(X_652  0.06372549384832382)
(X_653  0.028431374579668045)
(X_654  0.04803921654820442)
(X_655  0.07549020648002625)
(X_656  0.05980392172932625)
(X_657  0.05588235333561897)
(X_658  0.05980392172932625)
(X_659  0.036274511367082596)
(X_660  0.14411765336990356)
(X_661  0.16764706373214722)
(X_662  0.1715686321258545)
(X_663  0.09888821840286255)
(X_664  0.036274511367082596)
(X_665  0.04019607976078987)
(X_666  0.04019607976078987)
(X_667  0.036274511367082596)
(X_668  0.04803921654820442)
(X_669  0.04803921654820442)
(X_670  0.04803921654820442)
(X_671  0.04411764815449715)
(X_672  0.14803922176361084)
(X_673  0.04803921654820442)
(X_674  0.04803921654820442)
(X_675  0.14803922176361084)
(X_676  0.14803922176361084)
(X_677  0.14803922176361084)
(X_678  0.15196079015731812)
(X_679  0.15196079015731812)
(X_680  0.09326865524053574)
(X_681  0.14411765336990356)
(X_682  0.04803921654820442)
(X_683  0.0519607849419117)
(X_684  0.06867227703332901)
(X_685  0.04803921654820442)
(X_686  0.04411764815449715)
(X_687  0.04019607976078987)
(X_688  0.1558823585510254)
(X_689  0.15196079015731812)
(X_690  0.14411765336990356)
(X_691  0.04019607976078987)
(X_692  0.136274516582489)
(X_693  0.1401960849761963)
(X_694  0.14411765336990356)
(X_695  0.14411765336990356)
(X_696  0.136274516582489)
(X_697  0.1401960849761963)
(X_698  0.14411765336990356)
(X_699  0.14803922176361084)
(X_700  0.1401960849761963)
(X_701  0.12348459661006927)
(X_702  0.1401960849761963)
(X_703  0.1401960849761963)
(X_704  0.04019607976078987)
(X_705  0.04019607976078987)
(X_706  0.04019607976078987)
(X_707  0.04019607976078987)
(X_708  0.028431374579668045)
(X_709  0.03235294297337532)
(X_710  0.04019607976078987)
(X_711  0.04411764815449715)
(X_712  0.14411765336990356)
(X_713  0.04019607976078987)
(X_714  0.03235294297337532)
(X_715  0.028431374579668045)
(X_716  0.04803921654820442)
(X_717  0.04411764815449715)
(X_718  0.036274511367082596)
(X_719  0.03235294297337532)
(X_720  0.028431374579668045)
(X_721  0.03235294297337532)
(X_722  0.036274511367082596)
(X_723  0.10382620990276337)
(X_724  0.13235294818878174)
(X_725  0.136274516582489)
(X_726  0.1401960849761963)
(X_727  0.14411765336990356)
(X_728  0.13235294818878174)
(X_729  0.13235294818878174)
(X_730  0.13235294818878174)
(X_731  0.13235294818878174)
(X_732  0.12843137979507446)
(X_733  0.12843137979507446)
(X_734  0.12843137979507446)
(X_735  0.12843137979507446)
(X_736  0.020588237792253494)
(X_737  0.02450980618596077)
(X_738  0.03235294297337532)
(X_739  0.036274511367082596)
(X_740  0.036274511367082596)
(X_741  0.09681237488985062)
(X_742  0.02450980618596077)
(X_743  0.1038767546415329)
(X_744  0.03235294297337532)
(X_745  0.13235294818878174)
(X_746  0.028431374579668045)
(X_747  0.02450980618596077)
(X_748  0.020588237792253494)
(X_749  0.12450980395078659)
(X_750  0.12450980395078659)
(X_751  0.12843137979507446)
(X_752  0.12450980395078659)
(X_753  0.12843137979507446)
(X_754  0.13235294818878174)
(X_755  0.136274516582489)
(X_756  0.12843137979507446)
(X_757  0.028431374579668045)
(X_758  0.12843137979507446)
(X_759  0.12843137979507446)
(X_760  0.02450980618596077)
(X_761  0.02450980618596077)
(X_762  0.02450980618596077)
(X_763  0.02450980618596077)
(X_764  0.03544425219297409)
(X_765  0.12450980395078659)
(X_766  0.028431374579668045)
(X_767  0.03235294297337532)
(X_768  0.03235294297337532)
(X_769  0.028431374579668045)
(X_770  0.02450980618596077)
(X_771  0.020588237792253494)
(X_772  0.02450980618596077)
(X_773  0.02450980618596077)
(X_774  0.02450980618596077)
(X_775  0.020588237792253494)
(X_776  0.020588237792253494)
(X_777  0.020588237792253494)
(X_778  0.020588237792253494)
(X_779  0.02450980618596077)
(X_780  0.020588237792253494)
(X_781  0.020588237792253494)
(X_782  0.02450980618596077)
(X_783  0.028431374579668045)
(Y_0 -4.924490928649902)
(Y_1 14.333475112915039)
(Y_2 -4.917226791381836)
(Y_3 -3.8355093002319336))