((X_0  0.44019606709480286)
(X_1  0.4362744987010956)
(X_2  0.4362744987010956)
(X_3  0.44411763548851013)
(X_4  0.4480392038822174)
(X_5  0.4323529303073883)
(X_6  0.5009803771972656)
(X_7  0.4735294282436371)
(X_8  0.4892157018184662)
(X_9  0.4852941334247589)
(X_10  0.48137256503105164)
(X_11  0.48137256503105164)
(X_12  0.48137256503105164)
(X_13  0.48137256503105164)
(X_14  0.385294109582901)
(X_15  0.3892156779766083)
(X_16  0.3735294044017792)
(X_17  0.3578431308269501)
(X_18  0.3382352888584137)
(X_19  0.33039215207099915)
(X_20  0.43431374430656433)
(X_21  0.4382353127002716)
(X_22  0.43431374430656433)
(X_23  0.4264706075191498)
(X_24  0.3068627417087555)
(X_25  0.31078431010246277)
(X_26  0.31470587849617004)
(X_27  0.3186274468898773)
(X_28  0.11666666716337204)
(X_29  0.12843137979507446)
(X_30  0.04019607976078987)
(X_31  0.14803922176361084)
(X_32  0.14411765336990356)
(X_33  0.036274511367082596)
(X_34  0.02450980618596077)
(X_35  0.020588237792253494)
(X_36  0.12450980395078659)
(X_37  0.12450980395078659)
(X_38  0.020588237792253494)
(X_39  0.12058823555707932)
(X_40  0.12058823555707932)
(X_41  0.12058823555707932)
(X_42  0.12450980395078659)
(X_43  0.12450980395078659)
(X_44  0.04803921654820442)
(X_45  0.036274511367082596)
(X_46  0.02450980618596077)
(X_47  0.02450980618596077)
(X_48  0.136274516582489)
(X_49  0.1401960849761963)
(X_50  0.1401960849761963)
(X_51  0.136274516582489)
(X_52  0.12450980395078659)
(X_53  0.028431374579668045)
(X_54  0.028431374579668045)
(X_55  0.03235294297337532)
(X_56  0.01666666939854622)
(X_57  0.036274511367082596)
(X_58  0.05588235333561897)
(X_59  0.1558823585510254)
(X_60  0.14411765336990356)
(X_61  0.036274511367082596)
(X_62  0.04411764815449715)
(X_63  0.05588235333561897)
(X_64  0.036274511367082596)
(X_65  0.136274516582489)
(X_66  0.13235294818878174)
(X_67  0.13235294818878174)
(X_68  0.13235294818878174)
(X_69  0.13235294818878174)
(X_70  0.136274516582489)
(X_71  0.136274516582489)
(X_72  0.020588237792253494)
(X_73  0.01666666939854622)
(X_74  0.01666666939854622)
(X_75  0.020588237792253494)
(X_76  0.03235294297337532)
(X_77  0.1401960849761963)
(X_78  0.1401960849761963)
(X_79  0.136274516582489)
(X_80  0.12843137979507446)
(X_81  0.12843137979507446)
(X_82  0.12843137979507446)
(X_83  0.028431374579668045)
(X_84  0.036274511367082596)
(X_85  0.04411764815449715)
(X_86  0.04803921654820442)
(X_87  0.04019607976078987)
(X_88  0.12843137979507446)
(X_89  0.12450980395078659)
(X_90  0.12450980395078659)
(X_91  0.13235294818878174)
(X_92  0.12058823555707932)
(X_93  0.11666666716337204)
(X_94  0.11666666716337204)
(X_95  0.11274509876966476)
(X_96  0.11274509876966476)
(X_97  0.01666666939854622)
(X_98  0.01666666939854622)
(X_99  0.020588237792253494)
(X_100  0.04411764815449715)
(X_101  0.04411764815449715)
(X_102  0.04803921654820442)
(X_103  0.0519607849419117)
(X_104  0.1558823585510254)
(X_105  0.1558823585510254)
(X_106  0.15196079015731812)
(X_107  0.15196079015731812)
(X_108  0.03235294297337532)
(X_109  0.028431374579668045)
(X_110  0.02450980618596077)
(X_111  0.020588237792253494)
(X_112  0.1558823585510254)
(X_113  0.14411765336990356)
(X_114  0.13235294818878174)
(X_115  0.12843137979507446)
(X_116  0.13235294818878174)
(X_117  0.03235294297337532)
(X_118  0.12058823555707932)
(X_119  0.012745101936161518)
(X_120  0.03235294297337532)
(X_121  0.028431374579668045)
(X_122  0.028431374579668045)
(X_123  0.02450980618596077)
(X_124  0.12450980395078659)
(X_125  0.12843137979507446)
(X_126  0.028431374579668045)
(X_127  0.03235294297337532)
(X_128  0.01666666939854622)
(X_129  0.11666666716337204)
(X_130  0.12058823555707932)
(X_131  0.11666666716337204)
(X_132  0.11274509876966476)
(X_133  0.004901961423456669)
(X_134  0.0009803927969187498)
(X_135  0.0009803927969187498)
(X_136  0.12450980395078659)
(X_137  0.12450980395078659)
(X_138  0.12058823555707932)
(X_139  0.01666666939854622)
(X_140  0.12843137979507446)
(X_141  0.11274509876966476)
(X_142  0.0009803927969187498)
(X_143  0.008823529817163944)
(X_144  0.02450980618596077)
(X_145  0.028431374579668045)
(X_146  0.01666666939854622)
(X_147  0.0009803927969187498)
(X_148  0.11666666716337204)
(X_149  0.11666666716337204)
(X_150  0.012745101936161518)
(X_151  0.11274509876966476)
(X_152  0.11274509876966476)
(X_153  0.11274509876966476)
(X_154  0.01666666939854622)
(X_155  0.11666666716337204)
(X_156  0.136274516582489)
(X_157  0.1401960849761963)
(X_158  0.14411765336990356)
(X_159  0.036274511367082596)
(X_160  0.12843137979507446)
(X_161  0.12058823555707932)
(X_162  0.12450980395078659)
(X_163  0.12843137979507446)
(X_164  0.12450980395078659)
(X_165  0.12843137979507446)
(X_166  0.13235294818878174)
(X_167  0.13235294818878174)
(X_168  0.02450980618596077)
(X_169  0.12450980395078659)
(X_170  0.028431374579668045)
(X_171  0.03235294297337532)
(X_172  0.04019607976078987)
(X_173  0.1401960849761963)
(X_174  0.136274516582489)
(X_175  0.13235294818878174)
(X_176  0.12843137979507446)
(X_177  0.02450980618596077)
(X_178  0.02450980618596077)
(X_179  0.12058823555707932)
(X_180  0.12058823555707932)
(X_181  0.12450980395078659)
(X_182  0.12450980395078659)
(X_183  0.12843137979507446)
(X_184  0.0009803927969187498)
(X_185  0.008823529817163944)
(X_186  0.012745101936161518)
(X_187  0.008823529817163944)
(X_188  0.004901961423456669)
(X_189  0.012745101936161518)
(X_190  0.12450980395078659)
(X_191  0.1401960849761963)
(X_192  0.09313725680112839)
(X_193  0.10098039358854294)
(X_194  0.11666666716337204)
(X_195  0.13235294818878174)
(X_196  0.10098039358854294)
(X_197  0.11666666716337204)
(X_198  0.13235294818878174)
(X_199  0.13235294818878174)
(X_200  0.01666666939854622)
(X_201  0.008823529817163944)
(X_202  0.012745101936161518)
(X_203  0.02450980618596077)
(X_204  0.020588237792253494)
(X_205  0.020588237792253494)
(X_206  0.01666666939854622)
(X_207  0.01666666939854622)
(X_208  0.01666666939854622)
(X_209  0.01666666939854622)
(X_210  0.020588237792253494)
(X_211  0.12058823555707932)
(X_212  0.12450980395078659)
(X_213  0.136274516582489)
(X_214  0.14411765336990356)
(X_215  0.14803922176361084)
(X_216  0.0519607849419117)
(X_217  0.0676470622420311)
(X_218  0.09117648005485535)
(X_219  0.114705890417099)
(X_220  0.30098041892051697)
(X_221  0.31666669249534607)
(X_222  0.240196093916893)
(X_223  0.26372548937797546)
(X_224  0.11274509876966476)
(X_225  0.13235294818878174)
(X_226  0.06372549384832382)
(X_227  0.0833333432674408)
(X_228  0.09117648005485535)
(X_229  0.07941177487373352)
(X_230  0.06372549384832382)
(X_231  0.0519607849419117)
(X_232  0.15196079015731812)
(X_233  0.14411765336990356)
(X_234  0.12843137979507446)
(X_235  0.11666666716337204)
(X_236  0.11274509876966476)
(X_237  0.11666666716337204)
(X_238  0.12450980395078659)
(X_239  0.13235294818878174)
(X_240  0.036274511367082596)
(X_241  0.0833333432674408)
(X_242  0.15000000596046448)
(X_243  0.21274511516094208)
(X_244  0.25196078419685364)
(X_245  0.2754901945590973)
(X_246  0.29509803652763367)
(X_247  0.3029411733150482)
(X_248  0.4264706075191498)
(X_249  0.32647058367729187)
(X_250  0.3225490152835846)
(X_251  0.4225490391254425)
(X_252  0.387254923582077)
(X_253  0.38333335518836975)
(X_254  0.27941176295280457)
(X_255  0.3754902184009552)
(X_256  0.3715686500072479)
(X_257  0.3558823764324188)
(X_258  0.3284313976764679)
(X_259  0.2088235467672348)
(X_260  0.23039215803146362)
(X_261  0.21470588445663452)
(X_262  0.1872549057006836)
(X_263  0.16764706373214722)
(X_264  0.15980392694473267)
(X_265  0.16764706373214722)
(X_266  0.18333333730697632)
(X_267  0.09509804844856262)
(X_268  0.22058825194835663)
(X_269  0.240196093916893)
(X_270  0.27156862616539)
(X_271  0.2872548997402191)
(X_272  0.2872548997402191)
(X_273  0.27941176295280457)
(X_274  0.27941176295280457)
(X_275  0.27941176295280457)
(X_276  0.25196078419685364)
(X_277  0.2598039209842682)
(X_278  0.36764708161354065)
(X_279  0.3754902184009552)
(X_280  0.26764705777168274)
(X_281  0.2558823525905609)
(X_282  0.24803923070430756)
(X_283  0.24803923070430756)
(X_284  0.2598039209842682)
(X_285  0.26372548937797546)
(X_286  0.2598039209842682)
(X_287  0.24803923070430756)
(X_288  0.3637255132198334)
(X_289  0.33627453446388245)
(X_290  0.30098041892051697)
(X_291  0.2696078419685364)
(X_292  0.2617647051811218)
(X_293  0.16960784792900085)
(X_294  0.1931372582912445)
(X_295  0.2088235467672348)
(X_296  0.2774509787559509)
(X_297  0.28921568393707275)
(X_298  0.30490198731422424)
(X_299  0.2088235467672348)
(X_300  0.2088235467672348)
(X_301  0.2088235467672348)
(X_302  0.2088235467672348)
(X_303  0.3127451241016388)
(X_304  0.3401961028575897)
(X_305  0.2558823525905609)
(X_306  0.27941176295280457)
(X_307  0.3029411733150482)
(X_308  0.27156862616539)
(X_309  0.27156862616539)
(X_310  0.26372548937797546)
(X_311  0.25196078419685364)
(X_312  0.240196093916893)
(X_313  0.23627452552318573)
(X_314  0.23627452552318573)
(X_315  0.23627452552318573)
(X_316  0.2088235467672348)
(X_317  0.18529412150382996)
(X_318  0.15392157435417175)
(X_319  0.12647059559822083)
(X_320  0.114705890417099)
(X_321  0.22254902124404907)
(X_322  0.24215686321258545)
(X_323  0.2539215683937073)
(X_324  0.18921568989753723)
(X_325  0.31666669249534607)
(X_326  0.3637255132198334)
(X_327  0.3225490152835846)
(X_328  0.3813725411891937)
(X_329  0.4323529303073883)
(X_330  0.46764707565307617)
(X_331  0.4911764860153198)
(X_332  0.6225490570068359)
(X_333  0.6303921937942505)
(X_334  0.6421568989753723)
(X_335  0.6539216041564941)
(X_336  0.20098040997982025)
(X_337  0.3284313976764679)
(X_338  0.24803923070430756)
(X_339  0.3480392396450043)
(X_340  0.33235296607017517)
(X_341  0.3284313976764679)
(X_342  0.24411766231060028)
(X_343  0.26372548937797546)
(X_344  0.3794117867946625)
(X_345  0.387254923582077)
(X_346  0.39901962876319885)
(X_347  0.4225490391254425)
(X_348  0.46176472306251526)
(X_349  0.5009803771972656)
(X_350  0.5401960611343384)
(X_351  0.4637255072593689)
(X_352  0.5617647171020508)
(X_353  0.5578431487083435)
(X_354  0.5460784435272217)
(X_355  0.5303921699523926)
(X_356  0.5029411911964417)
(X_357  0.47156864404678345)
(X_358  0.44019606709480286)
(X_359  0.520588219165802)
(X_360  0.4382353127002716)
(X_361  0.4264706075191498)
(X_362  0.4107843339443207)
(X_363  0.3950980603694916)
(X_364  0.42843136191368103)
(X_365  0.45588237047195435)
(X_366  0.479411780834198)
(X_367  0.5833333730697632)
(X_368  0.5637255311012268)
(X_369  0.5558823943138123)
(X_370  0.5637255311012268)
(X_371  0.5794118046760559)
(X_372  0.44411763548851013)
(X_373  0.42843136191368103)
(X_374  0.4049019515514374)
(X_375  0.3696078360080719)
(X_376  0.43431374430656433)
(X_377  0.40294119715690613)
(X_378  0.38333335518836975)
(X_379  0.27156862616539)
(X_380  0.344117671251297)
(X_381  0.3401961028575897)
(X_382  0.33235296607017517)
(X_383  0.3245098292827606)
(X_384  0.3127451241016388)
(X_385  0.18921568989753723)
(X_386  0.16568627953529358)
(X_387  0.1460784375667572)
(X_388  0.2970588207244873)
(X_389  0.28921568393707275)
(X_390  0.27352941036224365)
(X_391  0.15784314274787903)
(X_392  0.34215685725212097)
(X_393  0.33039215207099915)
(X_394  0.4107843339443207)
(X_395  0.38333335518836975)
(X_396  0.35196080803871155)
(X_397  0.32058826088905334)
(X_398  0.28921568393707275)
(X_399  0.27352941036224365)
(X_400  0.1460784375667572)
(X_401  0.24607843160629272)
(X_402  0.25)
(X_403  0.15000000596046448)
(X_404  0.15392157435417175)
(X_405  0.15784314274787903)
(X_406  0.2617647051811218)
(X_407  0.2617647051811218)
(X_408  0.1774509847164154)
(X_409  0.1617647111415863)
(X_410  0.14215686917304993)
(X_411  0.1303921639919281)
(X_412  0.12254902720451355)
(X_413  0.20686274766921997)
(X_414  0.1872549057006836)
(X_415  0.1715686321258545)
(X_416  0.06372549384832382)
(X_417  0.06372549384832382)
(X_418  0.16372549533843994)
(X_419  0.16764706373214722)
(X_420  0.15392157435417175)
(X_421  0.12647059559822083)
(X_422  0.20686274766921997)
(X_423  0.2186274528503418)
(X_424  0.24215686321258545)
(X_425  0.2539215683937073)
(X_426  0.2343137264251709)
(X_427  0.11078432202339172)
(X_428  0.08725491166114807)
(X_429  0.18333333730697632)
(X_430  0.07941177487373352)
(X_431  0.07941177487373352)
(X_432  0.17941176891326904)
(X_433  0.18333333730697632)
(X_434  0.1872549057006836)
(X_435  0.09117648005485535)
(X_436  0.10686275362968445)
(X_437  0.08725491166114807)
(X_438  0.0676470622420311)
(X_439  0.05588235333561897)
(X_440  0.05980392172932625)
(X_441  0.05980392172932625)
(X_442  0.05588235333561897)
(X_443  0.04803921654820442)
(X_444  0.15196079015731812)
(X_445  0.1558823585510254)
(X_446  0.15980392694473267)
(X_447  0.16764706373214722)
(X_448  0.05980392172932625)
(X_449  0.15980392694473267)
(X_450  0.15980392694473267)
(X_451  0.15980392694473267)
(X_452  0.15980392694473267)
(X_453  0.1558823585510254)
(X_454  0.15196079015731812)
(X_455  0.04803921654820442)
(X_456  0.04019607976078987)
(X_457  0.036274511367082596)
(X_458  0.036274511367082596)
(X_459  0.036274511367082596)
(X_460  0.1401960849761963)
(X_461  0.14411765336990356)
(X_462  0.14803922176361084)
(X_463  0.14803922176361084)
(X_464  0.1401960849761963)
(X_465  0.1401960849761963)
(X_466  0.04019607976078987)
(X_467  0.04019607976078987)
(X_468  0.04019607976078987)
(X_469  0.04019607976078987)
(X_470  0.04019607976078987)
(X_471  0.04019607976078987)
(X_472  0.05588235333561897)
(X_473  0.05588235333561897)
(X_474  0.05980392172932625)
(X_475  0.15980392694473267)
(X_476  0.07941177487373352)
(X_477  0.07941177487373352)
(X_478  0.07156863063573837)
(X_479  0.06372549384832382)
(X_480  0.05588235333561897)
(X_481  0.04411764815449715)
(X_482  0.03235294297337532)
(X_483  0.028431374579668045)
(X_484  0.04019607976078987)
(X_485  0.04019607976078987)
(X_486  0.036274511367082596)
(X_487  0.136274516582489)
(X_488  0.1401960849761963)
(X_489  0.14411765336990356)
(X_490  0.14803922176361084)
(X_491  0.14803922176361084)
(X_492  0.1401960849761963)
(X_493  0.1401960849761963)
(X_494  0.04019607976078987)
(X_495  0.04019607976078987)
(X_496  0.1401960849761963)
(X_497  0.1401960849761963)
(X_498  0.1401960849761963)
(X_499  0.04019607976078987)
(X_500  0.05980392172932625)
(X_501  0.05980392172932625)
(X_502  0.05588235333561897)
(X_503  0.0519607849419117)
(X_504  0.07941177487373352)
(X_505  0.17549020051956177)
(X_506  0.16764706373214722)
(X_507  0.15980392694473267)
(X_508  0.14803922176361084)
(X_509  0.13235294818878174)
(X_510  0.02450980618596077)
(X_511  0.01666666939854622)
(X_512  0.036274511367082596)
(X_513  0.036274511367082596)
(X_514  0.036274511367082596)
(X_515  0.03235294297337532)
(X_516  0.136274516582489)
(X_517  0.136274516582489)
(X_518  0.04019607976078987)
(X_519  0.14411765336990356)
(X_520  0.136274516582489)
(X_521  0.136274516582489)
(X_522  0.136274516582489)
(X_523  0.036274511367082596)
(X_524  0.136274516582489)
(X_525  0.036274511367082596)
(X_526  0.036274511367082596)
(X_527  0.036274511367082596)
(X_528  0.04411764815449715)
(X_529  0.04019607976078987)
(X_530  0.04019607976078987)
(X_531  0.036274511367082596)
(X_532  0.04019607976078987)
(X_533  0.04019607976078987)
(X_534  0.04019607976078987)
(X_535  0.04019607976078987)
(X_536  0.036274511367082596)
(X_537  0.13235294818878174)
(X_538  0.12843137979507446)
(X_539  0.02450980618596077)
(X_540  0.028431374579668045)
(X_541  0.02450980618596077)
(X_542  0.02450980618596077)
(X_543  0.12058823555707932)
(X_544  0.12058823555707932)
(X_545  0.02450980618596077)
(X_546  0.028431374579668045)
(X_547  0.12843137979507446)
(X_548  0.12450980395078659)
(X_549  0.12450980395078659)
(X_550  0.02450980618596077)
(X_551  0.02450980618596077)
(X_552  0.02450980618596077)
(X_553  0.02450980618596077)
(X_554  0.02450980618596077)
(X_555  0.02450980618596077)
(X_556  0.10882353037595749)
(X_557  0.11274509876966476)
(X_558  0.012745101936161518)
(X_559  0.01666666939854622)
(X_560  0.004901961423456669)
(X_561  0.008823529817163944)
(X_562  0.012745101936161518)
(X_563  0.01666666939854622)
(X_564  0.12058823555707932)
(X_565  0.020588237792253494)
(X_566  0.01666666939854622)
(X_567  0.01666666939854622)
(X_568  0.11274509876966476)
(X_569  0.008823529817163944)
(X_570  0.008823529817163944)
(X_571  0.004901961423456669)
(X_572  0.004901961423456669)
(X_573  0.004901961423456669)
(X_574  0.008823529817163944)
(X_575  0.008823529817163944)
(X_576  0.10882353037595749)
(X_577  0.10882353037595749)
(X_578  0.008823529817163944)
(X_579  0.008823529817163944)
(X_580  0.008823529817163944)
(X_581  0.008823529817163944)
(X_582  0.008823529817163944)
(X_583  0.008823529817163944)
(X_584  -0.0029411755967885256)
(X_585  0.09705882519483566)
(X_586  0.0009803927969187498)
(X_587  0.10490196198225021)
(X_588  0.09705882519483566)
(X_589  0.09705882519483566)
(X_590  0.10098039358854294)
(X_591  0.0009803927969187498)
(X_592  0.0009803927969187498)
(X_593  0.0009803927969187498)
(X_594  -0.0029411755967885256)
(X_595  -0.006862743757665157)
(X_596  0.0009803927969187498)
(X_597  0.0009803927969187498)
(X_598  0.09705882519483566)
(X_599  0.09313725680112839)
(X_600  0.09313725680112839)
(X_601  0.09313725680112839)
(X_602  0.09313725680112839)
(X_603  0.09705882519483566)
(X_604  0.09705882519483566)
(X_605  -0.0029411755967885256)
(X_606  -0.0029411755967885256)
(X_607  0.09705882519483566)
(X_608  0.09705882519483566)
(X_609  0.09705882519483566)
(X_610  -0.0029411755967885256)
(X_611  -0.0029411755967885256)
(X_612  0.004901961423456669)
(X_613  0.10490196198225021)
(X_614  0.10098039358854294)
(X_615  0.10098039358854294)
(X_616  -0.006862743757665157)
(X_617  0.09313725680112839)
(X_618  0.09705882519483566)
(X_619  -0.0029411755967885256)
(X_620  0.09313725680112839)
(X_621  -0.006862743757665157)
(X_622  -0.010784312151372433)
(X_623  -0.014705880545079708)
(X_624  0.10098039358854294)
(X_625  0.09705882519483566)
(X_626  0.09313725680112839)
(X_627  -0.010784312151372433)
(X_628  0.08921568840742111)
(X_629  0.08921568840742111)
(X_630  0.08921568840742111)
(X_631  0.08921568840742111)
(X_632  0.09313725680112839)
(X_633  0.09313725680112839)
(X_634  0.09313725680112839)
(X_635  0.09313725680112839)
(X_636  0.09313725680112839)
(X_637  0.09313725680112839)
(X_638  0.09313725680112839)
(X_639  0.09313725680112839)
(X_640  0.10490196198225021)
(X_641  0.10490196198225021)
(X_642  0.0009803927969187498)
(X_643  -0.0029411755967885256)
(X_644  0.08529412001371384)
(X_645  0.08921568840742111)
(X_646  -0.006862743757665157)
(X_647  -0.006862743757665157)
(X_648  -0.0029411755967885256)
(X_649  -0.006862743757665157)
(X_650  0.09313725680112839)
(X_651  -0.006862743757665157)
(X_652  0.0009803927969187498)
(X_653  -0.0029411755967885256)
(X_654  -0.006862743757665157)
(X_655  -0.010784312151372433)
(X_656  0.08921568840742111)
(X_657  0.08921568840742111)
(X_658  0.08921568840742111)
(X_659  0.08921568840742111)
(X_660  0.09313725680112839)
(X_661  0.09313725680112839)
(X_662  -0.006862743757665157)
(X_663  -0.006862743757665157)
(X_664  -0.006862743757665157)
(X_665  -0.006862743757665157)
(X_666  -0.006862743757665157)
(X_667  -0.006862743757665157)
(X_668  -0.010784312151372433)
(X_669  -0.010784312151372433)
(X_670  -0.006862743757665157)
(X_671  0.09705882519483566)
(X_672  -0.006862743757665157)
(X_673  0.09313725680112839)
(X_674  0.09313725680112839)
(X_675  0.09313725680112839)
(X_676  0.09313725680112839)
(X_677  0.09313725680112839)
(X_678  0.09313725680112839)
(X_679  0.09313725680112839)
(X_680  0.09705882519483566)
(X_681  0.09313725680112839)
(X_682  0.09313725680112839)
(X_683  -0.010784312151372433)
(X_684  -0.010784312151372433)
(X_685  0.09313725680112839)
(X_686  0.09313725680112839)
(X_687  0.09705882519483566)
(X_688  0.10098039358854294)
(X_689  0.10098039358854294)
(X_690  0.10098039358854294)
(X_691  0.09705882519483566)
(X_692  0.09705882519483566)
(X_693  0.09705882519483566)
(X_694  0.09313725680112839)
(X_695  0.09313725680112839)
(X_696  0.09313725680112839)
(X_697  -0.006862743757665157)
(X_698  -0.006862743757665157)
(X_699  -0.0029411755967885256)
(X_700  0.09313725680112839)
(X_701  0.09313725680112839)
(X_702  0.09313725680112839)
(X_703  0.09313725680112839)
(X_704  0.09313725680112839)
(X_705  0.09313725680112839)
(X_706  -0.006862743757665157)
(X_707  -0.006862743757665157)
(X_708  -0.0029411755967885256)
(X_709  -0.006862743757665157)
(X_710  -0.006862743757665157)
(X_711  -0.010784312151372433)
(X_712  -0.010784312151372433)
(X_713  -0.006862743757665157)
(X_714  0.09313725680112839)
(X_715  0.09705882519483566)
(X_716  -0.0029411755967885256)
(X_717  -0.0029411755967885256)
(X_718  -0.0029411755967885256)
(X_719  -0.0029411755967885256)
(X_720  -0.006862743757665157)
(X_721  -0.006862743757665157)
(X_722  -0.010784312151372433)
(X_723  -0.010784312151372433)
(X_724  -0.010784312151372433)
(X_725  -0.010784312151372433)
(X_726  -0.006862743757665157)
(X_727  -0.006862743757665157)
(X_728  -0.006862743757665157)
(X_729  0.09313725680112839)
(X_730  0.09313725680112839)
(X_731  0.09313725680112839)
(X_732  0.09313725680112839)
(X_733  0.09313725680112839)
(X_734  0.09313725680112839)
(X_735  0.09313725680112839)
(X_736  -0.006862743757665157)
(X_737  -0.006862743757665157)
(X_738  -0.010784312151372433)
(X_739  -0.010784312151372433)
(X_740  -0.010784312151372433)
(X_741  -0.010784312151372433)
(X_742  -0.006862743757665157)
(X_743  -0.006862743757665157)
(X_744  -0.006862743757665157)
(X_745  -0.006862743757665157)
(X_746  -0.006862743757665157)
(X_747  -0.010784312151372433)
(X_748  -0.010784312151372433)
(X_749  0.08921568840742111)
(X_750  0.08529412001371384)
(X_751  0.08529412001371384)
(X_752  0.08529412001371384)
(X_753  0.08529412001371384)
(X_754  0.08529412001371384)
(X_755  0.08921568840742111)
(X_756  -0.010784312151372433)
(X_757  -0.010784312151372433)
(X_758  -0.010784312151372433)
(X_759  0.08921568840742111)
(X_760  0.08921568840742111)
(X_761  0.08921568840742111)
(X_762  0.08921568840742111)
(X_763  0.08921568840742111)
(X_764  0.09313725680112839)
(X_765  0.09313725680112839)
(X_766  0.08921568840742111)
(X_767  0.08529412001371384)
(X_768  0.08529412001371384)
(X_769  0.08921568840742111)
(X_770  0.09313725680112839)
(X_771  0.09313725680112839)
(X_772  0.08921568840742111)
(X_773  -0.010784312151372433)
(X_774  -0.010784312151372433)
(X_775  -0.014705880545079708)
(X_776  -0.014705880545079708)
(X_777  -0.018627449870109558)
(X_778  0.08137255162000656)
(X_779  0.08137255162000656)
(X_780  0.08137255162000656)
(X_781  -0.018627449870109558)
(X_782  -0.018627449870109558)
(X_783  -0.018627449870109558)
(Y_0 29.299259185791016)
(Y_1 -3.1555800437927246)
(Y_2 15.681977272033691)
(Y_3 -41.87361145019531))