((X_0  1.0382353067398071)
(X_1  0.9421568512916565)
(X_2  0.9460784196853638)
(X_3  1.0460784435272217)
(X_4  1.0499999523162842)
(X_5  1.0499999523162842)
(X_6  0.9460784196853638)
(X_7  0.9460784196853638)
(X_8  1.0460784435272217)
(X_9  1.0460784435272217)
(X_10  1.0499999523162842)
(X_11  1.0499999523162842)
(X_12  1.0499999523162842)
(X_13  1.0499999523162842)
(X_14  1.0460784435272217)
(X_15  0.9460784196853638)
(X_16  0.949999988079071)
(X_17  0.949999988079071)
(X_18  0.949999988079071)
(X_19  0.949999988079071)
(X_20  1.0499999523162842)
(X_21  1.0499999523162842)
(X_22  1.0499999523162842)
(X_23  0.949999988079071)
(X_24  1.0499999523162842)
(X_25  1.0499999523162842)
(X_26  0.949999988079071)
(X_27  1.0499999523162842)
(X_28  1.0421568155288696)
(X_29  1.0460784435272217)
(X_30  0.949999988079071)
(X_31  1.0499999523162842)
(X_32  0.949999988079071)
(X_33  0.949999988079071)
(X_34  0.949999988079071)
(X_35  1.0499999523162842)
(X_36  1.0499999523162842)
(X_37  1.0499999523162842)
(X_38  0.949999988079071)
(X_39  0.949999988079071)
(X_40  0.949999988079071)
(X_41  1.0499999523162842)
(X_42  1.0499999523162842)
(X_43  0.949999988079071)
(X_44  1.0499999523162842)
(X_45  1.0499999523162842)
(X_46  0.949999988079071)
(X_47  0.949999988079071)
(X_48  0.949999988079071)
(X_49  0.949999988079071)
(X_50  0.949999988079071)
(X_51  0.949999988079071)
(X_52  1.0499999523162842)
(X_53  1.0499999523162842)
(X_54  0.949999988079071)
(X_55  1.0499999523162842)
(X_56  0.8519607782363892)
(X_57  0.8558823466300964)
(X_58  0.863725483417511)
(X_59  0.8676470518112183)
(X_60  0.8715686202049255)
(X_61  0.8715686202049255)
(X_62  0.8715686202049255)
(X_63  0.8715686202049255)
(X_64  0.8715686202049255)
(X_65  0.8754901885986328)
(X_66  0.8754901885986328)
(X_67  0.979411780834198)
(X_68  0.979411780834198)
(X_69  0.8754901885986328)
(X_70  0.8754901885986328)
(X_71  0.9715686440467834)
(X_72  0.8754901885986328)
(X_73  0.8754901885986328)
(X_74  0.8754901885986328)
(X_75  0.8754901885986328)
(X_76  0.9754902124404907)
(X_77  0.9754902124404907)
(X_78  0.9754902124404907)
(X_79  0.9754902124404907)
(X_80  0.9754902124404907)
(X_81  0.9754902124404907)
(X_82  0.8754901885986328)
(X_83  0.9754902124404907)
(X_84  0.2813725471496582)
(X_85  0.2852941155433655)
(X_86  0.29313725233078003)
(X_87  0.2970588207244873)
(X_88  0.20098040997982025)
(X_89  0.20490197837352753)
(X_90  0.20490197837352753)
(X_91  0.20490197837352753)
(X_92  0.30490198731422424)
(X_93  0.2088235467672348)
(X_94  0.21274511516094208)
(X_95  0.21274511516094208)
(X_96  0.3127451241016388)
(X_97  0.3127451241016388)
(X_98  0.3088235557079315)
(X_99  0.30490198731422424)
(X_100  0.30490198731422424)
(X_101  0.30490198731422424)
(X_102  0.30490198731422424)
(X_103  0.20490197837352753)
(X_104  0.20490197837352753)
(X_105  0.20490197837352753)
(X_106  0.20490197837352753)
(X_107  0.20490197837352753)
(X_108  0.2088235467672348)
(X_109  0.2088235467672348)
(X_110  0.2088235467672348)
(X_111  0.3088235557079315)
(X_112  0.020588237792253494)
(X_113  0.12450980395078659)
(X_114  0.12843137979507446)
(X_115  0.036274511367082596)
(X_116  0.04019607976078987)
(X_117  0.04019607976078987)
(X_118  0.04019607976078987)
(X_119  0.04019607976078987)
(X_120  0.04411764815449715)
(X_121  0.04411764815449715)
(X_122  0.04803921654820442)
(X_123  0.04803921654820442)
(X_124  0.14803922176361084)
(X_125  0.04803921654820442)
(X_126  0.04411764815449715)
(X_127  0.04411764815449715)
(X_128  0.1401960849761963)
(X_129  0.1401960849761963)
(X_130  0.1401960849761963)
(X_131  0.1401960849761963)
(X_132  0.1401960849761963)
(X_133  0.1401960849761963)
(X_134  0.1401960849761963)
(X_135  0.1401960849761963)
(X_136  0.04803921654820442)
(X_137  0.04803921654820442)
(X_138  0.04803921654820442)
(X_139  0.14803922176361084)
(X_140  0.12450980395078659)
(X_141  0.12450980395078659)
(X_142  0.12843137979507446)
(X_143  0.13235294818878174)
(X_144  0.036274511367082596)
(X_145  0.03235294297337532)
(X_146  0.03235294297337532)
(X_147  0.13235294818878174)
(X_148  0.136274516582489)
(X_149  0.1401960849761963)
(X_150  0.1401960849761963)
(X_151  0.04411764815449715)
(X_152  0.04411764815449715)
(X_153  0.1401960849761963)
(X_154  0.1401960849761963)
(X_155  0.136274516582489)
(X_156  0.03235294297337532)
(X_157  0.03235294297337532)
(X_158  0.13235294818878174)
(X_159  0.13235294818878174)
(X_160  0.13235294818878174)
(X_161  0.03235294297337532)
(X_162  0.03235294297337532)
(X_163  0.13235294818878174)
(X_164  0.04019607976078987)
(X_165  0.04019607976078987)
(X_166  0.04019607976078987)
(X_167  0.1401960849761963)
(X_168  0.028431374579668045)
(X_169  0.12843137979507446)
(X_170  0.03235294297337532)
(X_171  0.13235294818878174)
(X_172  0.12843137979507446)
(X_173  0.028431374579668045)
(X_174  0.02450980618596077)
(X_175  0.020588237792253494)
(X_176  0.12843137979507446)
(X_177  0.13235294818878174)
(X_178  0.136274516582489)
(X_179  0.036274511367082596)
(X_180  0.036274511367082596)
(X_181  0.036274511367082596)
(X_182  0.03235294297337532)
(X_183  0.028431374579668045)
(X_184  0.12450980395078659)
(X_185  0.12450980395078659)
(X_186  0.12450980395078659)
(X_187  0.12450980395078659)
(X_188  0.12450980395078659)
(X_189  0.12450980395078659)
(X_190  0.12450980395078659)
(X_191  0.12450980395078659)
(X_192  0.12058823555707932)
(X_193  0.12058823555707932)
(X_194  0.020588237792253494)
(X_195  0.020588237792253494)
(X_196  0.03235294297337532)
(X_197  0.136274516582489)
(X_198  0.136274516582489)
(X_199  0.036274511367082596)
(X_200  0.03235294297337532)
(X_201  0.028431374579668045)
(X_202  0.020588237792253494)
(X_203  0.020588237792253494)
(X_204  0.028431374579668045)
(X_205  0.13235294818878174)
(X_206  0.13235294818878174)
(X_207  0.136274516582489)
(X_208  0.036274511367082596)
(X_209  0.03235294297337532)
(X_210  0.03235294297337532)
(X_211  0.028431374579668045)
(X_212  0.12450980395078659)
(X_213  0.12450980395078659)
(X_214  0.02450980618596077)
(X_215  0.02450980618596077)
(X_216  0.02450980618596077)
(X_217  0.12450980395078659)
(X_218  0.12450980395078659)
(X_219  0.12450980395078659)
(X_220  0.11274509876966476)
(X_221  0.012745101936161518)
(X_222  0.012745101936161518)
(X_223  0.11274509876966476)
(X_224  0.03235294297337532)
(X_225  0.036274511367082596)
(X_226  0.14411765336990356)
(X_227  0.14411765336990356)
(X_228  0.04019607976078987)
(X_229  0.036274511367082596)
(X_230  0.028431374579668045)
(X_231  0.02450980618596077)
(X_232  0.15980392694473267)
(X_233  0.1401960849761963)
(X_234  0.11666666716337204)
(X_235  0.11274509876966476)
(X_236  0.028431374579668045)
(X_237  0.036274511367082596)
(X_238  0.028431374579668045)
(X_239  0.01666666939854622)
(X_240  0.0009803927969187498)
(X_241  0.028431374579668045)
(X_242  0.14411765336990356)
(X_243  0.136274516582489)
(X_244  0.136274516582489)
(X_245  0.14803922176361084)
(X_246  0.136274516582489)
(X_247  0.10882353037595749)
(X_248  0.02450980618596077)
(X_249  0.12843137979507446)
(X_250  0.03235294297337532)
(X_251  0.12843137979507446)
(X_252  0.23627452552318573)
(X_253  0.22058825194835663)
(X_254  0.19705882668495178)
(X_255  0.16568627953529358)
(X_256  0.23039215803146362)
(X_257  0.19117647409439087)
(X_258  0.15196079015731812)
(X_259  0.12843137979507446)
(X_260  0.0009803927969187498)
(X_261  0.012745101936161518)
(X_262  0.12450980395078659)
(X_263  0.12843137979507446)
(X_264  0.12058823555707932)
(X_265  0.01666666939854622)
(X_266  0.12450980395078659)
(X_267  0.03235294297337532)
(X_268  0.0009803927969187498)
(X_269  0.11666666716337204)
(X_270  0.11666666716337204)
(X_271  0.09705882519483566)
(X_272  -0.0029411755967885256)
(X_273  0.11274509876966476)
(X_274  0.11666666716337204)
(X_275  0.10098039358854294)
(X_276  0.0009803927969187498)
(X_277  0.012745101936161518)
(X_278  0.02450980618596077)
(X_279  0.028431374579668045)
(X_280  0.3598039448261261)
(X_281  0.35196080803871155)
(X_282  0.25196078419685364)
(X_283  0.2598039209842682)
(X_284  0.26764705777168274)
(X_285  0.3598039448261261)
(X_286  0.344117671251297)
(X_287  0.3284313976764679)
(X_288  0.13823530077934265)
(X_289  0.09117648005485535)
(X_290  0.036274511367082596)
(X_291  0.10490196198225021)
(X_292  0.008823529817163944)
(X_293  0.028431374579668045)
(X_294  0.04019607976078987)
(X_295  0.04019607976078987)
(X_296  0.14411765336990356)
(X_297  0.04803921654820442)
(X_298  0.036274511367082596)
(X_299  0.01666666939854622)
(X_300  0.11666666716337204)
(X_301  0.13235294818878174)
(X_302  0.14411765336990356)
(X_303  0.04019607976078987)
(X_304  0.020588237792253494)
(X_305  0.036274511367082596)
(X_306  0.04803921654820442)
(X_307  0.05588235333561897)
(X_308  0.27156862616539)
(X_309  0.2598039209842682)
(X_310  0.2558823525905609)
(X_311  0.2598039209842682)
(X_312  0.26764705777168274)
(X_313  0.2598039209842682)
(X_314  0.240196093916893)
(X_315  0.21666668355464935)
(X_316  0.3637255132198334)
(X_317  0.32058826088905334)
(X_318  0.25)
(X_319  0.18333333730697632)
(X_320  0.04019607976078987)
(X_321  0.01666666939854622)
(X_322  0.012745101936161518)
(X_323  0.012745101936161518)
(X_324  0.020588237792253494)
(X_325  0.020588237792253494)
(X_326  0.01666666939854622)
(X_327  0.012745101936161518)
(X_328  0.012745101936161518)
(X_329  0.020588237792253494)
(X_330  0.12450980395078659)
(X_331  0.12843137979507446)
(X_332  0.008823529817163944)
(X_333  0.01666666939854622)
(X_334  0.02450980618596077)
(X_335  0.02450980618596077)
(X_336  0.3578431308269501)
(X_337  0.44607844948768616)
(X_338  0.43039217591285706)
(X_339  0.4225490391254425)
(X_340  0.41862747073173523)
(X_341  0.4068627655506134)
(X_342  0.28333333134651184)
(X_343  0.26764705777168274)
(X_344  0.3245098292827606)
(X_345  0.3598039448261261)
(X_346  0.2754901945590973)
(X_347  0.23627452552318573)
(X_348  0.14215686917304993)
(X_349  0.05588235333561897)
(X_350  0.008823529817163944)
(X_351  -0.0029411755967885256)
(X_352  0.10882353037595749)
(X_353  0.10882353037595749)
(X_354  0.11666666716337204)
(X_355  0.028431374579668045)
(X_356  0.028431374579668045)
(X_357  0.12450980395078659)
(X_358  0.12058823555707932)
(X_359  0.12058823555707932)
(X_360  0.11666666716337204)
(X_361  0.11666666716337204)
(X_362  0.01666666939854622)
(X_363  0.008823529817163944)
(X_364  0.33039215207099915)
(X_365  0.3382352888584137)
(X_366  0.34607842564582825)
(X_367  0.36176469922065735)
(X_368  0.48137256503105164)
(X_369  0.5009803771972656)
(X_370  0.520588219165802)
(X_371  0.4323529303073883)
(X_372  0.28333333134651184)
(X_373  0.2558823525905609)
(X_374  0.3401961028575897)
(X_375  0.3480392396450043)
(X_376  0.2558823525905609)
(X_377  0.2245098203420639)
(X_378  0.15000000596046448)
(X_379  0.0833333432674408)
(X_380  0.1401960849761963)
(X_381  0.12843137979507446)
(X_382  0.12450980395078659)
(X_383  0.13235294818878174)
(X_384  0.13235294818878174)
(X_385  0.020588237792253494)
(X_386  0.020588237792253494)
(X_387  0.03235294297337532)
(X_388  0.11274509876966476)
(X_389  0.12058823555707932)
(X_390  0.020588237792253494)
(X_391  0.01666666939854622)
(X_392  0.3637255132198334)
(X_393  0.3715686500072479)
(X_394  0.3715686500072479)
(X_395  0.3598039448261261)
(X_396  0.3480392396450043)
(X_397  0.3558823764324188)
(X_398  0.3754902184009552)
(X_399  0.29901960492134094)
(X_400  0.36176469922065735)
(X_401  0.2872548997402191)
(X_402  0.3127451241016388)
(X_403  0.31666669249534607)
(X_404  0.27156862616539)
(X_405  0.3029411733150482)
(X_406  0.26764705777168274)
(X_407  0.22058825194835663)
(X_408  0.20686274766921997)
(X_409  0.16764706373214722)
(X_410  0.12843137979507446)
(X_411  0.11274509876966476)
(X_412  0.10490196198225021)
(X_413  0.10098039358854294)
(X_414  0.12058823555707932)
(X_415  0.15196079015731812)
(X_416  0.04803921654820442)
(X_417  0.0676470622420311)
(X_418  0.08725491166114807)
(X_419  0.0990196168422699)
(X_420  0.3401961028575897)
(X_421  0.240196093916893)
(X_422  0.2245098203420639)
(X_423  0.18529412150382996)
(X_424  0.14215686917304993)
(X_425  0.22647058963775635)
(X_426  0.24215686321258545)
(X_427  0.2696078419685364)
(X_428  0.28333333134651184)
(X_429  0.41470590233802795)
(X_430  0.32647058367729187)
(X_431  0.2872548997402191)
(X_432  0.2245098203420639)
(X_433  0.2088235467672348)
(X_434  0.24803923070430756)
(X_435  0.29901960492134094)
(X_436  0.3637255132198334)
(X_437  0.30098041892051697)
(X_438  0.2343137264251709)
(X_439  0.19509804248809814)
(X_440  0.17549020051956177)
(X_441  0.0833333432674408)
(X_442  0.12647059559822083)
(X_443  0.1774509847164154)
(X_444  0.22058825194835663)
(X_445  0.24803923070430756)
(X_446  0.2872548997402191)
(X_447  0.31470587849617004)
(X_448  0.28921568393707275)
(X_449  0.30098041892051697)
(X_450  0.20098040997982025)
(X_451  0.17352941632270813)
(X_452  0.13431373238563538)
(X_453  0.11078432202339172)
(X_454  0.11862745881080627)
(X_455  0.2343137264251709)
(X_456  0.19705882668495178)
(X_457  0.36764708161354065)
(X_458  0.45000001788139343)
(X_459  0.49705883860588074)
(X_460  0.48137256503105164)
(X_461  0.31078431010246277)
(X_462  0.240196093916893)
(X_463  0.1931372582912445)
(X_464  0.23235295712947845)
(X_465  0.25196078419685364)
(X_466  0.27156862616539)
(X_467  0.3637255132198334)
(X_468  0.33627453446388245)
(X_469  0.3245098292827606)
(X_470  0.33627453446388245)
(X_471  0.3558823764324188)
(X_472  0.36764708161354065)
(X_473  0.3637255132198334)
(X_474  0.3598039448261261)
(X_475  0.3558823764324188)
(X_476  0.16960784792900085)
(X_477  0.18137255311012268)
(X_478  0.2852941155433655)
(X_479  0.2656862735748291)
(X_480  0.1303921639919281)
(X_481  0.10686275362968445)
(X_482  0.11078432202339172)
(X_483  0.12647059559822083)
(X_484  0.2970588207244873)
(X_485  0.28921568393707275)
(X_486  0.18529412150382996)
(X_487  0.1931372582912445)
(X_488  0.22058825194835663)
(X_489  0.2598039209842682)
(X_490  0.29901960492134094)
(X_491  0.3186274468898773)
(X_492  0.32647058367729187)
(X_493  0.3382352888584137)
(X_494  0.4382353127002716)
(X_495  0.4225490391254425)
(X_496  0.3950980603694916)
(X_497  0.3794117867946625)
(X_498  0.3794117867946625)
(X_499  0.28333333134651184)
(X_500  0.3480392396450043)
(X_501  0.24411766231060028)
(X_502  0.240196093916893)
(X_503  0.23627452552318573)
(X_504  0.11862745881080627)
(X_505  0.23823529481887817)
(X_506  0.24607843160629272)
(X_507  0.2343137264251709)
(X_508  0.2029411792755127)
(X_509  0.18333333730697632)
(X_510  0.18333333730697632)
(X_511  0.09509804844856262)
(X_512  0.20098040997982025)
(X_513  0.17352941632270813)
(X_514  0.25)
(X_515  0.15784314274787903)
(X_516  0.19705882668495178)
(X_517  0.24411766231060028)
(X_518  0.27941176295280457)
(X_519  0.2911764681339264)
(X_520  0.28333333134651184)
(X_521  0.2872548997402191)
(X_522  0.2911764681339264)
(X_523  0.29901960492134094)
(X_524  0.3029411733150482)
(X_525  0.4107843339443207)
(X_526  0.41470590233802795)
(X_527  0.41862747073173523)
(X_528  0.457843154668808)
(X_529  0.3578431308269501)
(X_530  0.3578431308269501)
(X_531  0.3578431308269501)
(X_532  0.16372549533843994)
(X_533  0.17941176891326904)
(X_534  0.19117647409439087)
(X_535  0.1872549057006836)
(X_536  0.16372549533843994)
(X_537  0.14803922176361084)
(X_538  0.14411765336990356)
(X_539  0.14803922176361084)
(X_540  0.0833333432674408)
(X_541  0.09117648005485535)
(X_542  0.2029411792755127)
(X_543  0.22254902124404907)
(X_544  0.13431373238563538)
(X_545  0.1303921639919281)
(X_546  0.11078432202339172)
(X_547  0.09117648005485535)
(X_548  0.2343137264251709)
(X_549  0.13431373238563538)
(X_550  0.14215686917304993)
(X_551  0.16960784792900085)
(X_552  0.30098041892051697)
(X_553  0.3284313976764679)
(X_554  0.240196093916893)
(X_555  0.24411766231060028)
(X_556  0.31666669249534607)
(X_557  0.22058825194835663)
(X_558  0.33235296607017517)
(X_559  0.3401961028575897)
(X_560  0.12843137979507446)
(X_561  0.04019607976078987)
(X_562  0.0519607849419117)
(X_563  0.0519607849419117)
(X_564  0.036274511367082596)
(X_565  0.020588237792253494)
(X_566  0.01666666939854622)
(X_567  0.020588237792253494)
(X_568  0.012745101936161518)
(X_569  0.020588237792253494)
(X_570  0.12450980395078659)
(X_571  0.02450980618596077)
(X_572  0.020588237792253494)
(X_573  0.02450980618596077)
(X_574  0.04019607976078987)
(X_575  0.05588235333561897)
(X_576  0.07156863063573837)
(X_577  0.05588235333561897)
(X_578  0.04803921654820442)
(X_579  0.1558823585510254)
(X_580  0.17549020051956177)
(X_581  0.08725491166114807)
(X_582  0.1872549057006836)
(X_583  0.17549020051956177)
(X_584  0.20686274766921997)
(X_585  0.114705890417099)
(X_586  0.22254902124404907)
(X_587  0.13431373238563538)
(X_588  0.11666666716337204)
(X_589  0.02450980618596077)
(X_590  0.03235294297337532)
(X_591  0.03235294297337532)
(X_592  0.020588237792253494)
(X_593  0.012745101936161518)
(X_594  0.008823529817163944)
(X_595  0.012745101936161518)
(X_596  0.12450980395078659)
(X_597  0.02450980618596077)
(X_598  0.020588237792253494)
(X_599  0.008823529817163944)
(X_600  -0.0029411755967885256)
(X_601  0.012745101936161518)
(X_602  0.0519607849419117)
(X_603  0.0833333432674408)
(X_604  0.16372549533843994)
(X_605  0.14803922176361084)
(X_606  0.12843137979507446)
(X_607  0.11666666716337204)
(X_608  0.12058823555707932)
(X_609  0.12058823555707932)
(X_610  0.11274509876966476)
(X_611  0.10098039358854294)
(X_612  0.04019607976078987)
(X_613  0.04019607976078987)
(X_614  0.1401960849761963)
(X_615  0.1401960849761963)
(X_616  0.11274509876966476)
(X_617  0.11666666716337204)
(X_618  0.01666666939854622)
(X_619  0.012745101936161518)
(X_620  0.004901961423456669)
(X_621  0.10098039358854294)
(X_622  0.10098039358854294)
(X_623  0.0009803927969187498)
(X_624  0.09705882519483566)
(X_625  0.10098039358854294)
(X_626  0.10490196198225021)
(X_627  0.004901961423456669)
(X_628  0.0009803927969187498)
(X_629  0.0009803927969187498)
(X_630  0.004901961423456669)
(X_631  0.008823529817163944)
(X_632  0.036274511367082596)
(X_633  0.02450980618596077)
(X_634  0.01666666939854622)
(X_635  0.008823529817163944)
(X_636  0.012745101936161518)
(X_637  0.11666666716337204)
(X_638  0.12058823555707932)
(X_639  0.12058823555707932)
(X_640  0.15196079015731812)
(X_641  0.14803922176361084)
(X_642  0.14411765336990356)
(X_643  0.136274516582489)
(X_644  0.10882353037595749)
(X_645  0.10490196198225021)
(X_646  0.10098039358854294)
(X_647  0.09313725680112839)
(X_648  0.08921568840742111)
(X_649  0.08529412001371384)
(X_650  0.08921568840742111)
(X_651  0.08921568840742111)
(X_652  0.11274509876966476)
(X_653  0.0009803927969187498)
(X_654  -0.006862743757665157)
(X_655  0.0009803927969187498)
(X_656  0.020588237792253494)
(X_657  0.03235294297337532)
(X_658  0.028431374579668045)
(X_659  0.01666666939854622)
(X_660  0.11274509876966476)
(X_661  0.10882353037595749)
(X_662  0.10490196198225021)
(X_663  0.10098039358854294)
(X_664  0.0009803927969187498)
(X_665  0.10882353037595749)
(X_666  0.11666666716337204)
(X_667  0.02450980618596077)
(X_668  0.008823529817163944)
(X_669  0.004901961423456669)
(X_670  0.0009803927969187498)
(X_671  -0.0029411755967885256)
(X_672  0.10490196198225021)
(X_673  0.004901961423456669)
(X_674  0.0009803927969187498)
(X_675  -0.0029411755967885256)
(X_676  -0.0029411755967885256)
(X_677  0.10098039358854294)
(X_678  0.10490196198225021)
(X_679  0.10490196198225021)
(X_680  0.10490196198225021)
(X_681  0.10098039358854294)
(X_682  0.0009803927969187498)
(X_683  -0.0029411755967885256)
(X_684  -0.0029411755967885256)
(X_685  0.0009803927969187498)
(X_686  0.004901961423456669)
(X_687  0.004901961423456669)
(X_688  0.11274509876966476)
(X_689  0.11274509876966476)
(X_690  0.012745101936161518)
(X_691  0.012745101936161518)
(X_692  0.11274509876966476)
(X_693  0.11274509876966476)
(X_694  0.11274509876966476)
(X_695  0.11274509876966476)
(X_696  0.10490196198225021)
(X_697  0.10490196198225021)
(X_698  0.10490196198225021)
(X_699  0.10490196198225021)
(X_700  0.10098039358854294)
(X_701  0.0009803927969187498)
(X_702  0.09705882519483566)
(X_703  0.09705882519483566)
(X_704  0.09705882519483566)
(X_705  -0.0029411755967885256)
(X_706  0.0009803927969187498)
(X_707  0.0009803927969187498)
(X_708  0.0009803927969187498)
(X_709  0.0009803927969187498)
(X_710  -0.0029411755967885256)
(X_711  -0.006862743757665157)
(X_712  0.09705882519483566)
(X_713  -0.0029411755967885256)
(X_714  0.0009803927969187498)
(X_715  0.0009803927969187498)
(X_716  0.10490196198225021)
(X_717  0.10490196198225021)
(X_718  0.004901961423456669)
(X_719  0.004901961423456669)
(X_720  0.004901961423456669)
(X_721  0.004901961423456669)
(X_722  0.004901961423456669)
(X_723  0.004901961423456669)
(X_724  0.10490196198225021)
(X_725  0.10490196198225021)
(X_726  0.10490196198225021)
(X_727  0.10490196198225021)
(X_728  0.09705882519483566)
(X_729  0.09313725680112839)
(X_730  0.09313725680112839)
(X_731  0.08921568840742111)
(X_732  0.08921568840742111)
(X_733  0.09313725680112839)
(X_734  0.09313725680112839)
(X_735  0.09705882519483566)
(X_736  0.09705882519483566)
(X_737  0.09705882519483566)
(X_738  -0.006862743757665157)
(X_739  -0.010784312151372433)
(X_740  -0.010784312151372433)
(X_741  -0.006862743757665157)
(X_742  -0.006862743757665157)
(X_743  -0.0029411755967885256)
(X_744  -0.0029411755967885256)
(X_745  -0.0029411755967885256)
(X_746  -0.0029411755967885256)
(X_747  -0.0029411755967885256)
(X_748  -0.0029411755967885256)
(X_749  -0.0029411755967885256)
(X_750  -0.0029411755967885256)
(X_751  -0.0029411755967885256)
(X_752  0.10490196198225021)
(X_753  0.10490196198225021)
(X_754  0.10490196198225021)
(X_755  0.10490196198225021)
(X_756  0.09313725680112839)
(X_757  -0.010784312151372433)
(X_758  -0.010784312151372433)
(X_759  0.08529412001371384)
(X_760  -0.014705880545079708)
(X_761  -0.010784312151372433)
(X_762  -0.010784312151372433)
(X_763  -0.006862743757665157)
(X_764  -0.0029411755967885256)
(X_765  0.09313725680112839)
(X_766  -0.010784312151372433)
(X_767  -0.014705880545079708)
(X_768  -0.014705880545079708)
(X_769  -0.014705880545079708)
(X_770  -0.010784312151372433)
(X_771  -0.010784312151372433)
(X_772  -0.006862743757665157)
(X_773  -0.006862743757665157)
(X_774  -0.006862743757665157)
(X_775  -0.006862743757665157)
(X_776  0.09313725680112839)
(X_777  0.09313725680112839)
(X_778  0.09313725680112839)
(X_779  0.09313725680112839)
(X_780  0.0009803927969187498)
(X_781  0.0009803927969187498)
(X_782  0.0009803927969187498)
(X_783  0.10098039358854294)
(Y_0 -8.644105911254883)
(Y_1 0.8762074112892151)
(Y_2 -2.864424705505371)
(Y_3 9.628490447998047))