((X_0  1.0499999523162842)
(X_1  0.949999988079071)
(X_2  0.949999988079071)
(X_3  0.9421568512916565)
(X_4  1.0303921699523926)
(X_5  1.034313678741455)
(X_6  0.949999988079071)
(X_7  0.949999988079071)
(X_8  1.034313678741455)
(X_9  1.0264705419540405)
(X_10  1.0303921699523926)
(X_11  1.0499999523162842)
(X_12  1.0499999523162842)
(X_13  1.0499999523162842)
(X_14  1.0499999523162842)
(X_15  0.9264705777168274)
(X_16  0.9421568512916565)
(X_17  0.949999988079071)
(X_18  0.949999988079071)
(X_19  0.9382352828979492)
(X_20  1.0107842683792114)
(X_21  0.9715686440467834)
(X_22  0.936274528503418)
(X_23  0.8127450942993164)
(X_24  0.8068627715110779)
(X_25  0.7401961088180542)
(X_26  0.550000011920929)
(X_27  0.5833333730697632)
(X_28  1.0460784435272217)
(X_29  0.949999988079071)
(X_30  0.949999988079071)
(X_31  0.949999988079071)
(X_32  0.949999988079071)
(X_33  0.949999988079071)
(X_34  1.0499999523162842)
(X_35  1.0460784435272217)
(X_36  1.0499999523162842)
(X_37  1.0499999523162842)
(X_38  0.9264705777168274)
(X_39  0.8990195989608765)
(X_40  0.8754901885986328)
(X_41  0.9441176652908325)
(X_42  0.908823549747467)
(X_43  0.7774509787559509)
(X_44  0.7637255191802979)
(X_45  0.6970588564872742)
(X_46  0.5029411911964417)
(X_47  0.4166666567325592)
(X_48  0.34215685725212097)
(X_49  0.26764705777168274)
(X_50  0.18921568989753723)
(X_51  0.13431373238563538)
(X_52  0.22647058963775635)
(X_53  0.10294118523597717)
(X_54  0.07941177487373352)
(X_55  0.16764706373214722)
(X_56  1.0499999523162842)
(X_57  0.9303921461105347)
(X_58  0.8950980305671692)
(X_59  0.863725483417511)
(X_60  0.8362745046615601)
(X_61  0.7813725471496582)
(X_62  0.7147058844566345)
(X_63  0.6598039269447327)
(X_64  0.6617647409439087)
(X_65  0.5068627595901489)
(X_66  0.520588219165802)
(X_67  0.43431374430656433)
(X_68  0.35196080803871155)
(X_69  0.1774509847164154)
(X_70  0.11078432202339172)
(X_71  0.07156863063573837)
(X_72  0.10294118523597717)
(X_73  0.07941177487373352)
(X_74  0.0519607849419117)
(X_75  0.04411764815449715)
(X_76  0.1558823585510254)
(X_77  0.1715686321258545)
(X_78  0.18333333730697632)
(X_79  0.18333333730697632)
(X_80  0.18333333730697632)
(X_81  0.1872549057006836)
(X_82  0.19117647409439087)
(X_83  0.19509804248809814)
(X_84  0.5833333730697632)
(X_85  0.5362744927406311)
(X_86  0.46176472306251526)
(X_87  0.3911764919757843)
(X_88  0.33627453446388245)
(X_89  0.18137255311012268)
(X_90  0.1303921639919281)
(X_91  0.0990196168422699)
(X_92  0.18333333730697632)
(X_93  0.07549020648002625)
(X_94  0.06372549384832382)
(X_95  0.0676470622420311)
(X_96  0.18333333730697632)
(X_97  0.2029411792755127)
(X_98  0.21470588445663452)
(X_99  0.21470588445663452)
(X_100  0.15980392694473267)
(X_101  0.18333333730697632)
(X_102  0.19509804248809814)
(X_103  0.0833333432674408)
(X_104  0.05980392172932625)
(X_105  0.04803921654820442)
(X_106  0.0676470622420311)
(X_107  0.09117648005485535)
(X_108  0.07549020648002625)
(X_109  0.07549020648002625)
(X_110  0.07156863063573837)
(X_111  0.1558823585510254)
(X_112  0.114705890417099)
(X_113  0.19901961088180542)
(X_114  0.17549020051956177)
(X_115  0.04803921654820442)
(X_116  0.036274511367082596)
(X_117  0.04019607976078987)
(X_118  0.0519607849419117)
(X_119  0.0676470622420311)
(X_120  0.09117648005485535)
(X_121  0.0833333432674408)
(X_122  0.07941177487373352)
(X_123  0.07941177487373352)
(X_124  0.07941177487373352)
(X_125  0.07941177487373352)
(X_126  0.07549020648002625)
(X_127  0.07156863063573837)
(X_128  0.15196079015731812)
(X_129  0.16372549533843994)
(X_130  0.1715686321258545)
(X_131  0.17549020051956177)
(X_132  0.1715686321258545)
(X_133  0.16764706373214722)
(X_134  0.1715686321258545)
(X_135  0.1715686321258545)
(X_136  0.16372549533843994)
(X_137  0.06372549384832382)
(X_138  0.0676470622420311)
(X_139  0.15980392694473267)
(X_140  0.14411765336990356)
(X_141  0.1558823585510254)
(X_142  0.16764706373214722)
(X_143  0.1715686321258545)
(X_144  0.0676470622420311)
(X_145  0.07156863063573837)
(X_146  0.08725491166114807)
(X_147  0.19901961088180542)
(X_148  0.15980392694473267)
(X_149  0.16372549533843994)
(X_150  0.1715686321258545)
(X_151  0.07549020648002625)
(X_152  0.17941176891326904)
(X_153  0.17941176891326904)
(X_154  0.17549020051956177)
(X_155  0.1715686321258545)
(X_156  0.10294118523597717)
(X_157  0.16372549533843994)
(X_158  0.1401960849761963)
(X_159  0.15980392694473267)
(X_160  0.21078431606292725)
(X_161  0.13431373238563538)
(X_162  0.10686275362968445)
(X_163  0.1715686321258545)
(X_164  0.06372549384832382)
(X_165  0.0676470622420311)
(X_166  0.07156863063573837)
(X_167  0.17549020051956177)
(X_168  0.08725491166114807)
(X_169  0.1872549057006836)
(X_170  0.08725491166114807)
(X_171  0.1872549057006836)
(X_172  0.17941176891326904)
(X_173  0.16372549533843994)
(X_174  0.04019607976078987)
(X_175  0.028431374579668045)
(X_176  0.16372549533843994)
(X_177  0.16764706373214722)
(X_178  0.07156863063573837)
(X_179  0.07549020648002625)
(X_180  0.1715686321258545)
(X_181  0.0676470622420311)
(X_182  0.06372549384832382)
(X_183  0.06372549384832382)
(X_184  0.15980392694473267)
(X_185  0.16372549533843994)
(X_186  0.19901961088180542)
(X_187  0.27352941036224365)
(X_188  0.3598039448261261)
(X_189  0.3068627417087555)
(X_190  0.4068627655506134)
(X_191  0.387254923582077)
(X_192  0.2696078419685364)
(X_193  0.24215686321258545)
(X_194  0.10294118523597717)
(X_195  0.07941177487373352)
(X_196  0.0676470622420311)
(X_197  0.15196079015731812)
(X_198  0.14803922176361084)
(X_199  0.06372549384832382)
(X_200  0.09117648005485535)
(X_201  0.10686275362968445)
(X_202  0.09509804844856262)
(X_203  0.07941177487373352)
(X_204  0.06372549384832382)
(X_205  0.07156863063573837)
(X_206  0.07549020648002625)
(X_207  0.17549020051956177)
(X_208  0.07156863063573837)
(X_209  0.07549020648002625)
(X_210  0.0833333432674408)
(X_211  0.1872549057006836)
(X_212  0.1872549057006836)
(X_213  0.2656862735748291)
(X_214  0.2598039209842682)
(X_215  0.3186274468898773)
(X_216  0.32647058367729187)
(X_217  0.41470590233802795)
(X_218  0.4107843339443207)
(X_219  0.41470590233802795)
(X_220  0.43431374430656433)
(X_221  0.36764708161354065)
(X_222  0.1774509847164154)
(X_223  0.2186274528503418)
(X_224  0.05980392172932625)
(X_225  0.06372549384832382)
(X_226  0.16764706373214722)
(X_227  0.1715686321258545)
(X_228  0.07156863063573837)
(X_229  0.0676470622420311)
(X_230  0.05980392172932625)
(X_231  0.05588235333561897)
(X_232  0.15980392694473267)
(X_233  0.0519607849419117)
(X_234  0.05980392172932625)
(X_235  0.07549020648002625)
(X_236  0.07156863063573837)
(X_237  0.05588235333561897)
(X_238  0.07156863063573837)
(X_239  0.0990196168422699)
(X_240  0.18921568989753723)
(X_241  0.27156862616539)
(X_242  0.44607844948768616)
(X_243  0.4696078598499298)
(X_244  0.47745099663734436)
(X_245  0.4696078598499298)
(X_246  0.41470590233802795)
(X_247  0.3401961028575897)
(X_248  0.28333333134651184)
(X_249  0.3715686500072479)
(X_250  0.27156862616539)
(X_251  0.3754902184009552)
(X_252  0.07156863063573837)
(X_253  0.07156863063573837)
(X_254  0.07549020648002625)
(X_255  0.17941176891326904)
(X_256  0.17941176891326904)
(X_257  0.17941176891326904)
(X_258  0.17941176891326904)
(X_259  0.17941176891326904)
(X_260  0.0833333432674408)
(X_261  0.07156863063573837)
(X_262  0.06372549384832382)
(X_263  0.05588235333561897)
(X_264  0.036274511367082596)
(X_265  0.04019607976078987)
(X_266  0.19509804248809814)
(X_267  0.2539215683937073)
(X_268  0.26372548937797546)
(X_269  0.4382353127002716)
(X_270  0.5872549414634705)
(X_271  0.6284313797950745)
(X_272  0.6519607901573181)
(X_273  0.6460784673690796)
(X_274  0.5049019455909729)
(X_275  0.4225490391254425)
(X_276  0.2558823525905609)
(X_277  0.23627452552318573)
(X_278  0.22843138873577118)
(X_279  0.24803923070430756)
(X_280  0.16372549533843994)
(X_281  0.15980392694473267)
(X_282  0.05588235333561897)
(X_283  0.04803921654820442)
(X_284  0.04411764815449715)
(X_285  0.14411765336990356)
(X_286  0.1401960849761963)
(X_287  0.1401960849761963)
(X_288  0.05588235333561897)
(X_289  0.05588235333561897)
(X_290  0.05980392172932625)
(X_291  0.05588235333561897)
(X_292  0.05588235333561897)
(X_293  0.09117648005485535)
(X_294  0.18137255311012268)
(X_295  0.36764708161354065)
(X_296  0.4225490391254425)
(X_297  0.4990196228027344)
(X_298  0.5774509906768799)
(X_299  0.4598039388656616)
(X_300  0.4382353127002716)
(X_301  0.4539215862751007)
(X_302  0.5284313559532166)
(X_303  0.4598039388656616)
(X_304  0.29509803652763367)
(X_305  0.24411766231060028)
(X_306  0.20490197837352753)
(X_307  0.2088235467672348)
(X_308  0.17549020051956177)
(X_309  0.1715686321258545)
(X_310  0.16372549533843994)
(X_311  0.05980392172932625)
(X_312  0.05980392172932625)
(X_313  0.06372549384832382)
(X_314  0.07156863063573837)
(X_315  0.07549020648002625)
(X_316  0.14803922176361084)
(X_317  0.1558823585510254)
(X_318  0.16372549533843994)
(X_319  0.16764706373214722)
(X_320  0.0833333432674408)
(X_321  0.13431373238563538)
(X_322  0.21274511516094208)
(X_323  0.27941176295280457)
(X_324  0.4480392038822174)
(X_325  0.4833333492279053)
(X_326  0.3970588147640228)
(X_327  0.2245098203420639)
(X_328  0.2774509787559509)
(X_329  0.3911764919757843)
(X_330  0.47745099663734436)
(X_331  0.46568629145622253)
(X_332  0.385294109582901)
(X_333  0.32647058367729187)
(X_334  0.2558823525905609)
(X_335  0.21666668355464935)
(X_336  0.05980392172932625)
(X_337  0.1558823585510254)
(X_338  0.15196079015731812)
(X_339  0.0519607849419117)
(X_340  0.1558823585510254)
(X_341  0.16372549533843994)
(X_342  0.1715686321258545)
(X_343  0.07941177487373352)
(X_344  0.17549020051956177)
(X_345  0.16764706373214722)
(X_346  0.15980392694473267)
(X_347  0.06372549384832382)
(X_348  0.09509804844856262)
(X_349  0.15784314274787903)
(X_350  0.22058825194835663)
(X_351  0.3558823764324188)
(X_352  0.5754902362823486)
(X_353  0.39901962876319885)
(X_354  0.2656862735748291)
(X_355  0.16960784792900085)
(X_356  0.3088235557079315)
(X_357  0.33235296607017517)
(X_358  0.3911764919757843)
(X_359  0.4735294282436371)
(X_360  0.5088235139846802)
(X_361  0.4892157018184662)
(X_362  0.3539215624332428)
(X_363  0.31470587849617004)
(X_364  0.14215686917304993)
(X_365  0.23039215803146362)
(X_366  0.2186274528503418)
(X_367  0.19901961088180542)
(X_368  0.17941176891326904)
(X_369  0.16372549533843994)
(X_370  0.0519607849419117)
(X_371  0.04803921654820442)
(X_372  0.05980392172932625)
(X_373  0.06372549384832382)
(X_374  0.1715686321258545)
(X_375  0.20686274766921997)
(X_376  0.18137255311012268)
(X_377  0.27941176295280457)
(X_378  0.3499999940395355)
(X_379  0.37745097279548645)
(X_380  0.457843154668808)
(X_381  0.31666669249534607)
(X_382  0.19901961088180542)
(X_383  0.1872549057006836)
(X_384  0.12254902720451355)
(X_385  0.16960784792900085)
(X_386  0.2558823525905609)
(X_387  0.3499999940395355)
(X_388  0.41862747073173523)
(X_389  0.46176472306251526)
(X_390  0.3970588147640228)
(X_391  0.4009803831577301)
(X_392  0.3794117867946625)
(X_393  0.3715686500072479)
(X_394  0.35196080803871155)
(X_395  0.3284313976764679)
(X_396  0.2970588207244873)
(X_397  0.2696078419685364)
(X_398  0.1460784375667572)
(X_399  0.13431373238563538)
(X_400  0.114705890417099)
(X_401  0.15784314274787903)
(X_402  0.3127451241016388)
(X_403  0.3598039448261261)
(X_404  0.41862747073173523)
(X_405  0.37745097279548645)
(X_406  0.40882351994514465)
(X_407  0.5088235139846802)
(X_408  0.33627453446388245)
(X_409  0.2774509787559509)
(X_410  0.18333333730697632)
(X_411  0.16764706373214722)
(X_412  0.2813725471496582)
(X_413  0.3911764919757843)
(X_414  0.3558823764324188)
(X_415  0.23823529481887817)
(X_416  0.2245098203420639)
(X_417  0.28333333134651184)
(X_418  0.3343137204647064)
(X_419  0.3499999940395355)
(X_420  0.240196093916893)
(X_421  0.24411766231060028)
(X_422  0.24411766231060028)
(X_423  0.24411766231060028)
(X_424  0.240196093916893)
(X_425  0.22843138873577118)
(X_426  0.22058825194835663)
(X_427  0.3127451241016388)
(X_428  0.26764705777168274)
(X_429  0.3382352888584137)
(X_430  0.4049019515514374)
(X_431  0.4166666567325592)
(X_432  0.3892156779766083)
(X_433  0.3499999940395355)
(X_434  0.2872548997402191)
(X_435  0.23627452552318573)
(X_436  0.21078431606292725)
(X_437  0.19117647409439087)
(X_438  0.17549020051956177)
(X_439  0.18333333730697632)
(X_440  0.10686275362968445)
(X_441  0.13823530077934265)
(X_442  0.1774509847164154)
(X_443  0.21274511516094208)
(X_444  0.18529412150382996)
(X_445  0.2245098203420639)
(X_446  0.24411766231060028)
(X_447  0.33627453446388245)
(X_448  0.344117671251297)
(X_449  0.23235295712947845)
(X_450  0.24803923070430756)
(X_451  0.387254923582077)
(X_452  0.31470587849617004)
(X_453  0.33039215207099915)
(X_454  0.457843154668808)
(X_455  0.4892157018184662)
(X_456  0.5009803771972656)
(X_457  0.49705883860588074)
(X_458  0.4735294282436371)
(X_459  0.44607844948768616)
(X_460  0.43039217591285706)
(X_461  0.4068627655506134)
(X_462  0.24411766231060028)
(X_463  0.1774509847164154)
(X_464  0.09509804844856262)
(X_465  0.07941177487373352)
(X_466  0.06372549384832382)
(X_467  0.15980392694473267)
(X_468  0.1715686321258545)
(X_469  0.19901961088180542)
(X_470  0.23039215803146362)
(X_471  0.25)
(X_472  0.2656862735748291)
(X_473  0.2617647051811218)
(X_474  0.2617647051811218)
(X_475  0.2617647051811218)
(X_476  0.34607842564582825)
(X_477  0.3382352888584137)
(X_478  0.44607844948768616)
(X_479  0.46176472306251526)
(X_480  0.3578431308269501)
(X_481  0.34215685725212097)
(X_482  0.34607842564582825)
(X_483  0.3696078360080719)
(X_484  0.5245097875595093)
(X_485  0.5009803771972656)
(X_486  0.45000001788139343)
(X_487  0.3068627417087555)
(X_488  0.2911764681339264)
(X_489  0.27156862616539)
(X_490  0.21274511516094208)
(X_491  0.15392157435417175)
(X_492  0.08725491166114807)
(X_493  0.17549020051956177)
(X_494  0.15980392694473267)
(X_495  0.15196079015731812)
(X_496  0.15980392694473267)
(X_497  0.17549020051956177)
(X_498  0.19901961088180542)
(X_499  0.114705890417099)
(X_500  0.22254902124404907)
(X_501  0.12254902720451355)
(X_502  0.12254902720451355)
(X_503  0.11862745881080627)
(X_504  0.16960784792900085)
(X_505  0.18921568989753723)
(X_506  0.33235296607017517)
(X_507  0.36764708161354065)
(X_508  0.3794117867946625)
(X_509  0.387254923582077)
(X_510  0.3186274468898773)
(X_511  0.3499999940395355)
(X_512  0.3735294044017792)
(X_513  0.32647058367729187)
(X_514  0.2558823525905609)
(X_515  0.2088235467672348)
(X_516  0.20098040997982025)
(X_517  0.1931372582912445)
(X_518  0.1460784375667572)
(X_519  0.09509804844856262)
(X_520  0.07156863063573837)
(X_521  0.06372549384832382)
(X_522  0.0519607849419117)
(X_523  0.04411764815449715)
(X_524  0.04411764815449715)
(X_525  0.15196079015731812)
(X_526  0.16372549533843994)
(X_527  0.1715686321258545)
(X_528  0.07941177487373352)
(X_529  0.07941177487373352)
(X_530  0.07549020648002625)
(X_531  0.07549020648002625)
(X_532  0.24607843160629272)
(X_533  0.2696078419685364)
(X_534  0.2970588207244873)
(X_535  0.30490198731422424)
(X_536  0.29313725233078003)
(X_537  0.28921568393707275)
(X_538  0.31666669249534607)
(X_539  0.3480392396450043)
(X_540  0.27156862616539)
(X_541  0.21666668355464935)
(X_542  0.25)
(X_543  0.11862745881080627)
(X_544  0.12647059559822083)
(X_545  0.12647059559822083)
(X_546  0.09509804844856262)
(X_547  0.05588235333561897)
(X_548  0.15196079015731812)
(X_549  0.14803922176361084)
(X_550  0.04411764815449715)
(X_551  0.04019607976078987)
(X_552  0.136274516582489)
(X_553  0.136274516582489)
(X_554  0.1401960849761963)
(X_555  0.04411764815449715)
(X_556  0.1558823585510254)
(X_557  0.1558823585510254)
(X_558  0.1558823585510254)
(X_559  0.15196079015731812)
(X_560  0.2656862735748291)
(X_561  0.18137255311012268)
(X_562  0.18137255311012268)
(X_563  0.15392157435417175)
(X_564  0.12254902720451355)
(X_565  0.11862745881080627)
(X_566  0.14215686917304993)
(X_567  0.16568627953529358)
(X_568  0.19705882668495178)
(X_569  0.1460784375667572)
(X_570  0.0990196168422699)
(X_571  0.09117648005485535)
(X_572  0.10294118523597717)
(X_573  0.10294118523597717)
(X_574  0.07549020648002625)
(X_575  0.04803921654820442)
(X_576  0.036274511367082596)
(X_577  0.036274511367082596)
(X_578  0.036274511367082596)
(X_579  0.136274516582489)
(X_580  0.136274516582489)
(X_581  0.136274516582489)
(X_582  0.136274516582489)
(X_583  0.136274516582489)
(X_584  0.04411764815449715)
(X_585  0.04411764815449715)
(X_586  0.04019607976078987)
(X_587  0.04019607976078987)
(X_588  0.16372549533843994)
(X_589  0.07941177487373352)
(X_590  0.0833333432674408)
(X_591  0.06372549384832382)
(X_592  0.1558823585510254)
(X_593  0.17549020051956177)
(X_594  0.21078431606292725)
(X_595  0.2343137264251709)
(X_596  0.23823529481887817)
(X_597  0.19901961088180542)
(X_598  0.07156863063573837)
(X_599  0.07549020648002625)
(X_600  0.0833333432674408)
(X_601  0.07156863063573837)
(X_602  0.04411764815449715)
(X_603  0.028431374579668045)
(X_604  0.12843137979507446)
(X_605  0.12843137979507446)
(X_606  0.12843137979507446)
(X_607  0.12843137979507446)
(X_608  0.13235294818878174)
(X_609  0.13235294818878174)
(X_610  0.13235294818878174)
(X_611  0.03235294297337532)
(X_612  0.028431374579668045)
(X_613  0.028431374579668045)
(X_614  0.12843137979507446)
(X_615  0.12450980395078659)
(X_616  0.17549020051956177)
(X_617  0.08725491166114807)
(X_618  0.07941177487373352)
(X_619  0.04803921654820442)
(X_620  0.04019607976078987)
(X_621  0.1558823585510254)
(X_622  0.16764706373214722)
(X_623  0.16764706373214722)
(X_624  0.1872549057006836)
(X_625  0.05588235333561897)
(X_626  0.14411765336990356)
(X_627  0.0519607849419117)
(X_628  0.0519607849419117)
(X_629  0.03235294297337532)
(X_630  0.01666666939854622)
(X_631  0.020588237792253494)
(X_632  0.028431374579668045)
(X_633  0.028431374579668045)
(X_634  0.02450980618596077)
(X_635  0.02450980618596077)
(X_636  0.12450980395078659)
(X_637  0.12450980395078659)
(X_638  0.12450980395078659)
(X_639  0.12450980395078659)
(X_640  0.12450980395078659)
(X_641  0.12058823555707932)
(X_642  0.12058823555707932)
(X_643  0.12058823555707932)
(X_644  0.12450980395078659)
(X_645  0.04019607976078987)
(X_646  0.1401960849761963)
(X_647  0.12450980395078659)
(X_648  0.12843137979507446)
(X_649  0.1558823585510254)
(X_650  0.15980392694473267)
(X_651  0.14803922176361084)
(X_652  0.15980392694473267)
(X_653  0.036274511367082596)
(X_654  0.028431374579668045)
(X_655  0.04411764815449715)
(X_656  0.04019607976078987)
(X_657  0.02450980618596077)
(X_658  0.02450980618596077)
(X_659  0.04019607976078987)
(X_660  0.13235294818878174)
(X_661  0.12843137979507446)
(X_662  0.12450980395078659)
(X_663  0.11666666716337204)
(X_664  0.11666666716337204)
(X_665  0.11274509876966476)
(X_666  0.11666666716337204)
(X_667  0.01666666939854622)
(X_668  0.02450980618596077)
(X_669  0.02450980618596077)
(X_670  0.02450980618596077)
(X_671  0.020588237792253494)
(X_672  0.12058823555707932)
(X_673  0.020588237792253494)
(X_674  0.02450980618596077)
(X_675  0.02450980618596077)
(X_676  0.02450980618596077)
(X_677  0.12843137979507446)
(X_678  0.12843137979507446)
(X_679  0.12843137979507446)
(X_680  0.03235294297337532)
(X_681  0.13235294818878174)
(X_682  0.028431374579668045)
(X_683  0.02450980618596077)
(X_684  0.12058823555707932)
(X_685  0.012745101936161518)
(X_686  0.012745101936161518)
(X_687  0.008823529817163944)
(X_688  0.12450980395078659)
(X_689  0.12058823555707932)
(X_690  0.01666666939854622)
(X_691  0.012745101936161518)
(X_692  0.11274509876966476)
(X_693  0.11274509876966476)
(X_694  0.11274509876966476)
(X_695  0.11666666716337204)
(X_696  0.10882353037595749)
(X_697  0.10882353037595749)
(X_698  0.10882353037595749)
(X_699  0.008823529817163944)
(X_700  0.11666666716337204)
(X_701  0.01666666939854622)
(X_702  0.12058823555707932)
(X_703  0.12058823555707932)
(X_704  0.020588237792253494)
(X_705  0.02450980618596077)
(X_706  0.02450980618596077)
(X_707  0.02450980618596077)
(X_708  0.02450980618596077)
(X_709  0.12450980395078659)
(X_710  0.12058823555707932)
(X_711  0.12058823555707932)
(X_712  0.11666666716337204)
(X_713  0.012745101936161518)
(X_714  0.012745101936161518)
(X_715  0.008823529817163944)
(X_716  0.02450980618596077)
(X_717  0.020588237792253494)
(X_718  0.01666666939854622)
(X_719  0.012745101936161518)
(X_720  0.11274509876966476)
(X_721  0.11274509876966476)
(X_722  0.11274509876966476)
(X_723  0.11666666716337204)
(X_724  0.10882353037595749)
(X_725  0.10882353037595749)
(X_726  0.10882353037595749)
(X_727  0.10882353037595749)
(X_728  0.11274509876966476)
(X_729  0.012745101936161518)
(X_730  0.11274509876966476)
(X_731  0.11666666716337204)
(X_732  0.11666666716337204)
(X_733  0.11666666716337204)
(X_734  0.12058823555707932)
(X_735  0.12058823555707932)
(X_736  0.11274509876966476)
(X_737  0.11274509876966476)
(X_738  0.012745101936161518)
(X_739  0.012745101936161518)
(X_740  0.012745101936161518)
(X_741  0.012745101936161518)
(X_742  0.012745101936161518)
(X_743  0.012745101936161518)
(X_744  0.020588237792253494)
(X_745  0.020588237792253494)
(X_746  0.01666666939854622)
(X_747  0.012745101936161518)
(X_748  0.012745101936161518)
(X_749  0.012745101936161518)
(X_750  0.012745101936161518)
(X_751  0.012745101936161518)
(X_752  0.10882353037595749)
(X_753  0.10882353037595749)
(X_754  0.10882353037595749)
(X_755  0.10882353037595749)
(X_756  0.10490196198225021)
(X_757  0.004901961423456669)
(X_758  0.10882353037595749)
(X_759  0.10882353037595749)
(X_760  0.008823529817163944)
(X_761  0.11274509876966476)
(X_762  0.11274509876966476)
(X_763  0.11274509876966476)
(X_764  0.10098039358854294)
(X_765  0.10098039358854294)
(X_766  0.004901961423456669)
(X_767  0.004901961423456669)
(X_768  0.008823529817163944)
(X_769  0.008823529817163944)
(X_770  0.008823529817163944)
(X_771  0.012745101936161518)
(X_772  0.020588237792253494)
(X_773  0.01666666939854622)
(X_774  0.012745101936161518)
(X_775  0.012745101936161518)
(X_776  0.10882353037595749)
(X_777  0.10882353037595749)
(X_778  0.11274509876966476)
(X_779  0.11274509876966476)
(X_780  0.004901961423456669)
(X_781  0.004901961423456669)
(X_782  0.004901961423456669)
(X_783  0.004901961423456669)
(Y_0 -25.859909057617188)
(Y_1 17.352210998535156)
(Y_2 -21.74092674255371)
(Y_3 30.653783798217773))