((X_0  0.2186274528503418)
(X_1  0.10686275362968445)
(X_2  0.10686275362968445)
(X_3  0.2186274528503418)
(X_4  0.23823529481887817)
(X_5  0.24607843160629272)
(X_6  0.13823530077934265)
(X_7  0.12647059559822083)
(X_8  0.22254902124404907)
(X_9  0.2186274528503418)
(X_10  0.21078431606292725)
(X_11  0.20686274766921997)
(X_12  0.20686274766921997)
(X_13  0.21470588445663452)
(X_14  0.23039215803146362)
(X_15  0.1969492882490158)
(X_16  0.13431373238563538)
(X_17  0.13823530077934265)
(X_18  0.1303921639919281)
(X_19  0.11078432202339172)
(X_20  0.21078431606292725)
(X_21  0.23039215803146362)
(X_22  0.13823530077934265)
(X_23  0.1303921639919281)
(X_24  0.21470588445663452)
(X_25  0.21470588445663452)
(X_26  0.21470588445663452)
(X_27  0.21470588445663452)
(X_28  0.24215686321258545)
(X_29  0.13823530077934265)
(X_30  0.13431373238563538)
(X_31  0.13431373238563538)
(X_32  0.13823530077934265)
(X_33  0.1303921639919281)
(X_34  0.11862745881080627)
(X_35  0.20686274766921997)
(X_36  0.2186274528503418)
(X_37  0.22254902124404907)
(X_38  0.22647058963775635)
(X_39  0.12254902720451355)
(X_40  0.114705890417099)
(X_41  0.11862745881080627)
(X_42  0.13431373238563538)
(X_43  0.1460784375667572)
(X_44  0.2029411792755127)
(X_45  0.114705890417099)
(X_46  0.11078432202339172)
(X_47  0.0990196168422699)
(X_48  0.0990196168422699)
(X_49  0.11862745881080627)
(X_50  0.12647059559822083)
(X_51  0.11862745881080627)
(X_52  0.23039215803146362)
(X_53  0.23039215803146362)
(X_54  0.1303921639919281)
(X_55  0.23039215803146362)
(X_56  0.1872549057006836)
(X_57  0.09509804844856262)
(X_58  0.10294118523597717)
(X_59  0.114705890417099)
(X_60  0.11862745881080627)
(X_61  0.11862745881080627)
(X_62  0.11078432202339172)
(X_63  0.10686275362968445)
(X_64  0.12254902720451355)
(X_65  0.1303921639919281)
(X_66  0.14215686917304993)
(X_67  0.2343137264251709)
(X_68  0.22254902124404907)
(X_69  0.114705890417099)
(X_70  0.11862745881080627)
(X_71  0.12647059559822083)
(X_72  0.09509804844856262)
(X_73  0.11078432202339172)
(X_74  0.11078432202339172)
(X_75  0.10686275362968445)
(X_76  0.21078431606292725)
(X_77  0.22647058963775635)
(X_78  0.23039215803146362)
(X_79  0.2186274528503418)
(X_80  0.19509804248809814)
(X_81  0.19509804248809814)
(X_82  0.19509804248809814)
(X_83  0.19509804248809814)
(X_84  0.22254902124404907)
(X_85  0.12647059559822083)
(X_86  0.13431373238563538)
(X_87  0.13431373238563538)
(X_88  0.12647059559822083)
(X_89  0.11078432202339172)
(X_90  0.19901961088180542)
(X_91  0.19117647409439087)
(X_92  0.21470588445663452)
(X_93  0.12647059559822083)
(X_94  0.13823530077934265)
(X_95  0.13431373238563538)
(X_96  0.2186274528503418)
(X_97  0.2029411792755127)
(X_98  0.2029411792755127)
(X_99  0.2029411792755127)
(X_100  0.19509804248809814)
(X_101  0.21078431606292725)
(X_102  0.21470588445663452)
(X_103  0.20686274766921997)
(X_104  0.21078431606292725)
(X_105  0.12254902720451355)
(X_106  0.12254902720451355)
(X_107  0.10686275362968445)
(X_108  0.16949830949306488)
(X_109  0.114705890417099)
(X_110  0.114705890417099)
(X_111  0.21470588445663452)
(X_112  0.0990196168422699)
(X_113  0.10294118523597717)
(X_114  0.20686274766921997)
(X_115  0.21470588445663452)
(X_116  0.21470588445663452)
(X_117  0.21078431606292725)
(X_118  0.15773360431194305)
(X_119  0.19509804248809814)
(X_120  0.19509804248809814)
(X_121  0.0990196168422699)
(X_122  0.10686275362968445)
(X_123  0.21078431606292725)
(X_124  0.10686275362968445)
(X_125  0.10686275362968445)
(X_126  0.10294118523597717)
(X_127  0.0990196168422699)
(X_128  0.19117647409439087)
(X_129  0.2029411792755127)
(X_130  0.2029411792755127)
(X_131  0.19117647409439087)
(X_132  0.19117647409439087)
(X_133  0.1498904675245285)
(X_134  0.09117648005485535)
(X_135  0.17941176891326904)
(X_136  0.15599189698696136)
(X_137  0.11078432202339172)
(X_138  0.11078432202339172)
(X_139  0.21078431606292725)
(X_140  0.3401961028575897)
(X_141  0.32058826088905334)
(X_142  0.2970588207244873)
(X_143  0.2813725471496582)
(X_144  0.16960784792900085)
(X_145  0.15392157435417175)
(X_146  0.12254902720451355)
(X_147  0.2029411792755127)
(X_148  0.19509804248809814)
(X_149  0.18333333730697632)
(X_150  0.17549020051956177)
(X_151  0.18333333730697632)
(X_152  0.2029411792755127)
(X_153  0.2186274528503418)
(X_154  0.2186274528503418)
(X_155  0.21078431606292725)
(X_156  0.10294118523597717)
(X_157  0.21078431606292725)
(X_158  0.20686274766921997)
(X_159  0.19117647409439087)
(X_160  0.1872549057006836)
(X_161  0.09509804844856262)
(X_162  0.09117648005485535)
(X_163  0.17941176891326904)
(X_164  0.09117648005485535)
(X_165  0.09117648005485535)
(X_166  0.09117648005485535)
(X_167  0.19117647409439087)
(X_168  0.4950980544090271)
(X_169  0.4480392038822174)
(X_170  0.385294109582901)
(X_171  0.4421568810939789)
(X_172  0.41470590233802795)
(X_173  0.3754902184009552)
(X_174  0.32058826088905334)
(X_175  0.2774509787559509)
(X_176  0.2539215683937073)
(X_177  0.21470588445663452)
(X_178  0.17941176891326904)
(X_179  0.07549020648002625)
(X_180  0.2029411792755127)
(X_181  0.22254902124404907)
(X_182  0.21470588445663452)
(X_183  0.0990196168422699)
(X_184  0.21470588445663452)
(X_185  0.11862745881080627)
(X_186  0.114705890417099)
(X_187  0.19509804248809814)
(X_188  0.09509804844856262)
(X_189  0.10686275362968445)
(X_190  0.15599189698696136)
(X_191  0.19901961088180542)
(X_192  0.22647058963775635)
(X_193  0.22647058963775635)
(X_194  0.12647059559822083)
(X_195  0.22647058963775635)
(X_196  0.3539215624332428)
(X_197  0.4225490391254425)
(X_198  0.40294119715690613)
(X_199  0.3225490152835846)
(X_200  0.3735294044017792)
(X_201  0.5088235139846802)
(X_202  0.5049019455909729)
(X_203  0.48137256503105164)
(X_204  0.21666668355464935)
(X_205  0.25784313678741455)
(X_206  0.19901961088180542)
(X_207  0.18333333730697632)
(X_208  0.10294118523597717)
(X_209  0.11862745881080627)
(X_210  0.0990196168422699)
(X_211  0.07156863063573837)
(X_212  0.19509804248809814)
(X_213  0.2029411792755127)
(X_214  0.09509804844856262)
(X_215  0.17941176891326904)
(X_216  0.07941177487373352)
(X_217  0.0990196168422699)
(X_218  0.20686274766921997)
(X_219  0.19901961088180542)
(X_220  0.2029411792755127)
(X_221  0.10294118523597717)
(X_222  0.10294118523597717)
(X_223  0.2029411792755127)
(X_224  0.3068627417087555)
(X_225  0.26764705777168274)
(X_226  0.22843138873577118)
(X_227  0.240196093916893)
(X_228  0.2872548997402191)
(X_229  0.3382352888584137)
(X_230  0.3578431308269501)
(X_231  0.3578431308269501)
(X_232  0.47745099663734436)
(X_233  0.3382352888584137)
(X_234  0.36764708161354065)
(X_235  0.18529412150382996)
(X_236  0.12647059559822083)
(X_237  0.0990196168422699)
(X_238  0.0990196168422699)
(X_239  0.10686275362968445)
(X_240  0.11078432202339172)
(X_241  0.0990196168422699)
(X_242  0.18333333730697632)
(X_243  0.18333333730697632)
(X_244  0.19509804248809814)
(X_245  0.2029411792755127)
(X_246  0.2029411792755127)
(X_247  0.19901961088180542)
(X_248  0.09117648005485535)
(X_249  0.08725491166114807)
(X_250  0.0833333432674408)
(X_251  0.07941177487373352)
(X_252  0.5362744927406311)
(X_253  0.44019606709480286)
(X_254  0.3735294044017792)
(X_255  0.25196078419685364)
(X_256  0.2774509787559509)
(X_257  0.29313725233078003)
(X_258  0.3284313976764679)
(X_259  0.33627453446388245)
(X_260  0.3068627417087555)
(X_261  0.3225490152835846)
(X_262  0.3343137204647064)
(X_263  0.3186274468898773)
(X_264  0.26372548937797546)
(X_265  0.18529412150382996)
(X_266  0.21470588445663452)
(X_267  0.1715686321258545)
(X_268  0.1872549057006836)
(X_269  0.08725491166114807)
(X_270  0.19117647409439087)
(X_271  0.21078431606292725)
(X_272  0.2343137264251709)
(X_273  0.25)
(X_274  0.2539215683937073)
(X_275  0.1460784375667572)
(X_276  0.3245098292827606)
(X_277  0.3245098292827606)
(X_278  0.22843138873577118)
(X_279  0.23235295712947845)
(X_280  0.34607842564582825)
(X_281  0.520588219165802)
(X_282  0.5028316378593445)
(X_283  0.41274508833885193)
(X_284  0.4009803831577301)
(X_285  0.5009803771972656)
(X_286  0.41862747073173523)
(X_287  0.30490198731422424)
(X_288  0.16960784792900085)
(X_289  0.1931372582912445)
(X_290  0.23235295712947845)
(X_291  0.3598039448261261)
(X_292  0.2754901945590973)
(X_293  0.27941176295280457)
(X_294  0.2754901945590973)
(X_295  0.2754901945590973)
(X_296  0.3284313976764679)
(X_297  0.344117671251297)
(X_298  0.36764708161354065)
(X_299  0.3029411733150482)
(X_300  0.4382353127002716)
(X_301  0.457843154668808)
(X_302  0.46568629145622253)
(X_303  0.36176469922065735)
(X_304  0.34215685725212097)
(X_305  0.34607842564582825)
(X_306  0.3539215624332428)
(X_307  0.3578431308269501)
(X_308  0.28921568393707275)
(X_309  0.31666669249534607)
(X_310  0.33627453446388245)
(X_311  0.2598039209842682)
(X_312  0.34215685725212097)
(X_313  0.5323529243469238)
(X_314  0.5401960611343384)
(X_315  0.4479296803474426)
(X_316  0.3577336072921753)
(X_317  0.3754902184009552)
(X_318  0.33627453446388245)
(X_319  0.2970588207244873)
(X_320  0.2813725471496582)
(X_321  0.20098040997982025)
(X_322  0.240196093916893)
(X_323  0.27156862616539)
(X_324  0.31851792335510254)
(X_325  0.26764705777168274)
(X_326  0.28333333134651184)
(X_327  0.29509803652763367)
(X_328  0.3068627417087555)
(X_329  0.3068627417087555)
(X_330  0.40294119715690613)
(X_331  0.39901962876319885)
(X_332  0.36775660514831543)
(X_333  0.4264706075191498)
(X_334  0.3851845860481262)
(X_335  0.33039215207099915)
(X_336  0.11078432202339172)
(X_337  0.20686274766921997)
(X_338  0.20686274766921997)
(X_339  0.21470588445663452)
(X_340  0.2343137264251709)
(X_341  0.2970588207244873)
(X_342  0.41470590233802795)
(X_343  0.41274508833885193)
(X_344  0.5127450823783875)
(X_345  0.4892157018184662)
(X_346  0.3499999940395355)
(X_347  0.29901960492134094)
(X_348  0.2558823525905609)
(X_349  0.2245098203420639)
(X_350  0.21666668355464935)
(X_351  0.31666669249534607)
(X_352  0.3558823764324188)
(X_353  0.3637255132198334)
(X_354  0.3754902184009552)
(X_355  0.28333333134651184)
(X_356  0.2911764681339264)
(X_357  0.39901962876319885)
(X_358  0.4068627655506134)
(X_359  0.4107843339443207)
(X_360  0.3794117867946625)
(X_361  0.3794117867946625)
(X_362  0.27941176295280457)
(X_363  0.2754901945590973)
(X_364  0.0833333432674408)
(X_365  0.07156863063573837)
(X_366  0.15381203591823578)
(X_367  0.24607843160629272)
(X_368  0.2539215683937073)
(X_369  0.23039215803146362)
(X_370  0.15000000596046448)
(X_371  0.20098040997982025)
(X_372  0.25196078419685364)
(X_373  0.2754901945590973)
(X_374  0.31470587849617004)
(X_375  0.44607844948768616)
(X_376  0.41481542587280273)
(X_377  0.3892156779766083)
(X_378  0.4009803831577301)
(X_379  0.41274508833885193)
(X_380  0.40294119715690613)
(X_381  0.3950980603694916)
(X_382  0.38333335518836975)
(X_383  0.2558823525905609)
(X_384  0.2245098203420639)
(X_385  0.19705882668495178)
(X_386  0.18137255311012268)
(X_387  0.2322434037923813)
(X_388  0.27352941036224365)
(X_389  0.2696078419685364)
(X_390  0.16568627953529358)
(X_391  0.16568627953529358)
(X_392  0.1872549057006836)
(X_393  0.15196079015731812)
(X_394  0.12843137979507446)
(X_395  0.15196079015731812)
(X_396  0.1872549057006836)
(X_397  0.19901961088180542)
(X_398  0.0990196168422699)
(X_399  0.09509804844856262)
(X_400  0.13823530077934265)
(X_401  0.1617647111415863)
(X_402  0.29313725233078003)
(X_403  0.33235296607017517)
(X_404  0.3715686500072479)
(X_405  0.31078431010246277)
(X_406  0.3499999940395355)
(X_407  0.4735294282436371)
(X_408  0.4892157018184662)
(X_409  0.48137256503105164)
(X_410  0.4539215862751007)
(X_411  0.40294119715690613)
(X_412  0.33627453446388245)
(X_413  0.27352941036224365)
(X_414  0.23039215803146362)
(X_415  0.21078431606292725)
(X_416  0.10686275362968445)
(X_417  0.0990196168422699)
(X_418  0.08725491166114807)
(X_419  0.07941177487373352)
(X_420  0.12843137979507446)
(X_421  0.07941177487373352)
(X_422  0.10294118523597717)
(X_423  0.0676470622420311)
(X_424  0.04019607976078987)
(X_425  0.05588235333561897)
(X_426  0.07941177487373352)
(X_427  0.18333333730697632)
(X_428  0.17941176891326904)
(X_429  0.09117648005485535)
(X_430  0.0990196168422699)
(X_431  0.10294118523597717)
(X_432  0.10294118523597717)
(X_433  0.20686274766921997)
(X_434  0.114705890417099)
(X_435  0.12254902720451355)
(X_436  0.2343137264251709)
(X_437  0.2696078419685364)
(X_438  0.32058826088905334)
(X_439  0.3637255132198334)
(X_440  0.3911764919757843)
(X_441  0.3068627417087555)
(X_442  0.3225490152835846)
(X_443  0.3343137204647064)
(X_444  0.25196078419685364)
(X_445  0.23627452552318573)
(X_446  0.21666668355464935)
(X_447  0.29313725233078003)
(X_448  0.15980392694473267)
(X_449  0.1558823585510254)
(X_450  0.14803922176361084)
(X_451  0.14411765336990356)
(X_452  0.14411765336990356)
(X_453  0.1028316468000412)
(X_454  0.15196079015731812)
(X_455  0.1558823585510254)
(X_456  0.15980392694473267)
(X_457  0.16764706373214722)
(X_458  0.18333333730697632)
(X_459  0.19901961088180542)
(X_460  0.20686274766921997)
(X_461  0.2029411792755127)
(X_462  0.0990196168422699)
(X_463  0.09509804844856262)
(X_464  0.09117648005485535)
(X_465  0.114705890417099)
(X_466  0.11078432202339172)
(X_467  0.2343137264251709)
(X_468  0.30098041892051697)
(X_469  0.3401961028575897)
(X_470  0.3598039448261261)
(X_471  0.39901962876319885)
(X_472  0.34607842564582825)
(X_473  0.4421568810939789)
(X_474  0.43431374430656433)
(X_475  0.4264706075191498)
(X_476  0.05588235333561897)
(X_477  0.0519607849419117)
(X_478  0.14803922176361084)
(X_479  0.14803922176361084)
(X_480  0.14803922176361084)
(X_481  0.0519607849419117)
(X_482  0.05588235333561897)
(X_483  0.05980392172932625)
(X_484  0.16764706373214722)
(X_485  0.07941177487373352)
(X_486  0.09509804844856262)
(X_487  0.11078432202339172)
(X_488  0.2186274528503418)
(X_489  0.22254902124404907)
(X_490  0.11862745881080627)
(X_491  0.114705890417099)
(X_492  0.15000000596046448)
(X_493  0.2656862735748291)
(X_494  0.2539215683937073)
(X_495  0.25784313678741455)
(X_496  0.30490198731422424)
(X_497  0.32058826088905334)
(X_498  0.32058826088905334)
(X_499  0.24803923070430756)
(X_500  0.2598039209842682)
(X_501  0.26764705777168274)
(X_502  0.2754901945590973)
(X_503  0.387254923582077)
(X_504  0.1401960849761963)
(X_505  0.1401960849761963)
(X_506  0.14411765336990356)
(X_507  0.14803922176361084)
(X_508  0.0519607849419117)
(X_509  0.06372549384832382)
(X_510  0.0676470622420311)
(X_511  0.13028262555599213)
(X_512  0.04019607976078987)
(X_513  0.04803921654820442)
(X_514  0.05980392172932625)
(X_515  0.07156863063573837)
(X_516  0.07549020648002625)
(X_517  0.07549020648002625)
(X_518  0.07156863063573837)
(X_519  0.0676470622420311)
(X_520  0.0676470622420311)
(X_521  0.08725491166114807)
(X_522  0.0676470622420311)
(X_523  0.0676470622420311)
(X_524  0.10294118523597717)
(X_525  0.10686275362968445)
(X_526  0.19117647409439087)
(X_527  0.21078431606292725)
(X_528  0.1617647111415863)
(X_529  0.16960784792900085)
(X_530  0.1774509847164154)
(X_531  0.18529412150382996)
(X_532  0.1401960849761963)
(X_533  0.1401960849761963)
(X_534  0.136274516582489)
(X_535  0.136274516582489)
(X_536  0.136274516582489)
(X_537  0.036274511367082596)
(X_538  0.036274511367082596)
(X_539  0.136274516582489)
(X_540  0.05588235333561897)
(X_541  0.05980392172932625)
(X_542  0.11285463720560074)
(X_543  0.07156863063573837)
(X_544  0.1715686321258545)
(X_545  0.16764706373214722)
(X_546  0.16372549533843994)
(X_547  0.05588235333561897)
(X_548  0.1715686321258545)
(X_549  0.19509804248809814)
(X_550  0.18333333730697632)
(X_551  0.19117647409439087)
(X_552  0.23039215803146362)
(X_553  0.23039215803146362)
(X_554  0.21470588445663452)
(X_555  0.1303921639919281)
(X_556  0.21078431606292725)
(X_557  0.11078432202339172)
(X_558  0.11078432202339172)
(X_559  0.10686275362968445)
(X_560  0.14411765336990356)
(X_561  0.04411764815449715)
(X_562  0.04411764815449715)
(X_563  0.04411764815449715)
(X_564  0.04411764815449715)
(X_565  0.04019607976078987)
(X_566  0.04019607976078987)
(X_567  0.04019607976078987)
(X_568  0.01666666939854622)
(X_569  0.020588237792253494)
(X_570  0.12843137979507446)
(X_571  0.036274511367082596)
(X_572  0.036274511367082596)
(X_573  0.036274511367082596)
(X_574  0.036274511367082596)
(X_575  0.036274511367082596)
(X_576  0.036274511367082596)
(X_577  0.05980392172932625)
(X_578  0.0519607849419117)
(X_579  0.1558823585510254)
(X_580  0.19117647409439087)
(X_581  0.1872549057006836)
(X_582  0.16764706373214722)
(X_583  0.17941176891326904)
(X_584  0.21078431606292725)
(X_585  0.10294118523597717)
(X_586  0.09509804844856262)
(X_587  0.09117648005485535)
(X_588  0.12058823555707932)
(X_589  0.03235294297337532)
(X_590  0.15196079015731812)
(X_591  0.07941177487373352)
(X_592  0.11078432202339172)
(X_593  0.1303921639919281)
(X_594  0.25)
(X_595  0.25784313678741455)
(X_596  0.2852941155433655)
(X_597  0.28921568393707275)
(X_598  0.20098040997982025)
(X_599  0.2088235467672348)
(X_600  0.22058825194835663)
(X_601  0.22843138873577118)
(X_602  0.23235295712947845)
(X_603  0.23627452552318573)
(X_604  0.18529412150382996)
(X_605  0.20490197837352753)
(X_606  0.2813725471496582)
(X_607  0.27352941036224365)
(X_608  0.2970588207244873)
(X_609  0.2813725471496582)
(X_610  0.25)
(X_611  0.25784313678741455)
(X_612  0.11862745881080627)
(X_613  0.10686275362968445)
(X_614  0.08725491166114807)
(X_615  0.16764706373214722)
(X_616  0.7872549295425415)
(X_617  0.6990196108818054)
(X_618  0.7303921580314636)
(X_619  0.7617647051811218)
(X_620  0.79313725233078)
(X_621  0.9205882549285889)
(X_622  0.9401960968971252)
(X_623  0.9519608020782471)
(X_624  0.9519608020782471)
(X_625  0.9519608020782471)
(X_626  0.9598039388656616)
(X_627  0.9676470756530762)
(X_628  0.9715686440467834)
(X_629  0.979411780834198)
(X_630  0.9833333492279053)
(X_631  0.9833333492279053)
(X_632  0.9715686440467834)
(X_633  0.8833333253860474)
(X_634  0.8558823466300964)
(X_635  0.8441176414489746)
(X_636  0.8598039150238037)
(X_637  0.9441176652908325)
(X_638  0.9127451181411743)
(X_639  0.8245097994804382)
(X_640  0.865686297416687)
(X_641  0.8539215922355652)
(X_642  0.8343137502670288)
(X_643  0.8147059082984924)
(X_644  0.9421568512916565)
(X_645  0.9460784196853638)
(X_646  1.0499999523162842)
(X_647  1.0499999523162842)
(X_648  0.949999988079071)
(X_649  1.0460784435272217)
(X_650  1.0382353067398071)
(X_651  1.034313678741455)
(X_652  1.0499999523162842)
(X_653  1.0499999523162842)
(X_654  1.004792332649231)
(X_655  1.0499999523162842)
(X_656  0.949999988079071)
(X_657  0.949999988079071)
(X_658  0.949999988079071)
(X_659  0.949999988079071)
(X_660  0.949999988079071)
(X_661  1.0499999523162842)
(X_662  1.0460784435272217)
(X_663  0.9382352828979492)
(X_664  0.949999988079071)
(X_665  1.0499999523162842)
(X_666  1.0382353067398071)
(X_667  0.949999988079071)
(X_668  0.949999988079071)
(X_669  0.949999988079071)
(X_670  0.949999988079071)
(X_671  0.9460784196853638)
(X_672  1.0499999523162842)
(X_673  0.949999988079071)
(X_674  0.949999988079071)
(X_675  0.949999988079071)
(X_676  0.949999988079071)
(X_677  1.0499999523162842)
(X_678  0.9952075481414795)
(X_679  0.949999988079071)
(X_680  1.0499999523162842)
(X_681  1.0499999523162842)
(X_682  1.0499999523162842)
(X_683  1.0499999523162842)
(X_684  1.0499999523162842)
(X_685  1.0499999523162842)
(X_686  0.949999988079071)
(X_687  0.949999988079071)
(X_688  1.0499999523162842)
(X_689  1.0499999523162842)
(X_690  0.949999988079071)
(X_691  0.949999988079071)
(X_692  1.0499999523162842)
(X_693  0.9952075481414795)
(X_694  0.949999988079071)
(X_695  0.949999988079071)
(X_696  1.0499999523162842)
(X_697  1.0499999523162842)
(X_698  1.0499999523162842)
(X_699  1.0499999523162842)
(X_700  1.0499999523162842)
(X_701  0.949999988079071)
(X_702  1.0499999523162842)
(X_703  1.0499999523162842)
(X_704  0.949999988079071)
(X_705  0.949999988079071)
(X_706  0.949999988079071)
(X_707  0.949999988079071)
(X_708  0.949999988079071)
(X_709  0.949999988079071)
(X_710  0.949999988079071)
(X_711  1.0499999523162842)
(X_712  1.0499999523162842)
(X_713  1.0499999523162842)
(X_714  0.949999988079071)
(X_715  0.949999988079071)
(X_716  1.0499999523162842)
(X_717  1.0499999523162842)
(X_718  0.949999988079071)
(X_719  0.949999988079071)
(X_720  0.949999988079071)
(X_721  0.949999988079071)
(X_722  0.949999988079071)
(X_723  0.949999988079071)
(X_724  1.0499999523162842)
(X_725  1.0499999523162842)
(X_726  1.0499999523162842)
(X_727  1.0499999523162842)
(X_728  1.0499999523162842)
(X_729  0.949999988079071)
(X_730  1.0499999523162842)
(X_731  1.0499999523162842)
(X_732  0.949999988079071)
(X_733  0.949999988079071)
(X_734  0.949999988079071)
(X_735  0.949999988079071)
(X_736  1.0499999523162842)
(X_737  1.0499999523162842)
(X_738  1.0499999523162842)
(X_739  1.0499999523162842)
(X_740  1.0499999523162842)
(X_741  1.0499999523162842)
(X_742  1.0499999523162842)
(X_743  1.0499999523162842)
(X_744  0.9952075481414795)
(X_745  1.0499999523162842)
(X_746  1.0499999523162842)
(X_747  0.949999988079071)
(X_748  0.949999988079071)
(X_749  0.949999988079071)
(X_750  0.949999988079071)
(X_751  0.949999988079071)
(X_752  1.0499999523162842)
(X_753  1.0499999523162842)
(X_754  1.0499999523162842)
(X_755  1.0499999523162842)
(X_756  1.0499999523162842)
(X_757  1.004792332649231)
(X_758  1.0499999523162842)
(X_759  1.0499999523162842)
(X_760  0.949999988079071)
(X_761  0.949999988079071)
(X_762  0.949999988079071)
(X_763  1.0499999523162842)
(X_764  0.949999988079071)
(X_765  1.0499999523162842)
(X_766  0.949999988079071)
(X_767  0.9952075481414795)
(X_768  1.0499999523162842)
(X_769  0.949999988079071)
(X_770  0.949999988079071)
(X_771  0.949999988079071)
(X_772  0.949999988079071)
(X_773  0.949999988079071)
(X_774  0.949999988079071)
(X_775  0.949999988079071)
(X_776  0.949999988079071)
(X_777  0.949999988079071)
(X_778  0.949999988079071)
(X_779  0.949999988079071)
(X_780  0.949999988079071)
(X_781  0.949999988079071)
(X_782  0.949999988079071)
(X_783  1.004792332649231)
(Y_0 -30.97576141357422)
(Y_1 53.22201156616211)
(Y_2 -29.145048141479492)
(Y_3 4.5388007164001465))