((X_0  0.19901961088180542)
(X_1  0.11078432202339172)
(X_2  0.10686275362968445)
(X_3  0.19509804248809814)
(X_4  0.20686274766921997)
(X_5  0.23823529481887817)
(X_6  0.1460784375667572)
(X_7  0.1303921639919281)
(X_8  0.21470588445663452)
(X_9  0.24215686321258545)
(X_10  0.23039215803146362)
(X_11  0.2186274528503418)
(X_12  0.2343137264251709)
(X_13  0.2186274528503418)
(X_14  0.19901961088180542)
(X_15  0.12254902720451355)
(X_16  0.14215686917304993)
(X_17  0.14215686917304993)
(X_18  0.14215686917304993)
(X_19  0.1460784375667572)
(X_20  0.24607843160629272)
(X_21  0.24607843160629272)
(X_22  0.14215686917304993)
(X_23  0.13823530077934265)
(X_24  0.24215686321258545)
(X_25  0.14215686917304993)
(X_26  0.13431373238563538)
(X_27  0.23039215803146362)
(X_28  0.19117647409439087)
(X_29  0.21470588445663452)
(X_30  0.1303921639919281)
(X_31  0.12254902720451355)
(X_32  0.11862745881080627)
(X_33  0.13431373238563538)
(X_34  0.2343137264251709)
(X_35  0.22254902124404907)
(X_36  0.17941176891326904)
(X_37  0.114705890417099)
(X_38  0.11078432202339172)
(X_39  0.10294118523597717)
(X_40  0.114705890417099)
(X_41  0.10294118523597717)
(X_42  0.0990196168422699)
(X_43  0.13431373238563538)
(X_44  0.19509804248809814)
(X_45  0.20686274766921997)
(X_46  0.22254902124404907)
(X_47  0.12647059559822083)
(X_48  0.11862745881080627)
(X_49  0.114705890417099)
(X_50  0.114705890417099)
(X_51  0.11862745881080627)
(X_52  0.22254902124404907)
(X_53  0.22254902124404907)
(X_54  0.21470588445663452)
(X_55  0.21078431606292725)
(X_56  0.19117647409439087)
(X_57  0.12254902720451355)
(X_58  0.1460784375667572)
(X_59  0.1460784375667572)
(X_60  0.13823530077934265)
(X_61  0.14215686917304993)
(X_62  0.1460784375667572)
(X_63  0.13823530077934265)
(X_64  0.12254902720451355)
(X_65  0.15784314274787903)
(X_66  0.15000000596046448)
(X_67  0.13431373238563538)
(X_68  0.13431373238563538)
(X_69  0.11078432202339172)
(X_70  0.10294118523597717)
(X_71  0.13431373238563538)
(X_72  0.13823530077934265)
(X_73  0.13823530077934265)
(X_74  0.1303921639919281)
(X_75  0.11078432202339172)
(X_76  0.19509804248809814)
(X_77  0.19509804248809814)
(X_78  0.21078431606292725)
(X_79  0.22647058963775635)
(X_80  0.21470588445663452)
(X_81  0.21078431606292725)
(X_82  0.10686275362968445)
(X_83  0.2029411792755127)
(X_84  0.22254902124404907)
(X_85  0.12647059559822083)
(X_86  0.22647058963775635)
(X_87  0.22647058963775635)
(X_88  0.22647058963775635)
(X_89  0.1303921639919281)
(X_90  0.1303921639919281)
(X_91  0.1303921639919281)
(X_92  0.19901961088180542)
(X_93  0.13431373238563538)
(X_94  0.1303921639919281)
(X_95  0.13431373238563538)
(X_96  0.15784314274787903)
(X_97  0.1460784375667572)
(X_98  0.22647058963775635)
(X_99  0.24215686321258545)
(X_100  0.2343137264251709)
(X_101  0.2343137264251709)
(X_102  0.23039215803146362)
(X_103  0.22647058963775635)
(X_104  0.23039215803146362)
(X_105  0.12647059559822083)
(X_106  0.12254902720451355)
(X_107  0.11862745881080627)
(X_108  0.12647059559822083)
(X_109  0.12254902720451355)
(X_110  0.11862745881080627)
(X_111  0.21470588445663452)
(X_112  0.1303921639919281)
(X_113  0.10686275362968445)
(X_114  0.1872549057006836)
(X_115  0.19117647409439087)
(X_116  0.21470588445663452)
(X_117  0.23823529481887817)
(X_118  0.15392157435417175)
(X_119  0.25784313678741455)
(X_120  0.1774509847164154)
(X_121  0.18921568989753723)
(X_122  0.16960784792900085)
(X_123  0.16960784792900085)
(X_124  0.1931372582912445)
(X_125  0.16568627953529358)
(X_126  0.11078432202339172)
(X_127  0.2029411792755127)
(X_128  0.20686274766921997)
(X_129  0.19509804248809814)
(X_130  0.19901961088180542)
(X_131  0.2186274528503418)
(X_132  0.24215686321258545)
(X_133  0.24607843160629272)
(X_134  0.22254902124404907)
(X_135  0.19509804248809814)
(X_136  0.13431373238563538)
(X_137  0.1303921639919281)
(X_138  0.1303921639919281)
(X_139  0.22647058963775635)
(X_140  0.19509804248809814)
(X_141  0.18333333730697632)
(X_142  0.19509804248809814)
(X_143  0.23823529481887817)
(X_144  0.1931372582912445)
(X_145  0.240196093916893)
(X_146  0.28333333134651184)
(X_147  0.41470590233802795)
(X_148  0.48137256503105164)
(X_149  0.49705883860588074)
(X_150  0.47745099663734436)
(X_151  0.47745099663734436)
(X_152  0.5127450823783875)
(X_153  0.49705883860588074)
(X_154  0.4539215862751007)
(X_155  0.45000001788139343)
(X_156  0.27941176295280457)
(X_157  0.21666668355464935)
(X_158  0.2343137264251709)
(X_159  0.1872549057006836)
(X_160  0.18333333730697632)
(X_161  0.0990196168422699)
(X_162  0.114705890417099)
(X_163  0.22254902124404907)
(X_164  0.12647059559822083)
(X_165  0.12647059559822083)
(X_166  0.12254902720451355)
(X_167  0.22254902124404907)
(X_168  0.10294118523597717)
(X_169  0.1303921639919281)
(X_170  0.29313725233078003)
(X_171  0.3598039448261261)
(X_172  0.39901962876319885)
(X_173  0.4225490391254425)
(X_174  0.3656862676143646)
(X_175  0.41274508833885193)
(X_176  0.41470590233802795)
(X_177  0.45000001788139343)
(X_178  0.45000001788139343)
(X_179  0.4539215862751007)
(X_180  0.49313727021217346)
(X_181  0.5049019455909729)
(X_182  0.5127450823783875)
(X_183  0.45588237047195435)
(X_184  0.5441176295280457)
(X_185  0.48137256503105164)
(X_186  0.3794117867946625)
(X_187  0.2813725471496582)
(X_188  0.2186274528503418)
(X_189  0.10294118523597717)
(X_190  0.2186274528503418)
(X_191  0.23823529481887817)
(X_192  0.2186274528503418)
(X_193  0.2186274528503418)
(X_194  0.114705890417099)
(X_195  0.11078432202339172)
(X_196  0.17352941632270813)
(X_197  0.3284313976764679)
(X_198  0.4068627655506134)
(X_199  0.3539215624332428)
(X_200  0.3343137204647064)
(X_201  0.39901962876319885)
(X_202  0.4107843339443207)
(X_203  0.4539215862751007)
(X_204  0.5774509906768799)
(X_205  0.6970588564872742)
(X_206  0.6539216041564941)
(X_207  0.5754902362823486)
(X_208  0.42450979351997375)
(X_209  0.37745097279548645)
(X_210  0.3735294044017792)
(X_211  0.4205882251262665)
(X_212  0.4892157018184662)
(X_213  0.5127450823783875)
(X_214  0.4166666567325592)
(X_215  0.3656862676143646)
(X_216  0.27156862616539)
(X_217  0.2774509787559509)
(X_218  0.21470588445663452)
(X_219  0.19117647409439087)
(X_220  0.21470588445663452)
(X_221  0.114705890417099)
(X_222  0.114705890417099)
(X_223  0.11078432202339172)
(X_224  0.31470587849617004)
(X_225  0.31078431010246277)
(X_226  0.3911764919757843)
(X_227  0.3637255132198334)
(X_228  0.25196078419685364)
(X_229  0.29509803652763367)
(X_230  0.39313724637031555)
(X_231  0.479411780834198)
(X_232  0.5813725590705872)
(X_233  0.6166666746139526)
(X_234  0.7205882668495178)
(X_235  0.7205882668495178)
(X_236  0.6323529481887817)
(X_237  0.6088235378265381)
(X_238  0.6166666746139526)
(X_239  0.6715686321258545)
(X_240  0.5774509906768799)
(X_241  0.6166666746139526)
(X_242  0.5362744927406311)
(X_243  0.40294119715690613)
(X_244  0.49705883860588074)
(X_245  0.4539215862751007)
(X_246  0.2813725471496582)
(X_247  0.24607843160629272)
(X_248  0.22647058963775635)
(X_249  0.2029411792755127)
(X_250  0.09117648005485535)
(X_251  0.114705890417099)
(X_252  0.2872548997402191)
(X_253  0.24411766231060028)
(X_254  0.23235295712947845)
(X_255  0.31078431010246277)
(X_256  0.5284313559532166)
(X_257  0.6068627834320068)
(X_258  0.6068627834320068)
(X_259  0.5794118046760559)
(X_260  0.4911764860153198)
(X_261  0.522549033164978)
(X_262  0.6264706254005432)
(X_263  0.6343137621879578)
(X_264  0.5421568751335144)
(X_265  0.5107843279838562)
(X_266  0.4950980544090271)
(X_267  0.5343137383460999)
(X_268  0.4637255072593689)
(X_269  0.5656862854957581)
(X_270  0.6617647409439087)
(X_271  0.42843136191368103)
(X_272  0.34215685725212097)
(X_273  0.4539215862751007)
(X_274  0.45000001788139343)
(X_275  0.40294119715690613)
(X_276  0.33235296607017517)
(X_277  0.2852941155433655)
(X_278  0.14215686917304993)
(X_279  0.1303921639919281)
(X_280  0.36764708161354065)
(X_281  0.3245098292827606)
(X_282  0.23627452552318573)
(X_283  0.3578431308269501)
(X_284  0.5147058963775635)
(X_285  0.6696078777313232)
(X_286  0.5833333730697632)
(X_287  0.4696078598499298)
(X_288  0.3696078360080719)
(X_289  0.41274508833885193)
(X_290  0.42843136191368103)
(X_291  0.5441176295280457)
(X_292  0.45196080207824707)
(X_293  0.4009803831577301)
(X_294  0.3656862676143646)
(X_295  0.3892156779766083)
(X_296  0.43039217591285706)
(X_297  0.3656862676143646)
(X_298  0.5029411911964417)
(X_299  0.4833333492279053)
(X_300  0.3911764919757843)
(X_301  0.3911764919757843)
(X_302  0.5009803771972656)
(X_303  0.3735294044017792)
(X_304  0.37745097279548645)
(X_305  0.3382352888584137)
(X_306  0.3068627417087555)
(X_307  0.29901960492134094)
(X_308  0.25)
(X_309  0.18529412150382996)
(X_310  0.26372548937797546)
(X_311  0.3696078360080719)
(X_312  0.46764707565307617)
(X_313  0.6029412150382996)
(X_314  0.45588237047195435)
(X_315  0.3892156779766083)
(X_316  0.3950980603694916)
(X_317  0.46176472306251526)
(X_318  0.5049019455909729)
(X_319  0.520588219165802)
(X_320  0.5049019455909729)
(X_321  0.3382352888584137)
(X_322  0.29901960492134094)
(X_323  0.33039215207099915)
(X_324  0.41470590233802795)
(X_325  0.18921568989753723)
(X_326  0.29509803652763367)
(X_327  0.42843136191368103)
(X_328  0.32647058367729187)
(X_329  0.240196093916893)
(X_330  0.38333335518836975)
(X_331  0.3950980603694916)
(X_332  0.41862747073173523)
(X_333  0.4068627655506134)
(X_334  0.31078431010246277)
(X_335  0.3343137204647064)
(X_336  0.32058826088905334)
(X_337  0.387254923582077)
(X_338  0.45000001788139343)
(X_339  0.4696078598499298)
(X_340  0.4696078598499298)
(X_341  0.4696078598499298)
(X_342  0.3696078360080719)
(X_343  0.36176469922065735)
(X_344  0.3754902184009552)
(X_345  0.46176472306251526)
(X_346  0.4205882251262665)
(X_347  0.4205882251262665)
(X_348  0.37745097279548645)
(X_349  0.2911764681339264)
(X_350  0.2558823525905609)
(X_351  0.40294119715690613)
(X_352  0.4225490391254425)
(X_353  0.2852941155433655)
(X_354  0.2852941155433655)
(X_355  0.34607842564582825)
(X_356  0.4166666567325592)
(X_357  0.4264706075191498)
(X_358  0.35196080803871155)
(X_359  0.3715686500072479)
(X_360  0.3715686500072479)
(X_361  0.3598039448261261)
(X_362  0.26372548937797546)
(X_363  0.2754901945590973)
(X_364  0.4735294282436371)
(X_365  0.39313724637031555)
(X_366  0.3735294044017792)
(X_367  0.4107843339443207)
(X_368  0.3637255132198334)
(X_369  0.3558823764324188)
(X_370  0.24803923070430756)
(X_371  0.23235295712947845)
(X_372  0.26372548937797546)
(X_373  0.34607842564582825)
(X_374  0.39313724637031555)
(X_375  0.48137256503105164)
(X_376  0.3225490152835846)
(X_377  0.23235295712947845)
(X_378  0.20098040997982025)
(X_379  0.25196078419685364)
(X_380  0.20098040997982025)
(X_381  0.30098041892051697)
(X_382  0.2696078419685364)
(X_383  0.3558823764324188)
(X_384  0.42843136191368103)
(X_385  0.4480392038822174)
(X_386  0.3813725411891937)
(X_387  0.39313724637031555)
(X_388  0.4382353127002716)
(X_389  0.41470590233802795)
(X_390  0.3950980603694916)
(X_391  0.2911764681339264)
(X_392  0.39901962876319885)
(X_393  0.3950980603694916)
(X_394  0.35196080803871155)
(X_395  0.2970588207244873)
(X_396  0.28921568393707275)
(X_397  0.32058826088905334)
(X_398  0.22843138873577118)
(X_399  0.20490197837352753)
(X_400  0.21666668355464935)
(X_401  0.2754901945590973)
(X_402  0.29901960492134094)
(X_403  0.3911764919757843)
(X_404  0.3558823764324188)
(X_405  0.2852941155433655)
(X_406  0.15392157435417175)
(X_407  0.1931372582912445)
(X_408  0.12254902720451355)
(X_409  0.1460784375667572)
(X_410  0.2343137264251709)
(X_411  0.2774509787559509)
(X_412  0.41470590233802795)
(X_413  0.4049019515514374)
(X_414  0.5166666507720947)
(X_415  0.5362744927406311)
(X_416  0.5107843279838562)
(X_417  0.4950980544090271)
(X_418  0.48725491762161255)
(X_419  0.48725491762161255)
(X_420  0.24803923070430756)
(X_421  0.24803923070430756)
(X_422  0.30490198731422424)
(X_423  0.14215686917304993)
(X_424  0.12647059559822083)
(X_425  0.15784314274787903)
(X_426  0.2656862735748291)
(X_427  0.24215686321258545)
(X_428  0.2656862735748291)
(X_429  0.20098040997982025)
(X_430  0.2088235467672348)
(X_431  0.21274511516094208)
(X_432  0.2088235467672348)
(X_433  0.1617647111415863)
(X_434  0.1303921639919281)
(X_435  0.1617647111415863)
(X_436  0.28921568393707275)
(X_437  0.21078431606292725)
(X_438  0.19509804248809814)
(X_439  0.25)
(X_440  0.2970588207244873)
(X_441  0.3480392396450043)
(X_442  0.31078431010246277)
(X_443  0.34607842564582825)
(X_444  0.3499999940395355)
(X_445  0.3499999940395355)
(X_446  0.36176469922065735)
(X_447  0.48137256503105164)
(X_448  0.3127451241016388)
(X_449  0.28921568393707275)
(X_450  0.2617647051811218)
(X_451  0.23823529481887817)
(X_452  0.1303921639919281)
(X_453  0.12647059559822083)
(X_454  0.22254902124404907)
(X_455  0.22254902124404907)
(X_456  0.24215686321258545)
(X_457  0.2656862735748291)
(X_458  0.2852941155433655)
(X_459  0.2813725471496582)
(X_460  0.25784313678741455)
(X_461  0.1460784375667572)
(X_462  0.15392157435417175)
(X_463  0.17352941632270813)
(X_464  0.13823530077934265)
(X_465  0.11862745881080627)
(X_466  0.21078431606292725)
(X_467  0.23039215803146362)
(X_468  0.2774509787559509)
(X_469  0.3401961028575897)
(X_470  0.3911764919757843)
(X_471  0.41862747073173523)
(X_472  0.39901962876319885)
(X_473  0.387254923582077)
(X_474  0.36764708161354065)
(X_475  0.35196080803871155)
(X_476  0.16568627953529358)
(X_477  0.25)
(X_478  0.23039215803146362)
(X_479  0.2186274528503418)
(X_480  0.114705890417099)
(X_481  0.11862745881080627)
(X_482  0.114705890417099)
(X_483  0.21470588445663452)
(X_484  0.21078431606292725)
(X_485  0.22647058963775635)
(X_486  0.14215686917304993)
(X_487  0.13823530077934265)
(X_488  0.12647059559822083)
(X_489  0.114705890417099)
(X_490  0.2186274528503418)
(X_491  0.1303921639919281)
(X_492  0.1303921639919281)
(X_493  0.11862745881080627)
(X_494  0.20686274766921997)
(X_495  0.2186274528503418)
(X_496  0.24607843160629272)
(X_497  0.2774509787559509)
(X_498  0.30490198731422424)
(X_499  0.21274511516094208)
(X_500  0.32058826088905334)
(X_501  0.21666668355464935)
(X_502  0.21666668355464935)
(X_503  0.21274511516094208)
(X_504  0.10686275362968445)
(X_505  0.0990196168422699)
(X_506  0.09117648005485535)
(X_507  0.09117648005485535)
(X_508  0.09509804844856262)
(X_509  0.2029411792755127)
(X_510  0.19901961088180542)
(X_511  0.19509804248809814)
(X_512  0.09509804844856262)
(X_513  0.0990196168422699)
(X_514  0.2029411792755127)
(X_515  0.10686275362968445)
(X_516  0.10686275362968445)
(X_517  0.10294118523597717)
(X_518  0.0990196168422699)
(X_519  0.09509804844856262)
(X_520  0.10686275362968445)
(X_521  0.0990196168422699)
(X_522  0.09117648005485535)
(X_523  0.09509804844856262)
(X_524  0.10294118523597717)
(X_525  0.21078431606292725)
(X_526  0.21078431606292725)
(X_527  0.20686274766921997)
(X_528  0.1303921639919281)
(X_529  0.13823530077934265)
(X_530  0.15000000596046448)
(X_531  0.1617647111415863)
(X_532  0.16372549533843994)
(X_533  0.15980392694473267)
(X_534  0.15980392694473267)
(X_535  0.16764706373214722)
(X_536  0.17941176891326904)
(X_537  0.0833333432674408)
(X_538  0.07941177487373352)
(X_539  0.17549020051956177)
(X_540  0.07549020648002625)
(X_541  0.07156863063573837)
(X_542  0.16764706373214722)
(X_543  0.17941176891326904)
(X_544  0.08725491166114807)
(X_545  0.09117648005485535)
(X_546  0.07941177487373352)
(X_547  0.0676470622420311)
(X_548  0.16764706373214722)
(X_549  0.16764706373214722)
(X_550  0.0676470622420311)
(X_551  0.16764706373214722)
(X_552  0.1715686321258545)
(X_553  0.17549020051956177)
(X_554  0.07156863063573837)
(X_555  0.07156863063573837)
(X_556  0.1872549057006836)
(X_557  0.09509804844856262)
(X_558  0.21078431606292725)
(X_559  0.2186274528503418)
(X_560  0.14803922176361084)
(X_561  0.04411764815449715)
(X_562  0.04411764815449715)
(X_563  0.0519607849419117)
(X_564  0.06372549384832382)
(X_565  0.06372549384832382)
(X_566  0.05980392172932625)
(X_567  0.0519607849419117)
(X_568  0.04411764815449715)
(X_569  0.136274516582489)
(X_570  0.13235294818878174)
(X_571  0.04411764815449715)
(X_572  0.05980392172932625)
(X_573  0.06372549384832382)
(X_574  0.0519607849419117)
(X_575  0.03235294297337532)
(X_576  0.0519607849419117)
(X_577  0.0519607849419117)
(X_578  0.0519607849419117)
(X_579  0.15196079015731812)
(X_580  0.1558823585510254)
(X_581  0.15980392694473267)
(X_582  0.1715686321258545)
(X_583  0.17941176891326904)
(X_584  0.17941176891326904)
(X_585  0.07941177487373352)
(X_586  0.07941177487373352)
(X_587  0.0833333432674408)
(X_588  0.1401960849761963)
(X_589  0.036274511367082596)
(X_590  0.036274511367082596)
(X_591  0.1401960849761963)
(X_592  0.14803922176361084)
(X_593  0.0519607849419117)
(X_594  0.04411764815449715)
(X_595  0.136274516582489)
(X_596  0.136274516582489)
(X_597  0.13235294818878174)
(X_598  0.03235294297337532)
(X_599  0.04411764815449715)
(X_600  0.05588235333561897)
(X_601  0.05980392172932625)
(X_602  0.04803921654820442)
(X_603  0.036274511367082596)
(X_604  0.15196079015731812)
(X_605  0.15196079015731812)
(X_606  0.14803922176361084)
(X_607  0.14411765336990356)
(X_608  0.1401960849761963)
(X_609  0.14803922176361084)
(X_610  0.16372549533843994)
(X_611  0.17549020051956177)
(X_612  0.0676470622420311)
(X_613  0.06372549384832382)
(X_614  0.05588235333561897)
(X_615  0.15196079015731812)
(X_616  0.136274516582489)
(X_617  0.028431374579668045)
(X_618  0.02450980618596077)
(X_619  0.028431374579668045)
(X_620  0.036274511367082596)
(X_621  0.1401960849761963)
(X_622  0.136274516582489)
(X_623  0.13235294818878174)
(X_624  0.136274516582489)
(X_625  0.136274516582489)
(X_626  0.1401960849761963)
(X_627  0.15196079015731812)
(X_628  0.05588235333561897)
(X_629  0.05980392172932625)
(X_630  0.0519607849419117)
(X_631  0.14803922176361084)
(X_632  0.03235294297337532)
(X_633  0.036274511367082596)
(X_634  0.04411764815449715)
(X_635  0.04019607976078987)
(X_636  0.13235294818878174)
(X_637  0.136274516582489)
(X_638  0.14803922176361084)
(X_639  0.1558823585510254)
(X_640  0.05588235333561897)
(X_641  0.0519607849419117)
(X_642  0.14803922176361084)
(X_643  0.14411765336990356)
(X_644  0.12843137979507446)
(X_645  0.020588237792253494)
(X_646  0.11666666716337204)
(X_647  0.12058823555707932)
(X_648  0.12843137979507446)
(X_649  0.036274511367082596)
(X_650  0.136274516582489)
(X_651  0.136274516582489)
(X_652  0.11274509876966476)
(X_653  0.12058823555707932)
(X_654  0.028431374579668045)
(X_655  0.036274511367082596)
(X_656  0.04019607976078987)
(X_657  0.04019607976078987)
(X_658  0.036274511367082596)
(X_659  0.036274511367082596)
(X_660  0.10098039358854294)
(X_661  0.11666666716337204)
(X_662  0.13235294818878174)
(X_663  0.136274516582489)
(X_664  0.028431374579668045)
(X_665  0.12843137979507446)
(X_666  0.136274516582489)
(X_667  0.04411764815449715)
(X_668  0.04411764815449715)
(X_669  0.04411764815449715)
(X_670  0.04803921654820442)
(X_671  0.0519607849419117)
(X_672  0.13235294818878174)
(X_673  0.02450980618596077)
(X_674  0.012745101936161518)
(X_675  0.012745101936161518)
(X_676  0.020588237792253494)
(X_677  0.12450980395078659)
(X_678  0.12843137979507446)
(X_679  0.12843137979507446)
(X_680  0.04411764815449715)
(X_681  0.13235294818878174)
(X_682  0.12058823555707932)
(X_683  0.12058823555707932)
(X_684  0.12450980395078659)
(X_685  0.03235294297337532)
(X_686  0.036274511367082596)
(X_687  0.036274511367082596)
(X_688  0.10882353037595749)
(X_689  0.10882353037595749)
(X_690  0.01666666939854622)
(X_691  0.028431374579668045)
(X_692  0.1401960849761963)
(X_693  0.14411765336990356)
(X_694  0.036274511367082596)
(X_695  0.02450980618596077)
(X_696  0.12058823555707932)
(X_697  0.12843137979507446)
(X_698  0.13235294818878174)
(X_699  0.12058823555707932)
(X_700  0.6186274886131287)
(X_701  0.4833333492279053)
(X_702  0.4205882251262665)
(X_703  0.45000001788139343)
(X_704  0.28333333134651184)
(X_705  0.21666668355464935)
(X_706  0.1617647111415863)
(X_707  0.12647059559822083)
(X_708  0.09509804844856262)
(X_709  0.07941177487373352)
(X_710  0.15980392694473267)
(X_711  0.04019607976078987)
(X_712  0.12843137979507446)
(X_713  0.01666666939854622)
(X_714  0.004901961423456669)
(X_715  -0.0029411755967885256)
(X_716  0.1558823585510254)
(X_717  0.14411765336990356)
(X_718  0.036274511367082596)
(X_719  0.04019607976078987)
(X_720  0.04803921654820442)
(X_721  0.14803922176361084)
(X_722  0.1401960849761963)
(X_723  0.13235294818878174)
(X_724  0.08529412001371384)
(X_725  0.10098039358854294)
(X_726  0.12058823555707932)
(X_727  0.12843137979507446)
(X_728  1.0499999523162842)
(X_729  0.949999988079071)
(X_730  1.0460784435272217)
(X_731  1.022549033164978)
(X_732  1.0029411315917969)
(X_733  0.9754902124404907)
(X_734  0.9519608020782471)
(X_735  0.9323529601097107)
(X_736  0.8735294342041016)
(X_737  0.8382353186607361)
(X_738  0.679411768913269)
(X_739  0.6049019694328308)
(X_740  0.5264706015586853)
(X_741  0.45196080207824707)
(X_742  0.385294109582901)
(X_743  0.34607842564582825)
(X_744  0.22843138873577118)
(X_745  0.19705882668495178)
(X_746  0.15392157435417175)
(X_747  0.11862745881080627)
(X_748  0.09117648005485535)
(X_749  0.05980392172932625)
(X_750  0.02450980618596077)
(X_751  0.0009803927969187498)
(X_752  0.14803922176361084)
(X_753  0.136274516582489)
(X_754  0.12058823555707932)
(X_755  0.12058823555707932)
(X_756  1.0421568155288696)
(X_757  1.0421568155288696)
(X_758  0.949999988079071)
(X_759  0.949999988079071)
(X_760  0.949999988079071)
(X_761  0.949999988079071)
(X_762  0.949999988079071)
(X_763  1.0499999523162842)
(X_764  0.949999988079071)
(X_765  1.0499999523162842)
(X_766  0.949999988079071)
(X_767  0.949999988079071)
(X_768  0.949999988079071)
(X_769  0.949999988079071)
(X_770  0.9421568512916565)
(X_771  0.9303921461105347)
(X_772  0.949999988079071)
(X_773  0.906862735748291)
(X_774  0.8480392098426819)
(X_775  0.8892157077789307)
(X_776  0.8343137502670288)
(X_777  0.7715686559677124)
(X_778  0.6049019694328308)
(X_779  0.5578431487083435)
(X_780  0.4009803831577301)
(X_781  0.3343137204647064)
(X_782  0.24803923070430756)
(X_783  0.19705882668495178)
(Y_0 -28.060604095458984)
(Y_1 43.53566360473633)
(Y_2 -21.362953186035156)
(Y_3 6.596227169036865))