((X_0  0.6009804010391235)
(X_1  0.6009804010391235)
(X_2  0.5970588326454163)
(X_3  0.593137264251709)
(X_4  0.5892156958580017)
(X_5  0.5813725590705872)
(X_6  0.5735294222831726)
(X_7  0.6696078777313232)
(X_8  0.6774510145187378)
(X_9  0.665686309337616)
(X_10  0.6500000357627869)
(X_11  0.6303921937942505)
(X_12  0.6186274886131287)
(X_13  0.5147058963775635)
(X_14  0.5147058963775635)
(X_15  0.5147058963775635)
(X_16  0.522549033164978)
(X_17  0.5147058963775635)
(X_18  0.4990196228027344)
(X_19  0.479411780834198)
(X_20  0.4598039388656616)
(X_21  0.45196080207824707)
(X_22  0.5598039627075195)
(X_23  0.5676470994949341)
(X_24  0.4637255072593689)
(X_25  0.45196080207824707)
(X_26  0.4362744987010956)
(X_27  0.4166666567325592)
(X_28  0.08725491166114807)
(X_29  0.08725491166114807)
(X_30  0.08725491166114807)
(X_31  0.18333333730697632)
(X_32  0.17941176891326904)
(X_33  0.1715686321258545)
(X_34  0.16764706373214722)
(X_35  0.06372549384832382)
(X_36  0.10686275362968445)
(X_37  0.2029411792755127)
(X_38  0.19901961088180542)
(X_39  0.19509804248809814)
(X_40  0.19509804248809814)
(X_41  0.19509804248809814)
(X_42  0.19901961088180542)
(X_43  0.2029411792755127)
(X_44  0.19901961088180542)
(X_45  0.19901961088180542)
(X_46  0.09509804844856262)
(X_47  0.08725491166114807)
(X_48  0.17549020051956177)
(X_49  0.17549020051956177)
(X_50  0.18333333730697632)
(X_51  0.19509804248809814)
(X_52  0.19901961088180542)
(X_53  0.19509804248809814)
(X_54  0.19117647409439087)
(X_55  0.08725491166114807)
(X_56  0.17941176891326904)
(X_57  0.18333333730697632)
(X_58  0.0833333432674408)
(X_59  0.0833333432674408)
(X_60  0.18333333730697632)
(X_61  0.07941177487373352)
(X_62  0.07549020648002625)
(X_63  0.07156863063573837)
(X_64  0.0676470622420311)
(X_65  0.1715686321258545)
(X_66  0.17549020051956177)
(X_67  0.17941176891326904)
(X_68  0.18333333730697632)
(X_69  0.1872549057006836)
(X_70  0.1872549057006836)
(X_71  0.1872549057006836)
(X_72  0.19117647409439087)
(X_73  0.0990196168422699)
(X_74  0.10294118523597717)
(X_75  0.0990196168422699)
(X_76  0.09509804844856262)
(X_77  0.09117648005485535)
(X_78  0.19509804248809814)
(X_79  0.2029411792755127)
(X_80  0.1872549057006836)
(X_81  0.1872549057006836)
(X_82  0.18333333730697632)
(X_83  0.18333333730697632)
(X_84  0.07156863063573837)
(X_85  0.07156863063573837)
(X_86  0.07549020648002625)
(X_87  0.07941177487373352)
(X_88  0.07941177487373352)
(X_89  0.07549020648002625)
(X_90  0.17549020051956177)
(X_91  0.1715686321258545)
(X_92  0.07156863063573837)
(X_93  0.17549020051956177)
(X_94  0.18333333730697632)
(X_95  0.1872549057006836)
(X_96  0.1872549057006836)
(X_97  0.17941176891326904)
(X_98  0.1715686321258545)
(X_99  0.0676470622420311)
(X_100  0.0833333432674408)
(X_101  0.09117648005485535)
(X_102  0.09509804844856262)
(X_103  0.09117648005485535)
(X_104  0.07549020648002625)
(X_105  0.0676470622420311)
(X_106  0.05980392172932625)
(X_107  0.15980392694473267)
(X_108  0.07941177487373352)
(X_109  0.07549020648002625)
(X_110  0.16764706373214722)
(X_111  0.16372549533843994)
(X_112  0.16764706373214722)
(X_113  0.16764706373214722)
(X_114  0.1715686321258545)
(X_115  0.17549020051956177)
(X_116  0.17549020051956177)
(X_117  0.17549020051956177)
(X_118  0.07549020648002625)
(X_119  0.07156863063573837)
(X_120  0.07549020648002625)
(X_121  0.17941176891326904)
(X_122  0.1872549057006836)
(X_123  0.19117647409439087)
(X_124  0.1872549057006836)
(X_125  0.07549020648002625)
(X_126  0.06372549384832382)
(X_127  0.05588235333561897)
(X_128  0.07156863063573837)
(X_129  0.07941177487373352)
(X_130  0.0833333432674408)
(X_131  0.07549020648002625)
(X_132  0.05980392172932625)
(X_133  0.04411764815449715)
(X_134  0.036274511367082596)
(X_135  0.03235294297337532)
(X_136  0.13235294818878174)
(X_137  0.12843137979507446)
(X_138  0.12450980395078659)
(X_139  0.12058823555707932)
(X_140  0.15196079015731812)
(X_141  0.15196079015731812)
(X_142  0.05588235333561897)
(X_143  0.05980392172932625)
(X_144  0.15980392694473267)
(X_145  0.1558823585510254)
(X_146  0.05588235333561897)
(X_147  0.0519607849419117)
(X_148  0.12843137979507446)
(X_149  0.136274516582489)
(X_150  0.14411765336990356)
(X_151  0.14803922176361084)
(X_152  0.14803922176361084)
(X_153  0.14411765336990356)
(X_154  0.136274516582489)
(X_155  0.13235294818878174)
(X_156  0.03235294297337532)
(X_157  0.1401960849761963)
(X_158  0.14411765336990356)
(X_159  0.04411764815449715)
(X_160  0.03235294297337532)
(X_161  0.12450980395078659)
(X_162  0.12058823555707932)
(X_163  0.12058823555707932)
(X_164  0.16764706373214722)
(X_165  0.16372549533843994)
(X_166  0.1558823585510254)
(X_167  0.15196079015731812)
(X_168  0.028431374579668045)
(X_169  0.028431374579668045)
(X_170  0.03235294297337532)
(X_171  0.03235294297337532)
(X_172  0.03235294297337532)
(X_173  0.028431374579668045)
(X_174  0.02450980618596077)
(X_175  0.02450980618596077)
(X_176  0.03235294297337532)
(X_177  0.036274511367082596)
(X_178  0.1401960849761963)
(X_179  0.14803922176361084)
(X_180  0.14803922176361084)
(X_181  0.14803922176361084)
(X_182  0.14411765336990356)
(X_183  0.1401960849761963)
(X_184  0.04019607976078987)
(X_185  0.04803921654820442)
(X_186  0.0519607849419117)
(X_187  0.0519607849419117)
(X_188  0.04411764815449715)
(X_189  0.1401960849761963)
(X_190  0.1401960849761963)
(X_191  0.14411765336990356)
(X_192  0.020588237792253494)
(X_193  0.12843137979507446)
(X_194  0.136274516582489)
(X_195  0.14411765336990356)
(X_196  0.136274516582489)
(X_197  0.136274516582489)
(X_198  0.136274516582489)
(X_199  0.036274511367082596)
(X_200  0.036274511367082596)
(X_201  0.03235294297337532)
(X_202  0.028431374579668045)
(X_203  0.02450980618596077)
(X_204  0.03235294297337532)
(X_205  0.03235294297337532)
(X_206  0.03235294297337532)
(X_207  0.13235294818878174)
(X_208  0.03235294297337532)
(X_209  0.028431374579668045)
(X_210  0.02450980618596077)
(X_211  0.12450980395078659)
(X_212  0.136274516582489)
(X_213  0.1401960849761963)
(X_214  0.1401960849761963)
(X_215  0.136274516582489)
(X_216  0.12843137979507446)
(X_217  0.12450980395078659)
(X_218  0.12450980395078659)
(X_219  0.13235294818878174)
(X_220  0.0990196168422699)
(X_221  0.12647059559822083)
(X_222  0.16568627953529358)
(X_223  0.2088235467672348)
(X_224  0.04019607976078987)
(X_225  0.13235294818878174)
(X_226  0.12450980395078659)
(X_227  0.12843137979507446)
(X_228  0.036274511367082596)
(X_229  0.04019607976078987)
(X_230  0.028431374579668045)
(X_231  0.020588237792253494)
(X_232  0.12450980395078659)
(X_233  0.1401960849761963)
(X_234  0.14803922176361084)
(X_235  0.1401960849761963)
(X_236  0.12058823555707932)
(X_237  0.10882353037595749)
(X_238  0.11274509876966476)
(X_239  0.12450980395078659)
(X_240  0.12450980395078659)
(X_241  0.12843137979507446)
(X_242  0.12843137979507446)
(X_243  0.13235294818878174)
(X_244  0.15980392694473267)
(X_245  0.12254902720451355)
(X_246  0.20490197837352753)
(X_247  0.26764705777168274)
(X_248  0.3499999940395355)
(X_249  0.3813725411891937)
(X_250  0.4166666567325592)
(X_251  0.5401960611343384)
(X_252  0.2970588207244873)
(X_253  0.2852941155433655)
(X_254  0.16568627953529358)
(X_255  0.25)
(X_256  0.23039215803146362)
(X_257  0.2029411792755127)
(X_258  0.16764706373214722)
(X_259  0.14411765336990356)
(X_260  0.14411765336990356)
(X_261  0.136274516582489)
(X_262  0.12450980395078659)
(X_263  0.12058823555707932)
(X_264  0.12450980395078659)
(X_265  0.12843137979507446)
(X_266  0.12450980395078659)
(X_267  0.11666666716337204)
(X_268  0.020588237792253494)
(X_269  0.0676470622420311)
(X_270  0.13823530077934265)
(X_271  0.20098040997982025)
(X_272  0.25196078419685364)
(X_273  0.29901960492134094)
(X_274  0.34607842564582825)
(X_275  0.37745097279548645)
(X_276  0.36176469922065735)
(X_277  0.3696078360080719)
(X_278  0.47745099663734436)
(X_279  0.4735294282436371)
(X_280  0.3029411733150482)
(X_281  0.29901960492134094)
(X_282  0.29509803652763367)
(X_283  0.2911764681339264)
(X_284  0.27941176295280457)
(X_285  0.3558823764324188)
(X_286  0.3245098292827606)
(X_287  0.20490197837352753)
(X_288  0.19509804248809814)
(X_289  0.15980392694473267)
(X_290  0.12058823555707932)
(X_291  0.11666666716337204)
(X_292  0.136274516582489)
(X_293  0.14803922176361084)
(X_294  0.036274511367082596)
(X_295  0.01666666939854622)
(X_296  0.14215686917304993)
(X_297  0.28921568393707275)
(X_298  0.25196078419685364)
(X_299  0.29901960492134094)
(X_300  0.31078431010246277)
(X_301  0.3029411733150482)
(X_302  0.3911764919757843)
(X_303  0.28333333134651184)
(X_304  0.2558823525905609)
(X_305  0.2598039209842682)
(X_306  0.26372548937797546)
(X_307  0.3598039448261261)
(X_308  0.20098040997982025)
(X_309  0.2088235467672348)
(X_310  0.22058825194835663)
(X_311  0.23627452552318573)
(X_312  0.24411766231060028)
(X_313  0.24803923070430756)
(X_314  0.24411766231060028)
(X_315  0.3401961028575897)
(X_316  0.24411766231060028)
(X_317  0.20490197837352753)
(X_318  0.15784314274787903)
(X_319  0.14215686917304993)
(X_320  0.2539215683937073)
(X_321  0.2656862735748291)
(X_322  0.25784313678741455)
(X_323  0.24607843160629272)
(X_324  0.2088235467672348)
(X_325  0.3245098292827606)
(X_326  0.3401961028575897)
(X_327  0.24411766231060028)
(X_328  0.22843138873577118)
(X_329  0.21274511516094208)
(X_330  0.19705882668495178)
(X_331  0.1931372582912445)
(X_332  0.2617647051811218)
(X_333  0.2813725471496582)
(X_334  0.30490198731422424)
(X_335  0.3245098292827606)
(X_336  0.20490197837352753)
(X_337  0.30490198731422424)
(X_338  0.30490198731422424)
(X_339  0.30098041892051697)
(X_340  0.30098041892051697)
(X_341  0.30098041892051697)
(X_342  0.20490197837352753)
(X_343  0.2088235467672348)
(X_344  0.2774509787559509)
(X_345  0.2617647051811218)
(X_346  0.2343137264251709)
(X_347  0.21470588445663452)
(X_348  0.20686274766921997)
(X_349  0.21470588445663452)
(X_350  0.22647058963775635)
(X_351  0.13823530077934265)
(X_352  0.13431373238563538)
(X_353  0.13823530077934265)
(X_354  0.24607843160629272)
(X_355  0.25784313678741455)
(X_356  0.18137255311012268)
(X_357  0.21274511516094208)
(X_358  0.24411766231060028)
(X_359  0.36764708161354065)
(X_360  0.4735294282436371)
(X_361  0.4852941334247589)
(X_362  0.4049019515514374)
(X_363  0.520588219165802)
(X_364  0.26372548937797546)
(X_365  0.2598039209842682)
(X_366  0.24803923070430756)
(X_367  0.33235296607017517)
(X_368  0.31666669249534607)
(X_369  0.3088235557079315)
(X_370  0.31666669249534607)
(X_371  0.3245098292827606)
(X_372  0.28333333134651184)
(X_373  0.2911764681339264)
(X_374  0.3911764919757843)
(X_375  0.3794117867946625)
(X_376  0.3637255132198334)
(X_377  0.36764708161354065)
(X_378  0.3950980603694916)
(X_379  0.41862747073173523)
(X_380  0.4421568810939789)
(X_381  0.4382353127002716)
(X_382  0.3382352888584137)
(X_383  0.34607842564582825)
(X_384  0.457843154668808)
(X_385  0.37745097279548645)
(X_386  0.39313724637031555)
(X_387  0.4049019515514374)
(X_388  0.4225490391254425)
(X_389  0.3068627417087555)
(X_390  0.2911764681339264)
(X_391  0.38333335518836975)
(X_392  0.34215685725212097)
(X_393  0.3499999940395355)
(X_394  0.4539215862751007)
(X_395  0.44607844948768616)
(X_396  0.3382352888584137)
(X_397  0.3382352888584137)
(X_398  0.34607842564582825)
(X_399  0.457843154668808)
(X_400  0.3225490152835846)
(X_401  0.3343137204647064)
(X_402  0.34607842564582825)
(X_403  0.3382352888584137)
(X_404  0.3225490152835846)
(X_405  0.3186274468898773)
(X_406  0.3343137204647064)
(X_407  0.4539215862751007)
(X_408  0.31470587849617004)
(X_409  0.3068627417087555)
(X_410  0.2911764681339264)
(X_411  0.27156862616539)
(X_412  0.2558823525905609)
(X_413  0.33627453446388245)
(X_414  0.31666669249534607)
(X_415  0.3088235557079315)
(X_416  0.1931372582912445)
(X_417  0.17352941632270813)
(X_418  0.2539215683937073)
(X_419  0.24607843160629272)
(X_420  0.12647059559822083)
(X_421  0.24215686321258545)
(X_422  0.2617647051811218)
(X_423  0.2696078419685364)
(X_424  0.2656862735748291)
(X_425  0.2696078419685364)
(X_426  0.2774509787559509)
(X_427  0.18921568989753723)
(X_428  0.18137255311012268)
(X_429  0.29313725233078003)
(X_430  0.2970588207244873)
(X_431  0.28921568393707275)
(X_432  0.27352941036224365)
(X_433  0.2656862735748291)
(X_434  0.2617647051811218)
(X_435  0.2656862735748291)
(X_436  0.15000000596046448)
(X_437  0.1460784375667572)
(X_438  0.13823530077934265)
(X_439  0.13823530077934265)
(X_440  0.23823529481887817)
(X_441  0.13431373238563538)
(X_442  0.1303921639919281)
(X_443  0.12647059559822083)
(X_444  0.1303921639919281)
(X_445  0.23039215803146362)
(X_446  0.23823529481887817)
(X_447  0.2539215683937073)
(X_448  0.11078432202339172)
(X_449  0.20686274766921997)
(X_450  0.20686274766921997)
(X_451  0.20686274766921997)
(X_452  0.21078431606292725)
(X_453  0.22254902124404907)
(X_454  0.13431373238563538)
(X_455  0.14215686917304993)
(X_456  0.14215686917304993)
(X_457  0.1303921639919281)
(X_458  0.11862745881080627)
(X_459  0.11078432202339172)
(X_460  0.11862745881080627)
(X_461  0.24215686321258545)
(X_462  0.2656862735748291)
(X_463  0.2813725471496582)
(X_464  0.21470588445663452)
(X_465  0.22254902124404907)
(X_466  0.2343137264251709)
(X_467  0.13823530077934265)
(X_468  0.12647059559822083)
(X_469  0.0990196168422699)
(X_470  0.0676470622420311)
(X_471  0.0519607849419117)
(X_472  0.19901961088180542)
(X_473  0.2029411792755127)
(X_474  0.21078431606292725)
(X_475  0.21470588445663452)
(X_476  0.10686275362968445)
(X_477  0.10294118523597717)
(X_478  0.0990196168422699)
(X_479  0.0990196168422699)
(X_480  0.10294118523597717)
(X_481  0.114705890417099)
(X_482  0.12254902720451355)
(X_483  0.1303921639919281)
(X_484  0.11862745881080627)
(X_485  0.11078432202339172)
(X_486  0.10294118523597717)
(X_487  0.0990196168422699)
(X_488  0.20686274766921997)
(X_489  0.22254902124404907)
(X_490  0.24215686321258545)
(X_491  0.2539215683937073)
(X_492  0.2186274528503418)
(X_493  0.2186274528503418)
(X_494  0.114705890417099)
(X_495  0.10294118523597717)
(X_496  0.08725491166114807)
(X_497  0.16764706373214722)
(X_498  0.14803922176361084)
(X_499  0.136274516582489)
(X_500  0.06372549384832382)
(X_501  0.16764706373214722)
(X_502  0.07156863063573837)
(X_503  0.17549020051956177)
(X_504  0.0833333432674408)
(X_505  0.17941176891326904)
(X_506  0.17549020051956177)
(X_507  0.17549020051956177)
(X_508  0.17549020051956177)
(X_509  0.0833333432674408)
(X_510  0.08725491166114807)
(X_511  0.09117648005485535)
(X_512  0.18333333730697632)
(X_513  0.17941176891326904)
(X_514  0.07941177487373352)
(X_515  0.17941176891326904)
(X_516  0.18333333730697632)
(X_517  0.19509804248809814)
(X_518  0.20686274766921997)
(X_519  0.21078431606292725)
(X_520  0.19509804248809814)
(X_521  0.1872549057006836)
(X_522  0.1715686321258545)
(X_523  0.05980392172932625)
(X_524  0.04411764815449715)
(X_525  0.036274511367082596)
(X_526  0.03235294297337532)
(X_527  0.03235294297337532)
(X_528  0.03235294297337532)
(X_529  0.136274516582489)
(X_530  0.04019607976078987)
(X_531  0.1401960849761963)
(X_532  0.04803921654820442)
(X_533  0.04411764815449715)
(X_534  0.04019607976078987)
(X_535  0.036274511367082596)
(X_536  0.136274516582489)
(X_537  0.1401960849761963)
(X_538  0.14411765336990356)
(X_539  0.04411764815449715)
(X_540  0.04411764815449715)
(X_541  0.04803921654820442)
(X_542  0.0519607849419117)
(X_543  0.1558823585510254)
(X_544  0.05980392172932625)
(X_545  0.06372549384832382)
(X_546  0.06372549384832382)
(X_547  0.16372549533843994)
(X_548  0.14803922176361084)
(X_549  0.1401960849761963)
(X_550  0.13235294818878174)
(X_551  0.028431374579668045)
(X_552  0.02450980618596077)
(X_553  0.028431374579668045)
(X_554  0.03235294297337532)
(X_555  0.036274511367082596)
(X_556  0.02450980618596077)
(X_557  0.02450980618596077)
(X_558  0.02450980618596077)
(X_559  0.02450980618596077)
(X_560  0.02450980618596077)
(X_561  0.12058823555707932)
(X_562  0.020588237792253494)
(X_563  0.01666666939854622)
(X_564  0.01666666939854622)
(X_565  0.01666666939854622)
(X_566  0.01666666939854622)
(X_567  0.01666666939854622)
(X_568  0.11666666716337204)
(X_569  0.020588237792253494)
(X_570  0.028431374579668045)
(X_571  0.13235294818878174)
(X_572  0.136274516582489)
(X_573  0.136274516582489)
(X_574  0.03235294297337532)
(X_575  0.028431374579668045)
(X_576  0.01666666939854622)
(X_577  0.12058823555707932)
(X_578  0.12058823555707932)
(X_579  0.12058823555707932)
(X_580  0.020588237792253494)
(X_581  0.12058823555707932)
(X_582  0.020588237792253494)
(X_583  0.020588237792253494)
(X_584  0.020588237792253494)
(X_585  0.12058823555707932)
(X_586  0.11666666716337204)
(X_587  0.11666666716337204)
(X_588  0.11274509876966476)
(X_589  0.11274509876966476)
(X_590  0.11274509876966476)
(X_591  0.012745101936161518)
(X_592  0.012745101936161518)
(X_593  0.012745101936161518)
(X_594  0.008823529817163944)
(X_595  0.008823529817163944)
(X_596  0.0009803927969187498)
(X_597  0.008823529817163944)
(X_598  0.012745101936161518)
(X_599  0.11666666716337204)
(X_600  0.11666666716337204)
(X_601  0.11666666716337204)
(X_602  0.10882353037595749)
(X_603  0.10490196198225021)
(X_604  0.01666666939854622)
(X_605  0.020588237792253494)
(X_606  0.020588237792253494)
(X_607  0.020588237792253494)
(X_608  0.11666666716337204)
(X_609  0.10882353037595749)
(X_610  0.0009803927969187498)
(X_611  -0.006862743757665157)
(X_612  0.11666666716337204)
(X_613  0.11274509876966476)
(X_614  0.10882353037595749)
(X_615  0.10098039358854294)
(X_616  0.0009803927969187498)
(X_617  0.10490196198225021)
(X_618  0.10490196198225021)
(X_619  0.10882353037595749)
(X_620  0.008823529817163944)
(X_621  0.008823529817163944)
(X_622  0.004901961423456669)
(X_623  0.004901961423456669)
(X_624  0.10098039358854294)
(X_625  0.10098039358854294)
(X_626  0.10490196198225021)
(X_627  0.10882353037595749)
(X_628  0.10882353037595749)
(X_629  0.10490196198225021)
(X_630  0.10098039358854294)
(X_631  0.09705882519483566)
(X_632  0.012745101936161518)
(X_633  0.012745101936161518)
(X_634  0.11274509876966476)
(X_635  0.10882353037595749)
(X_636  0.004901961423456669)
(X_637  0.0009803927969187498)
(X_638  0.09313725680112839)
(X_639  0.08921568840742111)
(X_640  0.11274509876966476)
(X_641  0.10882353037595749)
(X_642  0.10098039358854294)
(X_643  0.09705882519483566)
(X_644  0.08921568840742111)
(X_645  0.08921568840742111)
(X_646  -0.006862743757665157)
(X_647  -0.0029411755967885256)
(X_648  0.0009803927969187498)
(X_649  0.0009803927969187498)
(X_650  -0.0029411755967885256)
(X_651  0.09705882519483566)
(X_652  0.0009803927969187498)
(X_653  0.0009803927969187498)
(X_654  0.0009803927969187498)
(X_655  0.004901961423456669)
(X_656  0.10098039358854294)
(X_657  0.10098039358854294)
(X_658  0.09705882519483566)
(X_659  0.09313725680112839)
(X_660  0.10490196198225021)
(X_661  0.0009803927969187498)
(X_662  -0.0029411755967885256)
(X_663  -0.0029411755967885256)
(X_664  -0.0029411755967885256)
(X_665  0.0009803927969187498)
(X_666  0.004901961423456669)
(X_667  0.008823529817163944)
(X_668  0.01666666939854622)
(X_669  0.012745101936161518)
(X_670  0.10490196198225021)
(X_671  0.09705882519483566)
(X_672  -0.0029411755967885256)
(X_673  0.09705882519483566)
(X_674  0.09705882519483566)
(X_675  0.09705882519483566)
(X_676  0.09705882519483566)
(X_677  0.09705882519483566)
(X_678  0.09705882519483566)
(X_679  0.09705882519483566)
(X_680  0.09705882519483566)
(X_681  0.09705882519483566)
(X_682  0.09705882519483566)
(X_683  0.09705882519483566)
(X_684  -0.0029411755967885256)
(X_685  0.09705882519483566)
(X_686  0.09705882519483566)
(X_687  0.09705882519483566)
(X_688  0.09313725680112839)
(X_689  0.09313725680112839)
(X_690  0.09313725680112839)
(X_691  0.09313725680112839)
(X_692  0.09313725680112839)
(X_693  0.09313725680112839)
(X_694  0.09313725680112839)
(X_695  0.09313725680112839)
(X_696  0.09705882519483566)
(X_697  -0.0029411755967885256)
(X_698  -0.0029411755967885256)
(X_699  0.09705882519483566)
(X_700  -0.006862743757665157)
(X_701  0.09313725680112839)
(X_702  0.09313725680112839)
(X_703  0.09313725680112839)
(X_704  0.09313725680112839)
(X_705  0.09313725680112839)
(X_706  0.09313725680112839)
(X_707  0.09313725680112839)
(X_708  -0.006862743757665157)
(X_709  -0.006862743757665157)
(X_710  -0.006862743757665157)
(X_711  -0.006862743757665157)
(X_712  -0.006862743757665157)
(X_713  -0.006862743757665157)
(X_714  0.09313725680112839)
(X_715  0.09313725680112839)
(X_716  -0.006862743757665157)
(X_717  -0.006862743757665157)
(X_718  -0.006862743757665157)
(X_719  -0.006862743757665157)
(X_720  -0.006862743757665157)
(X_721  -0.006862743757665157)
(X_722  -0.006862743757665157)
(X_723  -0.006862743757665157)
(X_724  -0.006862743757665157)
(X_725  -0.006862743757665157)
(X_726  -0.006862743757665157)
(X_727  -0.006862743757665157)
(X_728  0.08921568840742111)
(X_729  0.08921568840742111)
(X_730  -0.010784312151372433)
(X_731  0.08921568840742111)
(X_732  0.08921568840742111)
(X_733  0.08921568840742111)
(X_734  0.08921568840742111)
(X_735  0.08921568840742111)
(X_736  -0.010784312151372433)
(X_737  -0.010784312151372433)
(X_738  -0.010784312151372433)
(X_739  -0.010784312151372433)
(X_740  -0.010784312151372433)
(X_741  -0.010784312151372433)
(X_742  -0.010784312151372433)
(X_743  -0.010784312151372433)
(X_744  -0.006862743757665157)
(X_745  -0.006862743757665157)
(X_746  -0.006862743757665157)
(X_747  -0.006862743757665157)
(X_748  -0.006862743757665157)
(X_749  0.08921568840742111)
(X_750  0.08921568840742111)
(X_751  0.08921568840742111)
(X_752  0.08921568840742111)
(X_753  0.08921568840742111)
(X_754  0.08921568840742111)
(X_755  0.08921568840742111)
(X_756  -0.014705880545079708)
(X_757  -0.014705880545079708)
(X_758  -0.014705880545079708)
(X_759  0.08529412001371384)
(X_760  0.08529412001371384)
(X_761  0.08529412001371384)
(X_762  0.08529412001371384)
(X_763  0.08529412001371384)
(X_764  0.08529412001371384)
(X_765  0.08529412001371384)
(X_766  0.08529412001371384)
(X_767  0.08529412001371384)
(X_768  0.08529412001371384)
(X_769  0.08529412001371384)
(X_770  0.08529412001371384)
(X_771  0.08529412001371384)
(X_772  0.09313725680112839)
(X_773  -0.006862743757665157)
(X_774  -0.006862743757665157)
(X_775  -0.010784312151372433)
(X_776  -0.010784312151372433)
(X_777  -0.010784312151372433)
(X_778  0.08921568840742111)
(X_779  0.08529412001371384)
(X_780  0.08529412001371384)
(X_781  -0.014705880545079708)
(X_782  -0.014705880545079708)
(X_783  0.08529412001371384)
(Y_0 32.33576965332031)
(Y_1 -2.1704001426696777)
(Y_2 8.59355640411377)
(Y_3 -39.87480926513672))