((X_0  0.17549020051956177)
(X_1  0.1715686321258545)
(X_2  0.16764706373214722)
(X_3  0.16372549533843994)
(X_4  0.15980392694473267)
(X_5  0.15980392694473267)
(X_6  0.05980392172932625)
(X_7  0.06372549384832382)
(X_8  0.0519607849419117)
(X_9  0.15196079015731812)
(X_10  0.15196079015731812)
(X_11  0.0519607849419117)
(X_12  0.0519607849419117)
(X_13  0.15196079015731812)
(X_14  0.15196079015731812)
(X_15  0.15196079015731812)
(X_16  0.0676470622420311)
(X_17  0.04019607976078987)
(X_18  0.01666666939854622)
(X_19  0.02450980618596077)
(X_20  0.1558823585510254)
(X_21  0.17549020051956177)
(X_22  0.07156863063573837)
(X_23  0.05980392172932625)
(X_24  0.1715686321258545)
(X_25  0.0676470622420311)
(X_26  0.05980392172932625)
(X_27  0.15196079015731812)
(X_28  0.17549020051956177)
(X_29  0.1715686321258545)
(X_30  0.0676470622420311)
(X_31  0.06372549384832382)
(X_32  0.06372549384832382)
(X_33  0.06372549384832382)
(X_34  0.06372549384832382)
(X_35  0.16372549533843994)
(X_36  0.04803921654820442)
(X_37  0.04803921654820442)
(X_38  0.04803921654820442)
(X_39  0.04803921654820442)
(X_40  0.04803921654820442)
(X_41  0.04803921654820442)
(X_42  0.14803922176361084)
(X_43  0.04803921654820442)
(X_44  0.17549020051956177)
(X_45  0.16764706373214722)
(X_46  0.15980392694473267)
(X_47  0.05588235333561897)
(X_48  0.05588235333561897)
(X_49  0.05588235333561897)
(X_50  0.04803921654820442)
(X_51  0.04019607976078987)
(X_52  0.15196079015731812)
(X_53  0.15196079015731812)
(X_54  0.15196079015731812)
(X_55  0.15196079015731812)
(X_56  0.16372549533843994)
(X_57  0.05980392172932625)
(X_58  0.05588235333561897)
(X_59  0.0519607849419117)
(X_60  0.0519607849419117)
(X_61  0.0519607849419117)
(X_62  0.05588235333561897)
(X_63  0.05588235333561897)
(X_64  0.04411764815449715)
(X_65  0.04411764815449715)
(X_66  0.04411764815449715)
(X_67  0.04411764815449715)
(X_68  0.04411764815449715)
(X_69  0.04411764815449715)
(X_70  0.04411764815449715)
(X_71  0.04411764815449715)
(X_72  0.028431374579668045)
(X_73  0.04411764815449715)
(X_74  0.05980392172932625)
(X_75  0.15980392694473267)
(X_76  0.15196079015731812)
(X_77  0.14411765336990356)
(X_78  0.14411765336990356)
(X_79  0.14803922176361084)
(X_80  0.15196079015731812)
(X_81  0.0519607849419117)
(X_82  0.04803921654820442)
(X_83  0.14411765336990356)
(X_84  0.1401960849761963)
(X_85  0.1401960849761963)
(X_86  0.136274516582489)
(X_87  0.13235294818878174)
(X_88  0.13235294818878174)
(X_89  0.036274511367082596)
(X_90  0.036274511367082596)
(X_91  0.04019607976078987)
(X_92  0.136274516582489)
(X_93  0.036274511367082596)
(X_94  0.036274511367082596)
(X_95  0.036274511367082596)
(X_96  0.036274511367082596)
(X_97  0.036274511367082596)
(X_98  0.036274511367082596)
(X_99  0.136274516582489)
(X_100  0.11666666716337204)
(X_101  0.12843137979507446)
(X_102  0.14411765336990356)
(X_103  0.14803922176361084)
(X_104  0.14411765336990356)
(X_105  0.04019607976078987)
(X_106  0.04019607976078987)
(X_107  0.04411764815449715)
(X_108  0.04019607976078987)
(X_109  0.04019607976078987)
(X_110  0.04019607976078987)
(X_111  0.1401960849761963)
(X_112  0.03235294297337532)
(X_113  0.03235294297337532)
(X_114  0.12843137979507446)
(X_115  0.12843137979507446)
(X_116  0.12843137979507446)
(X_117  0.13235294818878174)
(X_118  0.036274511367082596)
(X_119  0.136274516582489)
(X_120  0.03235294297337532)
(X_121  0.03235294297337532)
(X_122  0.03235294297337532)
(X_123  0.03235294297337532)
(X_124  0.03235294297337532)
(X_125  0.03235294297337532)
(X_126  0.03235294297337532)
(X_127  0.03235294297337532)
(X_128  0.16372549533843994)
(X_129  0.15196079015731812)
(X_130  0.14411765336990356)
(X_131  0.1401960849761963)
(X_132  0.1401960849761963)
(X_133  0.136274516582489)
(X_134  0.12843137979507446)
(X_135  0.12058823555707932)
(X_136  0.01666666939854622)
(X_137  0.01666666939854622)
(X_138  0.020588237792253494)
(X_139  0.12843137979507446)
(X_140  0.1401960849761963)
(X_141  0.1401960849761963)
(X_142  0.1401960849761963)
(X_143  0.136274516582489)
(X_144  0.04019607976078987)
(X_145  0.04411764815449715)
(X_146  0.04411764815449715)
(X_147  0.14803922176361084)
(X_148  0.13235294818878174)
(X_149  0.13235294818878174)
(X_150  0.13235294818878174)
(X_151  0.13235294818878174)
(X_152  0.13235294818878174)
(X_153  0.03235294297337532)
(X_154  0.13235294818878174)
(X_155  0.13235294818878174)
(X_156  0.04019607976078987)
(X_157  0.03235294297337532)
(X_158  0.12843137979507446)
(X_159  0.136274516582489)
(X_160  0.1558823585510254)
(X_161  0.0676470622420311)
(X_162  0.0676470622420311)
(X_163  0.16372549533843994)
(X_164  0.05980392172932625)
(X_165  0.0519607849419117)
(X_166  0.04019607976078987)
(X_167  0.12843137979507446)
(X_168  0.04411764815449715)
(X_169  0.04411764815449715)
(X_170  0.1401960849761963)
(X_171  0.1401960849761963)
(X_172  0.14411765336990356)
(X_173  0.14803922176361084)
(X_174  0.0519607849419117)
(X_175  0.0519607849419117)
(X_176  0.136274516582489)
(X_177  0.136274516582489)
(X_178  0.136274516582489)
(X_179  0.136274516582489)
(X_180  0.136274516582489)
(X_181  0.136274516582489)
(X_182  0.136274516582489)
(X_183  0.136274516582489)
(X_184  0.12843137979507446)
(X_185  0.14803922176361084)
(X_186  0.17941176891326904)
(X_187  0.20686274766921997)
(X_188  0.1303921639919281)
(X_189  0.15392157435417175)
(X_190  0.17352941632270813)
(X_191  0.2852941155433655)
(X_192  0.27352941036224365)
(X_193  0.2539215683937073)
(X_194  0.12647059559822083)
(X_195  0.19901961088180542)
(X_196  0.036274511367082596)
(X_197  0.036274511367082596)
(X_198  0.136274516582489)
(X_199  0.036274511367082596)
(X_200  0.136274516582489)
(X_201  0.14411765336990356)
(X_202  0.14803922176361084)
(X_203  0.14803922176361084)
(X_204  0.036274511367082596)
(X_205  0.136274516582489)
(X_206  0.136274516582489)
(X_207  0.136274516582489)
(X_208  0.036274511367082596)
(X_209  0.036274511367082596)
(X_210  0.036274511367082596)
(X_211  0.036274511367082596)
(X_212  0.19509804248809814)
(X_213  0.13823530077934265)
(X_214  0.1931372582912445)
(X_215  0.22058825194835663)
(X_216  0.22843138873577118)
(X_217  0.33627453446388245)
(X_218  0.3598039448261261)
(X_219  0.38333335518836975)
(X_220  0.3558823764324188)
(X_221  0.240196093916893)
(X_222  0.21666668355464935)
(X_223  0.2970588207244873)
(X_224  0.3029411733150482)
(X_225  0.23627452552318573)
(X_226  0.24803923070430756)
(X_227  0.2558823525905609)
(X_228  0.19705882668495178)
(X_229  0.18529412150382996)
(X_230  0.19705882668495178)
(X_231  0.15392157435417175)
(X_232  0.13431373238563538)
(X_233  0.11862745881080627)
(X_234  0.0990196168422699)
(X_235  0.17549020051956177)
(X_236  0.04803921654820442)
(X_237  0.04019607976078987)
(X_238  0.07941177487373352)
(X_239  0.12647059559822083)
(X_240  0.18921568989753723)
(X_241  0.15000000596046448)
(X_242  0.2813725471496582)
(X_243  0.35196080803871155)
(X_244  0.41862747073173523)
(X_245  0.5245097875595093)
(X_246  0.551960825920105)
(X_247  0.4696078598499298)
(X_248  0.457843154668808)
(X_249  0.32647058367729187)
(X_250  0.2872548997402191)
(X_251  0.2558823525905609)
(X_252  0.36176469922065735)
(X_253  0.3225490152835846)
(X_254  0.3186274468898773)
(X_255  0.32647058367729187)
(X_256  0.3911764919757843)
(X_257  0.3715686500072479)
(X_258  0.3598039448261261)
(X_259  0.3401961028575897)
(X_260  0.25196078419685364)
(X_261  0.24411766231060028)
(X_262  0.240196093916893)
(X_263  0.33627453446388245)
(X_264  0.3127451241016388)
(X_265  0.16960784792900085)
(X_266  0.24607843160629272)
(X_267  0.24215686321258545)
(X_268  0.25784313678741455)
(X_269  0.39901962876319885)
(X_270  0.46568629145622253)
(X_271  0.3696078360080719)
(X_272  0.5049019455909729)
(X_273  0.5009803771972656)
(X_274  0.45000001788139343)
(X_275  0.34215685725212097)
(X_276  0.4539215862751007)
(X_277  0.4382353127002716)
(X_278  0.3186274468898773)
(X_279  0.3068627417087555)
(X_280  0.3754902184009552)
(X_281  0.3754902184009552)
(X_282  0.26372548937797546)
(X_283  0.27156862616539)
(X_284  0.29509803652763367)
(X_285  0.36764708161354065)
(X_286  0.3401961028575897)
(X_287  0.3558823764324188)
(X_288  0.25196078419685364)
(X_289  0.22843138873577118)
(X_290  0.2088235467672348)
(X_291  0.20490197837352753)
(X_292  0.18529412150382996)
(X_293  0.1460784375667572)
(X_294  0.114705890417099)
(X_295  0.0990196168422699)
(X_296  0.344117671251297)
(X_297  0.42450979351997375)
(X_298  0.4166666567325592)
(X_299  0.34215685725212097)
(X_300  0.48137256503105164)
(X_301  0.43431374430656433)
(X_302  0.36764708161354065)
(X_303  0.34215685725212097)
(X_304  0.3499999940395355)
(X_305  0.34215685725212097)
(X_306  0.3343137204647064)
(X_307  0.32647058367729187)
(X_308  0.3558823764324188)
(X_309  0.387254923582077)
(X_310  0.2598039209842682)
(X_311  0.26372548937797546)
(X_312  0.31470587849617004)
(X_313  0.27941176295280457)
(X_314  0.33235296607017517)
(X_315  0.36764708161354065)
(X_316  0.25196078419685364)
(X_317  0.32058826088905334)
(X_318  0.28921568393707275)
(X_319  0.27352941036224365)
(X_320  0.2656862735748291)
(X_321  0.15784314274787903)
(X_322  0.16568627953529358)
(X_323  0.2813725471496582)
(X_324  0.457843154668808)
(X_325  0.3735294044017792)
(X_326  0.29509803652763367)
(X_327  0.2598039209842682)
(X_328  0.32647058367729187)
(X_329  0.3029411733150482)
(X_330  0.3598039448261261)
(X_331  0.4225490391254425)
(X_332  0.4225490391254425)
(X_333  0.41470590233802795)
(X_334  0.3029411733150482)
(X_335  0.3950980603694916)
(X_336  0.4480392038822174)
(X_337  0.5754902362823486)
(X_338  0.5401960611343384)
(X_339  0.5362744927406311)
(X_340  0.5715686678886414)
(X_341  0.5284313559532166)
(X_342  0.3735294044017792)
(X_343  0.4049019515514374)
(X_344  0.520588219165802)
(X_345  0.4696078598499298)
(X_346  0.3068627417087555)
(X_347  0.26372548937797546)
(X_348  0.25196078419685364)
(X_349  0.2872548997402191)
(X_350  0.37745097279548645)
(X_351  0.5558823943138123)
(X_352  0.43039217591285706)
(X_353  0.30098041892051697)
(X_354  0.2774509787559509)
(X_355  0.2754901945590973)
(X_356  0.3186274468898773)
(X_357  0.3911764919757843)
(X_358  0.3715686500072479)
(X_359  0.3715686500072479)
(X_360  0.2872548997402191)
(X_361  0.27156862616539)
(X_362  0.24803923070430756)
(X_363  0.240196093916893)
(X_364  0.27941176295280457)
(X_365  0.28333333134651184)
(X_366  0.27156862616539)
(X_367  0.38333335518836975)
(X_368  0.4068627655506134)
(X_369  0.2872548997402191)
(X_370  0.2598039209842682)
(X_371  0.27941176295280457)
(X_372  0.18529412150382996)
(X_373  0.26764705777168274)
(X_374  0.3892156779766083)
(X_375  0.5676470994949341)
(X_376  0.45196080207824707)
(X_377  0.3656862676143646)
(X_378  0.28333333134651184)
(X_379  0.24411766231060028)
(X_380  0.31666669249534607)
(X_381  0.07549020648002625)
(X_382  0.19901961088180542)
(X_383  0.2245098203420639)
(X_384  0.22843138873577118)
(X_385  0.19705882668495178)
(X_386  0.3284313976764679)
(X_387  0.3480392396450043)
(X_388  0.3637255132198334)
(X_389  0.33627453446388245)
(X_390  0.2970588207244873)
(X_391  0.2617647051811218)
(X_392  0.24215686321258545)
(X_393  0.21470588445663452)
(X_394  0.2343137264251709)
(X_395  0.16960784792900085)
(X_396  0.2656862735748291)
(X_397  0.27352941036224365)
(X_398  0.2852941155433655)
(X_399  0.1774509847164154)
(X_400  0.2539215683937073)
(X_401  0.15392157435417175)
(X_402  0.2617647051811218)
(X_403  0.2696078419685364)
(X_404  0.2617647051811218)
(X_405  0.1460784375667572)
(X_406  0.15000000596046448)
(X_407  0.17352941632270813)
(X_408  0.12254902720451355)
(X_409  0.07549020648002625)
(X_410  0.15196079015731812)
(X_411  0.1872549057006836)
(X_412  0.21470588445663452)
(X_413  0.10294118523597717)
(X_414  0.22647058963775635)
(X_415  0.2852941155433655)
(X_416  0.20490197837352753)
(X_417  0.17352941632270813)
(X_418  0.12647059559822083)
(X_419  0.1872549057006836)
(X_420  0.11078432202339172)
(X_421  0.0519607849419117)
(X_422  0.07549020648002625)
(X_423  0.10686275362968445)
(X_424  0.0676470622420311)
(X_425  0.07156863063573837)
(X_426  0.0990196168422699)
(X_427  0.06372549384832382)
(X_428  0.09509804844856262)
(X_429  0.07941177487373352)
(X_430  0.07156863063573837)
(X_431  0.08725491166114807)
(X_432  0.09117648005485535)
(X_433  0.17941176891326904)
(X_434  0.07156863063573837)
(X_435  0.07156863063573837)
(X_436  0.1558823585510254)
(X_437  0.22254902124404907)
(X_438  0.15196079015731812)
(X_439  0.11666666716337204)
(X_440  0.21470588445663452)
(X_441  0.19901961088180542)
(X_442  0.028431374579668045)
(X_443  0.0833333432674408)
(X_444  0.114705890417099)
(X_445  0.09117648005485535)
(X_446  0.06372549384832382)
(X_447  0.14803922176361084)
(X_448  0.1715686321258545)
(X_449  0.16764706373214722)
(X_450  0.16372549533843994)
(X_451  0.15980392694473267)
(X_452  0.1558823585510254)
(X_453  0.15196079015731812)
(X_454  0.14803922176361084)
(X_455  0.14803922176361084)
(X_456  0.136274516582489)
(X_457  0.136274516582489)
(X_458  0.136274516582489)
(X_459  0.136274516582489)
(X_460  0.136274516582489)
(X_461  0.136274516582489)
(X_462  0.136274516582489)
(X_463  0.136274516582489)
(X_464  0.03235294297337532)
(X_465  0.03235294297337532)
(X_466  0.136274516582489)
(X_467  0.136274516582489)
(X_468  0.1401960849761963)
(X_469  0.1401960849761963)
(X_470  0.14411765336990356)
(X_471  0.14411765336990356)
(X_472  0.136274516582489)
(X_473  0.136274516582489)
(X_474  0.13235294818878174)
(X_475  0.13235294818878174)
(X_476  0.04019607976078987)
(X_477  0.036274511367082596)
(X_478  0.136274516582489)
(X_479  0.13235294818878174)
(X_480  0.03235294297337532)
(X_481  0.028431374579668045)
(X_482  0.02450980618596077)
(X_483  0.02450980618596077)
(X_484  0.12843137979507446)
(X_485  0.12843137979507446)
(X_486  0.028431374579668045)
(X_487  0.028431374579668045)
(X_488  0.028431374579668045)
(X_489  0.028431374579668045)
(X_490  0.028431374579668045)
(X_491  0.028431374579668045)
(X_492  0.020588237792253494)
(X_493  0.020588237792253494)
(X_494  0.12450980395078659)
(X_495  0.12450980395078659)
(X_496  0.12450980395078659)
(X_497  0.12843137979507446)
(X_498  0.12843137979507446)
(X_499  0.028431374579668045)
(X_500  0.028431374579668045)
(X_501  0.028431374579668045)
(X_502  0.028431374579668045)
(X_503  0.02450980618596077)
(X_504  0.12450980395078659)
(X_505  0.02450980618596077)
(X_506  0.02450980618596077)
(X_507  0.02450980618596077)
(X_508  0.02450980618596077)
(X_509  0.02450980618596077)
(X_510  0.02450980618596077)
(X_511  0.12450980395078659)
(X_512  0.01666666939854622)
(X_513  0.01666666939854622)
(X_514  0.01666666939854622)
(X_515  0.01666666939854622)
(X_516  0.01666666939854622)
(X_517  0.01666666939854622)
(X_518  0.01666666939854622)
(X_519  0.01666666939854622)
(X_520  0.004901961423456669)
(X_521  0.004901961423456669)
(X_522  0.008823529817163944)
(X_523  0.008823529817163944)
(X_524  0.008823529817163944)
(X_525  0.012745101936161518)
(X_526  0.012745101936161518)
(X_527  0.11274509876966476)
(X_528  0.020588237792253494)
(X_529  0.020588237792253494)
(X_530  0.01666666939854622)
(X_531  0.11666666716337204)
(X_532  0.11274509876966476)
(X_533  0.11274509876966476)
(X_534  0.11274509876966476)
(X_535  0.11666666716337204)
(X_536  0.11666666716337204)
(X_537  0.020588237792253494)
(X_538  0.020588237792253494)
(X_539  0.020588237792253494)
(X_540  0.008823529817163944)
(X_541  0.008823529817163944)
(X_542  0.008823529817163944)
(X_543  0.008823529817163944)
(X_544  0.10882353037595749)
(X_545  0.10882353037595749)
(X_546  0.10882353037595749)
(X_547  0.008823529817163944)
(X_548  0.10098039358854294)
(X_549  0.10098039358854294)
(X_550  0.10098039358854294)
(X_551  0.10098039358854294)
(X_552  0.10098039358854294)
(X_553  0.10098039358854294)
(X_554  0.10098039358854294)
(X_555  0.0009803927969187498)
(X_556  0.10882353037595749)
(X_557  0.008823529817163944)
(X_558  0.008823529817163944)
(X_559  0.10882353037595749)
(X_560  0.09313725680112839)
(X_561  0.09313725680112839)
(X_562  0.09313725680112839)
(X_563  0.09705882519483566)
(X_564  0.10098039358854294)
(X_565  0.10098039358854294)
(X_566  0.004901961423456669)
(X_567  0.004901961423456669)
(X_568  0.008823529817163944)
(X_569  0.10882353037595749)
(X_570  0.10882353037595749)
(X_571  0.10882353037595749)
(X_572  0.008823529817163944)
(X_573  0.008823529817163944)
(X_574  0.008823529817163944)
(X_575  0.008823529817163944)
(X_576  0.0009803927969187498)
(X_577  0.0009803927969187498)
(X_578  0.0009803927969187498)
(X_579  0.0009803927969187498)
(X_580  0.10098039358854294)
(X_581  0.09705882519483566)
(X_582  0.09705882519483566)
(X_583  0.09705882519483566)
(X_584  0.10098039358854294)
(X_585  0.0009803927969187498)
(X_586  0.0009803927969187498)
(X_587  0.0009803927969187498)
(X_588  0.09705882519483566)
(X_589  -0.0029411755967885256)
(X_590  -0.0029411755967885256)
(X_591  0.10098039358854294)
(X_592  0.004901961423456669)
(X_593  0.004901961423456669)
(X_594  0.008823529817163944)
(X_595  0.10882353037595749)
(X_596  0.10490196198225021)
(X_597  0.10490196198225021)
(X_598  0.004901961423456669)
(X_599  0.004901961423456669)
(X_600  0.004901961423456669)
(X_601  0.004901961423456669)
(X_602  0.004901961423456669)
(X_603  0.004901961423456669)
(X_604  0.004901961423456669)
(X_605  0.10490196198225021)
(X_606  0.10098039358854294)
(X_607  0.10098039358854294)
(X_608  0.10098039358854294)
(X_609  0.09705882519483566)
(X_610  0.09705882519483566)
(X_611  0.09705882519483566)
(X_612  -0.006862743757665157)
(X_613  -0.006862743757665157)
(X_614  0.09705882519483566)
(X_615  0.09705882519483566)
(X_616  0.10490196198225021)
(X_617  0.10490196198225021)
(X_618  0.008823529817163944)
(X_619  0.008823529817163944)
(X_620  0.008823529817163944)
(X_621  0.10882353037595749)
(X_622  0.10882353037595749)
(X_623  0.11274509876966476)
(X_624  0.10098039358854294)
(X_625  0.10098039358854294)
(X_626  0.10098039358854294)
(X_627  0.10098039358854294)
(X_628  0.0009803927969187498)
(X_629  0.0009803927969187498)
(X_630  0.10098039358854294)
(X_631  0.10098039358854294)
(X_632  0.004901961423456669)
(X_633  0.004901961423456669)
(X_634  0.0009803927969187498)
(X_635  0.0009803927969187498)
(X_636  0.09705882519483566)
(X_637  0.09705882519483566)
(X_638  0.09705882519483566)
(X_639  0.09313725680112839)
(X_640  -0.006862743757665157)
(X_641  -0.006862743757665157)
(X_642  0.09313725680112839)
(X_643  0.09705882519483566)
(X_644  0.09313725680112839)
(X_645  -0.006862743757665157)
(X_646  0.09313725680112839)
(X_647  0.09313725680112839)
(X_648  0.09313725680112839)
(X_649  -0.006862743757665157)
(X_650  -0.006862743757665157)
(X_651  -0.006862743757665157)
(X_652  -0.0029411755967885256)
(X_653  0.09705882519483566)
(X_654  0.09705882519483566)
(X_655  -0.0029411755967885256)
(X_656  -0.0029411755967885256)
(X_657  -0.0029411755967885256)
(X_658  -0.0029411755967885256)
(X_659  -0.0029411755967885256)
(X_660  0.10490196198225021)
(X_661  0.10098039358854294)
(X_662  0.10098039358854294)
(X_663  0.09705882519483566)
(X_664  -0.0029411755967885256)
(X_665  -0.006862743757665157)
(X_666  -0.006862743757665157)
(X_667  -0.006862743757665157)
(X_668  -0.006862743757665157)
(X_669  -0.006862743757665157)
(X_670  -0.006862743757665157)
(X_671  -0.0029411755967885256)
(X_672  0.10882353037595749)
(X_673  0.004901961423456669)
(X_674  0.004901961423456669)
(X_675  -0.0029411755967885256)
(X_676  -0.006862743757665157)
(X_677  0.08921568840742111)
(X_678  0.08529412001371384)
(X_679  0.08529412001371384)
(X_680  -0.006862743757665157)
(X_681  0.09313725680112839)
(X_682  0.09313725680112839)
(X_683  0.09705882519483566)
(X_684  0.09705882519483566)
(X_685  0.0009803927969187498)
(X_686  0.0009803927969187498)
(X_687  0.0009803927969187498)
(X_688  0.08921568840742111)
(X_689  0.08921568840742111)
(X_690  -0.006862743757665157)
(X_691  -0.006862743757665157)
(X_692  0.09313725680112839)
(X_693  0.09705882519483566)
(X_694  -0.0029411755967885256)
(X_695  -0.0029411755967885256)
(X_696  0.08529412001371384)
(X_697  0.08921568840742111)
(X_698  0.09705882519483566)
(X_699  0.10490196198225021)
(X_700  0.08529412001371384)
(X_701  -0.010784312151372433)
(X_702  -0.006862743757665157)
(X_703  -0.0029411755967885256)
(X_704  0.004901961423456669)
(X_705  0.008823529817163944)
(X_706  0.012745101936161518)
(X_707  0.01666666939854622)
(X_708  0.01666666939854622)
(X_709  0.020588237792253494)
(X_710  0.028431374579668045)
(X_711  0.136274516582489)
(X_712  0.14803922176361084)
(X_713  0.05980392172932625)
(X_714  0.06372549384832382)
(X_715  0.07156863063573837)
(X_716  0.1872549057006836)
(X_717  0.19117647409439087)
(X_718  0.0990196168422699)
(X_719  0.11078432202339172)
(X_720  0.2186274528503418)
(X_721  0.23039215803146362)
(X_722  0.23823529481887817)
(X_723  0.24215686321258545)
(X_724  0.2696078419685364)
(X_725  0.2774509787559509)
(X_726  0.28921568393707275)
(X_727  0.30098041892051697)
(X_728  0.7049019932746887)
(X_729  0.6088235378265381)
(X_730  0.6166666746139526)
(X_731  0.7284314036369324)
(X_732  0.7362745404243469)
(X_733  0.7480392456054688)
(X_734  0.7558823823928833)
(X_735  0.7598039507865906)
(X_736  0.7990196347236633)
(X_737  0.8029412031173706)
(X_738  0.8107843399047852)
(X_739  0.822549045085907)
(X_740  0.8343137502670288)
(X_741  0.8460784554481506)
(X_742  0.8539215922355652)
(X_743  0.8578431606292725)
(X_744  0.7970588207244873)
(X_745  0.9009804129600525)
(X_746  0.9127451181411743)
(X_747  0.8245097994804382)
(X_748  0.8362745046615601)
(X_749  0.9480392336845398)
(X_750  0.8558823466300964)
(X_751  0.8598039150238037)
(X_752  0.9754902124404907)
(X_753  0.9833333492279053)
(X_754  0.9911764860153198)
(X_755  1.0029411315917969)
(X_756  1.034313678741455)
(X_757  0.9382352828979492)
(X_758  0.9382352828979492)
(X_759  0.9421568512916565)
(X_760  0.9460784196853638)
(X_761  0.949999988079071)
(X_762  0.949999988079071)
(X_763  1.0499999523162842)
(X_764  0.949999988079071)
(X_765  1.0499999523162842)
(X_766  0.949999988079071)
(X_767  0.949999988079071)
(X_768  0.949999988079071)
(X_769  0.949999988079071)
(X_770  0.949999988079071)
(X_771  0.949999988079071)
(X_772  0.9382352828979492)
(X_773  0.9421568512916565)
(X_774  0.9421568512916565)
(X_775  0.9460784196853638)
(X_776  1.0499999523162842)
(X_777  0.949999988079071)
(X_778  0.949999988079071)
(X_779  0.949999988079071)
(X_780  0.9460784196853638)
(X_781  0.949999988079071)
(X_782  0.949999988079071)
(X_783  0.949999988079071)
(Y_0 -29.31937026977539)
(Y_1 42.431575775146484)
(Y_2 -21.49077606201172)
(Y_3 11.320886611938477))