((X_0  1.0499999523162842)
(X_1  0.9460784196853638)
(X_2  0.9421568512916565)
(X_3  0.949999988079071)
(X_4  0.949999988079071)
(X_5  0.949999988079071)
(X_6  0.949999988079071)
(X_7  0.9421568512916565)
(X_8  1.0499999523162842)
(X_9  1.0499999523162842)
(X_10  1.0499999523162842)
(X_11  1.0499999523162842)
(X_12  1.0499999523162842)
(X_13  1.0499999523162842)
(X_14  1.0421568155288696)
(X_15  0.9343137145042419)
(X_16  0.949999988079071)
(X_17  0.949999988079071)
(X_18  0.9421568512916565)
(X_19  0.9382352828979492)
(X_20  1.0382353067398071)
(X_21  1.0421568155288696)
(X_22  1.0499999523162842)
(X_23  0.949999988079071)
(X_24  1.0460784435272217)
(X_25  0.9460784196853638)
(X_26  0.9421568512916565)
(X_27  0.9421568512916565)
(X_28  1.0499999523162842)
(X_29  1.0460784435272217)
(X_30  0.9343137145042419)
(X_31  0.9343137145042419)
(X_32  0.9421568512916565)
(X_33  0.949999988079071)
(X_34  0.949999988079071)
(X_35  1.0499999523162842)
(X_36  0.9303921461105347)
(X_37  0.9303921461105347)
(X_38  0.9264705777168274)
(X_39  0.9303921461105347)
(X_40  0.9421568512916565)
(X_41  1.0499999523162842)
(X_42  1.0499999523162842)
(X_43  1.0499999523162842)
(X_44  1.0499999523162842)
(X_45  1.0499999523162842)
(X_46  1.0499999523162842)
(X_47  0.9460784196853638)
(X_48  1.0421568155288696)
(X_49  0.9382352828979492)
(X_50  0.9382352828979492)
(X_51  0.9382352828979492)
(X_52  1.0499999523162842)
(X_53  1.0499999523162842)
(X_54  1.0499999523162842)
(X_55  1.0499999523162842)
(X_56  1.0303921699523926)
(X_57  0.9343137145042419)
(X_58  0.9343137145042419)
(X_59  0.9343137145042419)
(X_60  0.9343137145042419)
(X_61  0.9382352828979492)
(X_62  0.949999988079071)
(X_63  0.949999988079071)
(X_64  0.949999988079071)
(X_65  0.949999988079071)
(X_66  0.949999988079071)
(X_67  0.949999988079071)
(X_68  1.0499999523162842)
(X_69  0.949999988079071)
(X_70  0.9421568512916565)
(X_71  0.9343137145042419)
(X_72  0.9343137145042419)
(X_73  0.9382352828979492)
(X_74  0.949999988079071)
(X_75  0.949999988079071)
(X_76  0.949999988079071)
(X_77  1.0499999523162842)
(X_78  1.0499999523162842)
(X_79  1.0499999523162842)
(X_80  1.0382353067398071)
(X_81  1.0421568155288696)
(X_82  0.949999988079071)
(X_83  1.0499999523162842)
(X_84  0.38333335518836975)
(X_85  0.4068627655506134)
(X_86  0.44607844948768616)
(X_87  0.4735294282436371)
(X_88  0.49705883860588074)
(X_89  0.4205882251262665)
(X_90  0.4480392038822174)
(X_91  0.47156864404678345)
(X_92  0.5990196466445923)
(X_93  0.5264706015586853)
(X_94  0.5774509906768799)
(X_95  0.6245098114013672)
(X_96  0.7637255191802979)
(X_97  0.795098066329956)
(X_98  0.8147059082984924)
(X_99  0.8264706134796143)
(X_100  0.865686297416687)
(X_101  0.8774510025978088)
(X_102  0.8970588445663452)
(X_103  0.9205882549285889)
(X_104  0.8441176414489746)
(X_105  0.8676470518112183)
(X_106  0.8833333253860474)
(X_107  0.8911764621734619)
(X_108  0.8911764621734619)
(X_109  0.9029411673545837)
(X_110  0.9186274409294128)
(X_111  0.9343137145042419)
(X_112  0.04019607976078987)
(X_113  0.14411765336990356)
(X_114  0.14803922176361084)
(X_115  0.1401960849761963)
(X_116  0.036274511367082596)
(X_117  0.04411764815449715)
(X_118  0.07156863063573837)
(X_119  0.09117648005485535)
(X_120  0.17549020051956177)
(X_121  0.0833333432674408)
(X_122  0.09117648005485535)
(X_123  0.09509804844856262)
(X_124  0.19117647409439087)
(X_125  0.09117648005485535)
(X_126  0.0990196168422699)
(X_127  0.11078432202339172)
(X_128  0.23823529481887817)
(X_129  0.24215686321258545)
(X_130  0.2539215683937073)
(X_131  0.27352941036224365)
(X_132  0.2970588207244873)
(X_133  0.3245098292827606)
(X_134  0.3480392396450043)
(X_135  0.3637255132198334)
(X_136  0.45000001788139343)
(X_137  0.457843154668808)
(X_138  0.4735294282436371)
(X_139  0.4892157018184662)
(X_140  0.19901961088180542)
(X_141  0.1872549057006836)
(X_142  0.16372549533843994)
(X_143  0.14411765336990356)
(X_144  0.136274516582489)
(X_145  0.0519607849419117)
(X_146  0.07941177487373352)
(X_147  0.19901961088180542)
(X_148  0.18333333730697632)
(X_149  0.18333333730697632)
(X_150  0.07549020648002625)
(X_151  0.06372549384832382)
(X_152  0.1558823585510254)
(X_153  0.16372549533843994)
(X_154  0.19117647409439087)
(X_155  0.2186274528503418)
(X_156  0.05980392172932625)
(X_157  0.1558823585510254)
(X_158  0.14803922176361084)
(X_159  0.14803922176361084)
(X_160  0.15196079015731812)
(X_161  0.06372549384832382)
(X_162  0.07941177487373352)
(X_163  0.19117647409439087)
(X_164  0.14411765336990356)
(X_165  0.04803921654820442)
(X_166  0.05588235333561897)
(X_167  0.15980392694473267)
(X_168  0.10490196198225021)
(X_169  0.12450980395078659)
(X_170  0.0676470622420311)
(X_171  0.22254902124404907)
(X_172  0.2813725471496582)
(X_173  0.23235295712947845)
(X_174  0.26372548937797546)
(X_175  0.2754901945590973)
(X_176  0.3480392396450043)
(X_177  0.3480392396450043)
(X_178  0.22843138873577118)
(X_179  0.2813725471496582)
(X_180  0.2186274528503418)
(X_181  0.05980392172932625)
(X_182  0.02450980618596077)
(X_183  0.012745101936161518)
(X_184  0.17941176891326904)
(X_185  0.17549020051956177)
(X_186  0.16764706373214722)
(X_187  0.15980392694473267)
(X_188  0.1558823585510254)
(X_189  0.05588235333561897)
(X_190  0.05588235333561897)
(X_191  0.1558823585510254)
(X_192  0.17549020051956177)
(X_193  0.17549020051956177)
(X_194  0.17549020051956177)
(X_195  0.07549020648002625)
(X_196  0.06372549384832382)
(X_197  0.20686274766921997)
(X_198  0.2813725471496582)
(X_199  0.2598039209842682)
(X_200  0.4107843339443207)
(X_201  0.41470590233802795)
(X_202  0.28333333134651184)
(X_203  0.24803923070430756)
(X_204  0.2754901945590973)
(X_205  0.31078431010246277)
(X_206  0.34215685725212097)
(X_207  0.43039217591285706)
(X_208  0.26372548937797546)
(X_209  0.1774509847164154)
(X_210  0.10294118523597717)
(X_211  0.16372549533843994)
(X_212  0.15196079015731812)
(X_213  0.1558823585510254)
(X_214  0.15980392694473267)
(X_215  0.15980392694473267)
(X_216  0.15980392694473267)
(X_217  0.15980392694473267)
(X_218  0.1558823585510254)
(X_219  0.15196079015731812)
(X_220  0.14803922176361084)
(X_221  0.14411765336990356)
(X_222  0.04411764815449715)
(X_223  0.14411765336990356)
(X_224  0.18529412150382996)
(X_225  0.26764705777168274)
(X_226  0.4264706075191498)
(X_227  0.4107843339443207)
(X_228  0.27941176295280457)
(X_229  0.29901960492134094)
(X_230  0.3578431308269501)
(X_231  0.4009803831577301)
(X_232  0.551960825920105)
(X_233  0.6107843518257141)
(X_234  0.6264706254005432)
(X_235  0.46764707565307617)
(X_236  0.4852941334247589)
(X_237  0.31078431010246277)
(X_238  0.21666668355464935)
(X_239  0.13431373238563538)
(X_240  0.0833333432674408)
(X_241  0.16764706373214722)
(X_242  0.1558823585510254)
(X_243  0.16764706373214722)
(X_244  0.17549020051956177)
(X_245  0.1715686321258545)
(X_246  0.15980392694473267)
(X_247  0.05588235333561897)
(X_248  0.04019607976078987)
(X_249  0.036274511367082596)
(X_250  0.04411764815449715)
(X_251  0.16372549533843994)
(X_252  0.29509803652763367)
(X_253  0.3029411733150482)
(X_254  0.2911764681339264)
(X_255  0.3715686500072479)
(X_256  0.3950980603694916)
(X_257  0.47745099663734436)
(X_258  0.5676470994949341)
(X_259  0.6225490570068359)
(X_260  0.479411780834198)
(X_261  0.5068627595901489)
(X_262  0.6264706254005432)
(X_263  0.6147059202194214)
(X_264  0.5833333730697632)
(X_265  0.5362744927406311)
(X_266  0.46568629145622253)
(X_267  0.40294119715690613)
(X_268  0.3558823764324188)
(X_269  0.3088235557079315)
(X_270  0.24215686321258545)
(X_271  0.0833333432674408)
(X_272  0.04411764815449715)
(X_273  0.03235294297337532)
(X_274  0.14411765336990356)
(X_275  0.15980392694473267)
(X_276  0.07941177487373352)
(X_277  0.07156863063573837)
(X_278  0.0676470622420311)
(X_279  0.0676470622420311)
(X_280  0.43039217591285706)
(X_281  0.40294119715690613)
(X_282  0.26764705777168274)
(X_283  0.26764705777168274)
(X_284  0.33039215207099915)
(X_285  0.520588219165802)
(X_286  0.5911765098571777)
(X_287  0.6186274886131287)
(X_288  0.5009803771972656)
(X_289  0.39313724637031555)
(X_290  0.41274508833885193)
(X_291  0.45588237047195435)
(X_292  0.47156864404678345)
(X_293  0.4480392038822174)
(X_294  0.41274508833885193)
(X_295  0.3892156779766083)
(X_296  0.4539215862751007)
(X_297  0.3382352888584137)
(X_298  0.29901960492134094)
(X_299  0.24411766231060028)
(X_300  0.2852941155433655)
(X_301  0.24215686321258545)
(X_302  0.114705890417099)
(X_303  0.10294118523597717)
(X_304  0.08725491166114807)
(X_305  0.0990196168422699)
(X_306  0.11078432202339172)
(X_307  0.12647059559822083)
(X_308  0.3754902184009552)
(X_309  0.387254923582077)
(X_310  0.4107843339443207)
(X_311  0.34607842564582825)
(X_312  0.37745097279548645)
(X_313  0.3970588147640228)
(X_314  0.3892156779766083)
(X_315  0.3696078360080719)
(X_316  0.3539215624332428)
(X_317  0.33039215207099915)
(X_318  0.3499999940395355)
(X_319  0.5127450823783875)
(X_320  0.5401960611343384)
(X_321  0.4205882251262665)
(X_322  0.4166666567325592)
(X_323  0.44019606709480286)
(X_324  0.29509803652763367)
(X_325  0.31078431010246277)
(X_326  0.32647058367729187)
(X_327  0.3343137204647064)
(X_328  0.4382353127002716)
(X_329  0.43431374430656433)
(X_330  0.4107843339443207)
(X_331  0.38333335518836975)
(X_332  0.31078431010246277)
(X_333  0.32647058367729187)
(X_334  0.3343137204647064)
(X_335  0.32647058367729187)
(X_336  0.3480392396450043)
(X_337  0.40294119715690613)
(X_338  0.4696078598499298)
(X_339  0.5009803771972656)
(X_340  0.4735294282436371)
(X_341  0.4225490391254425)
(X_342  0.38333335518836975)
(X_343  0.27156862616539)
(X_344  0.4068627655506134)
(X_345  0.38333335518836975)
(X_346  0.3068627417087555)
(X_347  0.3656862676143646)
(X_348  0.37745097279548645)
(X_349  0.3499999940395355)
(X_350  0.3696078360080719)
(X_351  0.5245097875595093)
(X_352  0.44607844948768616)
(X_353  0.41862747073173523)
(X_354  0.3715686500072479)
(X_355  0.33235296607017517)
(X_356  0.344117671251297)
(X_357  0.3754902184009552)
(X_358  0.3794117867946625)
(X_359  0.3637255132198334)
(X_360  0.2598039209842682)
(X_361  0.2911764681339264)
(X_362  0.31078431010246277)
(X_363  0.3029411733150482)
(X_364  0.27941176295280457)
(X_365  0.3186274468898773)
(X_366  0.3578431308269501)
(X_367  0.45000001788139343)
(X_368  0.387254923582077)
(X_369  0.33235296607017517)
(X_370  0.23235295712947845)
(X_371  0.26372548937797546)
(X_372  0.240196093916893)
(X_373  0.22843138873577118)
(X_374  0.24803923070430756)
(X_375  0.387254923582077)
(X_376  0.387254923582077)
(X_377  0.3637255132198334)
(X_378  0.2872548997402191)
(X_379  0.3382352888584137)
(X_380  0.5401960611343384)
(X_381  0.5166666507720947)
(X_382  0.457843154668808)
(X_383  0.29901960492134094)
(X_384  0.2911764681339264)
(X_385  0.31470587849617004)
(X_386  0.3186274468898773)
(X_387  0.2911764681339264)
(X_388  0.4421568810939789)
(X_389  0.4892157018184662)
(X_390  0.4205882251262665)
(X_391  0.4205882251262665)
(X_392  0.41470590233802795)
(X_393  0.41470590233802795)
(X_394  0.4107843339443207)
(X_395  0.3911764919757843)
(X_396  0.3401961028575897)
(X_397  0.2970588207244873)
(X_398  0.3127451241016388)
(X_399  0.35196080803871155)
(X_400  0.3558823764324188)
(X_401  0.344117671251297)
(X_402  0.3480392396450043)
(X_403  0.36764708161354065)
(X_404  0.3637255132198334)
(X_405  0.3480392396450043)
(X_406  0.25196078419685364)
(X_407  0.26764705777168274)
(X_408  0.3186274468898773)
(X_409  0.3813725411891937)
(X_410  0.4323529303073883)
(X_411  0.5441176295280457)
(X_412  0.5598039627075195)
(X_413  0.5911765098571777)
(X_414  0.5990196466445923)
(X_415  0.5754902362823486)
(X_416  0.45196080207824707)
(X_417  0.48725491762161255)
(X_418  0.48725491762161255)
(X_419  0.44019606709480286)
(X_420  0.3382352888584137)
(X_421  0.31470587849617004)
(X_422  0.40294119715690613)
(X_423  0.29509803652763367)
(X_424  0.26764705777168274)
(X_425  0.2245098203420639)
(X_426  0.3088235557079315)
(X_427  0.32058826088905334)
(X_428  0.24803923070430756)
(X_429  0.33235296607017517)
(X_430  0.21666668355464935)
(X_431  0.22058825194835663)
(X_432  0.22058825194835663)
(X_433  0.3088235557079315)
(X_434  0.18921568989753723)
(X_435  0.17352941632270813)
(X_436  0.16568627953529358)
(X_437  0.26372548937797546)
(X_438  0.4382353127002716)
(X_439  0.4421568810939789)
(X_440  0.4264706075191498)
(X_441  0.4382353127002716)
(X_442  0.34215685725212097)
(X_443  0.33039215207099915)
(X_444  0.27156862616539)
(X_445  0.29901960492134094)
(X_446  0.2911764681339264)
(X_447  0.33235296607017517)
(X_448  0.25)
(X_449  0.2343137264251709)
(X_450  0.1617647111415863)
(X_451  0.22058825194835663)
(X_452  0.24411766231060028)
(X_453  0.22058825194835663)
(X_454  0.2088235467672348)
(X_455  0.22843138873577118)
(X_456  0.344117671251297)
(X_457  0.33235296607017517)
(X_458  0.3127451241016388)
(X_459  0.29313725233078003)
(X_460  0.2696078419685364)
(X_461  0.23823529481887817)
(X_462  0.20686274766921997)
(X_463  0.0833333432674408)
(X_464  0.08725491166114807)
(X_465  0.10686275362968445)
(X_466  0.23823529481887817)
(X_467  0.27352941036224365)
(X_468  0.2970588207244873)
(X_469  0.30490198731422424)
(X_470  0.30490198731422424)
(X_471  0.30490198731422424)
(X_472  0.27352941036224365)
(X_473  0.2656862735748291)
(X_474  0.25)
(X_475  0.23823529481887817)
(X_476  0.12647059559822083)
(X_477  0.10294118523597717)
(X_478  0.21078431606292725)
(X_479  0.25)
(X_480  0.16568627953529358)
(X_481  0.15000000596046448)
(X_482  0.1460784375667572)
(X_483  0.16960784792900085)
(X_484  0.2539215683937073)
(X_485  0.24607843160629272)
(X_486  0.13431373238563538)
(X_487  0.12254902720451355)
(X_488  0.10686275362968445)
(X_489  0.08725491166114807)
(X_490  0.05980392172932625)
(X_491  0.04411764815449715)
(X_492  0.05980392172932625)
(X_493  0.07156863063573837)
(X_494  0.09509804844856262)
(X_495  0.11078432202339172)
(X_496  0.2186274528503418)
(X_497  0.2186274528503418)
(X_498  0.21078431606292725)
(X_499  0.2029411792755127)
(X_500  0.24215686321258545)
(X_501  0.14215686917304993)
(X_502  0.13823530077934265)
(X_503  0.14215686917304993)
(X_504  0.12254902720451355)
(X_505  0.19117647409439087)
(X_506  0.17941176891326904)
(X_507  0.19901961088180542)
(X_508  0.10686275362968445)
(X_509  0.09509804844856262)
(X_510  0.0990196168422699)
(X_511  0.12254902720451355)
(X_512  0.09117648005485535)
(X_513  0.08725491166114807)
(X_514  0.0833333432674408)
(X_515  0.07941177487373352)
(X_516  0.07941177487373352)
(X_517  0.07156863063573837)
(X_518  0.05588235333561897)
(X_519  0.04411764815449715)
(X_520  0.05588235333561897)
(X_521  0.06372549384832382)
(X_522  0.07156863063573837)
(X_523  0.07941177487373352)
(X_524  0.07549020648002625)
(X_525  0.16372549533843994)
(X_526  0.15196079015731812)
(X_527  0.14411765336990356)
(X_528  0.07941177487373352)
(X_529  0.08725491166114807)
(X_530  0.09509804844856262)
(X_531  0.10294118523597717)
(X_532  0.2029411792755127)
(X_533  0.17549020051956177)
(X_534  0.16372549533843994)
(X_535  0.1715686321258545)
(X_536  0.07549020648002625)
(X_537  0.07156863063573837)
(X_538  0.07549020648002625)
(X_539  0.09117648005485535)
(X_540  0.0676470622420311)
(X_541  0.0676470622420311)
(X_542  0.16764706373214722)
(X_543  0.1715686321258545)
(X_544  0.07549020648002625)
(X_545  0.07549020648002625)
(X_546  0.0676470622420311)
(X_547  0.05980392172932625)
(X_548  0.1558823585510254)
(X_549  0.15980392694473267)
(X_550  0.0676470622420311)
(X_551  0.0676470622420311)
(X_552  0.16764706373214722)
(X_553  0.15980392694473267)
(X_554  0.15196079015731812)
(X_555  0.04803921654820442)
(X_556  0.14411765336990356)
(X_557  0.14803922176361084)
(X_558  0.1558823585510254)
(X_559  0.16372549533843994)
(X_560  0.15196079015731812)
(X_561  0.036274511367082596)
(X_562  0.13235294818878174)
(X_563  0.04411764815449715)
(X_564  0.04803921654820442)
(X_565  0.04803921654820442)
(X_566  0.04411764815449715)
(X_567  0.04803921654820442)
(X_568  0.14411765336990356)
(X_569  0.1401960849761963)
(X_570  0.1401960849761963)
(X_571  0.14411765336990356)
(X_572  0.0519607849419117)
(X_573  0.05588235333561897)
(X_574  0.0519607849419117)
(X_575  0.04411764815449715)
(X_576  0.04019607976078987)
(X_577  0.04019607976078987)
(X_578  0.04411764815449715)
(X_579  0.14411765336990356)
(X_580  0.14411765336990356)
(X_581  0.1401960849761963)
(X_582  0.136274516582489)
(X_583  0.136274516582489)
(X_584  0.04019607976078987)
(X_585  0.04411764815449715)
(X_586  0.0519607849419117)
(X_587  0.05980392172932625)
(X_588  0.12058823555707932)
(X_589  0.01666666939854622)
(X_590  0.020588237792253494)
(X_591  0.028431374579668045)
(X_592  0.04019607976078987)
(X_593  0.04019607976078987)
(X_594  0.136274516582489)
(X_595  0.13235294818878174)
(X_596  0.13235294818878174)
(X_597  0.028431374579668045)
(X_598  0.02450980618596077)
(X_599  0.02450980618596077)
(X_600  0.03235294297337532)
(X_601  0.036274511367082596)
(X_602  0.03235294297337532)
(X_603  0.028431374579668045)
(X_604  0.136274516582489)
(X_605  0.036274511367082596)
(X_606  0.13235294818878174)
(X_607  0.12843137979507446)
(X_608  0.12450980395078659)
(X_609  0.12450980395078659)
(X_610  0.12058823555707932)
(X_611  0.12058823555707932)
(X_612  0.02450980618596077)
(X_613  0.03235294297337532)
(X_614  0.1401960849761963)
(X_615  0.14803922176361084)
(X_616  0.12450980395078659)
(X_617  0.12058823555707932)
(X_618  0.020588237792253494)
(X_619  0.020588237792253494)
(X_620  0.03235294297337532)
(X_621  0.1401960849761963)
(X_622  0.04019607976078987)
(X_623  0.03235294297337532)
(X_624  0.12843137979507446)
(X_625  0.12450980395078659)
(X_626  0.11666666716337204)
(X_627  0.12058823555707932)
(X_628  0.028431374579668045)
(X_629  0.03235294297337532)
(X_630  0.028431374579668045)
(X_631  0.12450980395078659)
(X_632  0.1401960849761963)
(X_633  0.136274516582489)
(X_634  0.13235294818878174)
(X_635  0.12843137979507446)
(X_636  0.12450980395078659)
(X_637  0.12450980395078659)
(X_638  0.12843137979507446)
(X_639  0.12843137979507446)
(X_640  0.11274509876966476)
(X_641  0.12058823555707932)
(X_642  0.12450980395078659)
(X_643  0.13235294818878174)
(X_644  0.12058823555707932)
(X_645  0.11666666716337204)
(X_646  0.10490196198225021)
(X_647  0.10098039358854294)
(X_648  0.10882353037595749)
(X_649  0.12450980395078659)
(X_650  0.12843137979507446)
(X_651  0.12058823555707932)
(X_652  0.01666666939854622)
(X_653  0.012745101936161518)
(X_654  0.004901961423456669)
(X_655  0.008823529817163944)
(X_656  0.01666666939854622)
(X_657  0.02450980618596077)
(X_658  0.02450980618596077)
(X_659  0.020588237792253494)
(X_660  0.12058823555707932)
(X_661  0.12058823555707932)
(X_662  0.11666666716337204)
(X_663  0.11666666716337204)
(X_664  0.020588237792253494)
(X_665  0.028431374579668045)
(X_666  0.036274511367082596)
(X_667  0.04019607976078987)
(X_668  0.03235294297337532)
(X_669  0.03235294297337532)
(X_670  0.036274511367082596)
(X_671  0.036274511367082596)
(X_672  0.11274509876966476)
(X_673  0.012745101936161518)
(X_674  0.012745101936161518)
(X_675  0.11274509876966476)
(X_676  0.11274509876966476)
(X_677  0.11274509876966476)
(X_678  0.11274509876966476)
(X_679  0.11274509876966476)
(X_680  0.012745101936161518)
(X_681  0.11274509876966476)
(X_682  0.012745101936161518)
(X_683  0.012745101936161518)
(X_684  0.11274509876966476)
(X_685  0.012745101936161518)
(X_686  0.012745101936161518)
(X_687  0.012745101936161518)
(X_688  0.11666666716337204)
(X_689  0.11274509876966476)
(X_690  0.008823529817163944)
(X_691  0.012745101936161518)
(X_692  0.12058823555707932)
(X_693  0.12058823555707932)
(X_694  0.012745101936161518)
(X_695  0.10490196198225021)
(X_696  0.12058823555707932)
(X_697  0.12058823555707932)
(X_698  0.12058823555707932)
(X_699  0.12058823555707932)
(X_700  0.10882353037595749)
(X_701  0.10882353037595749)
(X_702  0.10882353037595749)
(X_703  0.10882353037595749)
(X_704  0.10882353037595749)
(X_705  0.008823529817163944)
(X_706  0.008823529817163944)
(X_707  0.008823529817163944)
(X_708  0.008823529817163944)
(X_709  0.008823529817163944)
(X_710  0.008823529817163944)
(X_711  0.008823529817163944)
(X_712  0.008823529817163944)
(X_713  0.008823529817163944)
(X_714  0.008823529817163944)
(X_715  0.008823529817163944)
(X_716  0.11274509876966476)
(X_717  0.008823529817163944)
(X_718  0.008823529817163944)
(X_719  0.012745101936161518)
(X_720  0.01666666939854622)
(X_721  0.020588237792253494)
(X_722  0.11274509876966476)
(X_723  0.10490196198225021)
(X_724  0.11274509876966476)
(X_725  0.11274509876966476)
(X_726  0.11274509876966476)
(X_727  0.11274509876966476)
(X_728  0.10490196198225021)
(X_729  0.10490196198225021)
(X_730  0.10490196198225021)
(X_731  0.10490196198225021)
(X_732  0.10490196198225021)
(X_733  0.10490196198225021)
(X_734  0.10490196198225021)
(X_735  0.10490196198225021)
(X_736  0.004901961423456669)
(X_737  0.004901961423456669)
(X_738  0.004901961423456669)
(X_739  0.004901961423456669)
(X_740  0.004901961423456669)
(X_741  0.004901961423456669)
(X_742  0.004901961423456669)
(X_743  0.004901961423456669)
(X_744  0.012745101936161518)
(X_745  0.008823529817163944)
(X_746  0.004901961423456669)
(X_747  0.012745101936161518)
(X_748  0.11666666716337204)
(X_749  0.11666666716337204)
(X_750  0.11274509876966476)
(X_751  0.10490196198225021)
(X_752  0.10490196198225021)
(X_753  0.10490196198225021)
(X_754  0.10490196198225021)
(X_755  0.10490196198225021)
(X_756  0.10098039358854294)
(X_757  0.10098039358854294)
(X_758  0.10098039358854294)
(X_759  0.10098039358854294)
(X_760  0.0009803927969187498)
(X_761  0.0009803927969187498)
(X_762  0.10098039358854294)
(X_763  0.10098039358854294)
(X_764  0.0009803927969187498)
(X_765  0.10098039358854294)
(X_766  0.0009803927969187498)
(X_767  0.0009803927969187498)
(X_768  0.0009803927969187498)
(X_769  0.0009803927969187498)
(X_770  0.0009803927969187498)
(X_771  0.0009803927969187498)
(X_772  0.008823529817163944)
(X_773  0.004901961423456669)
(X_774  0.004901961423456669)
(X_775  0.008823529817163944)
(X_776  0.01666666939854622)
(X_777  0.11666666716337204)
(X_778  0.012745101936161518)
(X_779  0.10490196198225021)
(X_780  0.0009803927969187498)
(X_781  0.0009803927969187498)
(X_782  0.0009803927969187498)
(X_783  0.0009803927969187498)
(Y_0 -6.011443138122559)
(Y_1 2.6803250312805176)
(Y_2 -1.4696197509765625)
(Y_3 5.68044900894165))