((X_0  0.936274528503418)
(X_1  0.8245097994804382)
(X_2  0.820588231086731)
(X_3  0.8362745046615601)
(X_4  0.9637255072593689)
(X_5  0.9754902124404907)
(X_6  0.8676470518112183)
(X_7  0.8519607782363892)
(X_8  0.9598039388656616)
(X_9  0.9598039388656616)
(X_10  0.979411780834198)
(X_11  0.8950980305671692)
(X_12  0.9833333492279053)
(X_13  0.9637255072593689)
(X_14  0.9833333492279053)
(X_15  0.9186274409294128)
(X_16  0.9029411673545837)
(X_17  0.8990195989608765)
(X_18  0.906862735748291)
(X_19  0.9264705777168274)
(X_20  1.0303921699523926)
(X_21  1.0264705419540405)
(X_22  1.034313678741455)
(X_23  0.949999988079071)
(X_24  1.0264705419540405)
(X_25  1.034313678741455)
(X_26  1.0460784435272217)
(X_27  1.0499999523162842)
(X_28  0.31666669249534607)
(X_29  0.3088235557079315)
(X_30  0.20098040997982025)
(X_31  0.2088235467672348)
(X_32  0.22843138873577118)
(X_33  0.23235295712947845)
(X_34  0.22058825194835663)
(X_35  0.30490198731422424)
(X_36  0.1931372582912445)
(X_37  0.18921568989753723)
(X_38  0.21274511516094208)
(X_39  0.25196078419685364)
(X_40  0.26764705777168274)
(X_41  0.26372548937797546)
(X_42  0.3637255132198334)
(X_43  0.27941176295280457)
(X_44  0.43039217591285706)
(X_45  0.4264706075191498)
(X_46  0.4382353127002716)
(X_47  0.36176469922065735)
(X_48  0.3696078360080719)
(X_49  0.3735294044017792)
(X_50  0.385294109582901)
(X_51  0.4049019515514374)
(X_52  0.595098078250885)
(X_53  0.6029412150382996)
(X_54  0.6186274886131287)
(X_55  0.6303921937942505)
(X_56  0.17549020051956177)
(X_57  0.0676470622420311)
(X_58  0.06372549384832382)
(X_59  0.0676470622420311)
(X_60  0.0833333432674408)
(X_61  0.08725491166114807)
(X_62  0.07549020648002625)
(X_63  0.06372549384832382)
(X_64  0.22647058963775635)
(X_65  0.08725491166114807)
(X_66  0.0519607849419117)
(X_67  0.0519607849419117)
(X_68  0.06372549384832382)
(X_69  0.0676470622420311)
(X_70  0.0676470622420311)
(X_71  0.07549020648002625)
(X_72  0.06372549384832382)
(X_73  0.05588235333561897)
(X_74  0.05980392172932625)
(X_75  0.0833333432674408)
(X_76  0.19117647409439087)
(X_77  0.19509804248809814)
(X_78  0.2029411792755127)
(X_79  0.22254902124404907)
(X_80  0.15196079015731812)
(X_81  0.1558823585510254)
(X_82  0.16764706373214722)
(X_83  0.17549020051956177)
(X_84  0.19901961088180542)
(X_85  0.19117647409439087)
(X_86  0.18333333730697632)
(X_87  0.18333333730697632)
(X_88  0.1872549057006836)
(X_89  0.18333333730697632)
(X_90  0.1715686321258545)
(X_91  0.15980392694473267)
(X_92  0.16764706373214722)
(X_93  0.0676470622420311)
(X_94  0.08725491166114807)
(X_95  0.11078432202339172)
(X_96  0.2186274528503418)
(X_97  0.19509804248809814)
(X_98  0.15196079015731812)
(X_99  0.12058823555707932)
(X_100  0.19117647409439087)
(X_101  0.17549020051956177)
(X_102  0.16764706373214722)
(X_103  0.17941176891326904)
(X_104  0.08725491166114807)
(X_105  0.07941177487373352)
(X_106  0.0833333432674408)
(X_107  0.09509804844856262)
(X_108  0.0833333432674408)
(X_109  0.0833333432674408)
(X_110  0.08725491166114807)
(X_111  0.08725491166114807)
(X_112  0.07941177487373352)
(X_113  0.17941176891326904)
(X_114  0.17941176891326904)
(X_115  0.18333333730697632)
(X_116  0.08725491166114807)
(X_117  0.08725491166114807)
(X_118  0.0833333432674408)
(X_119  0.07549020648002625)
(X_120  0.0676470622420311)
(X_121  0.0676470622420311)
(X_122  0.06372549384832382)
(X_123  0.05980392172932625)
(X_124  0.05980392172932625)
(X_125  0.07549020648002625)
(X_126  0.08725491166114807)
(X_127  0.09117648005485535)
(X_128  0.19117647409439087)
(X_129  0.16372549533843994)
(X_130  0.15196079015731812)
(X_131  0.15980392694473267)
(X_132  0.16764706373214722)
(X_133  0.16372549533843994)
(X_134  0.16372549533843994)
(X_135  0.1715686321258545)
(X_136  0.19117647409439087)
(X_137  0.1872549057006836)
(X_138  0.1872549057006836)
(X_139  0.18333333730697632)
(X_140  0.21470588445663452)
(X_141  0.23039215803146362)
(X_142  0.2539215683937073)
(X_143  0.2813725471496582)
(X_144  0.3127451241016388)
(X_145  0.240196093916893)
(X_146  0.2598039209842682)
(X_147  0.36764708161354065)
(X_148  0.4068627655506134)
(X_149  0.38333335518836975)
(X_150  0.2245098203420639)
(X_151  0.1460784375667572)
(X_152  0.19117647409439087)
(X_153  0.16764706373214722)
(X_154  0.15980392694473267)
(X_155  0.14803922176361084)
(X_156  0.09117648005485535)
(X_157  0.16372549533843994)
(X_158  0.14803922176361084)
(X_159  0.15980392694473267)
(X_160  0.1715686321258545)
(X_161  0.07156863063573837)
(X_162  0.07156863063573837)
(X_163  0.17941176891326904)
(X_164  0.1872549057006836)
(X_165  0.08725491166114807)
(X_166  0.08725491166114807)
(X_167  0.1872549057006836)
(X_168  0.34215685725212097)
(X_169  0.457843154668808)
(X_170  0.48137256503105164)
(X_171  0.5088235139846802)
(X_172  0.5362744927406311)
(X_173  0.4598039388656616)
(X_174  0.479411780834198)
(X_175  0.4911764860153198)
(X_176  0.4598039388656616)
(X_177  0.48725491762161255)
(X_178  0.5029411911964417)
(X_179  0.5794118046760559)
(X_180  0.520588219165802)
(X_181  0.3225490152835846)
(X_182  0.18921568989753723)
(X_183  0.0833333432674408)
(X_184  0.2029411792755127)
(X_185  0.16764706373214722)
(X_186  0.14803922176361084)
(X_187  0.1558823585510254)
(X_188  0.1715686321258545)
(X_189  0.07156863063573837)
(X_190  0.0676470622420311)
(X_191  0.1715686321258545)
(X_192  0.15980392694473267)
(X_193  0.15980392694473267)
(X_194  0.1558823585510254)
(X_195  0.05980392172932625)
(X_196  0.41274508833885193)
(X_197  0.5127450823783875)
(X_198  0.5088235139846802)
(X_199  0.49705883860588074)
(X_200  0.47745099663734436)
(X_201  0.46176472306251526)
(X_202  0.3539215624332428)
(X_203  0.3499999940395355)
(X_204  0.3539215624332428)
(X_205  0.3578431308269501)
(X_206  0.3578431308269501)
(X_207  0.4696078598499298)
(X_208  0.4049019515514374)
(X_209  0.4205882251262665)
(X_210  0.3813725411891937)
(X_211  0.3186274468898773)
(X_212  0.23039215803146362)
(X_213  0.19117647409439087)
(X_214  0.16372549533843994)
(X_215  0.16764706373214722)
(X_216  0.17549020051956177)
(X_217  0.16764706373214722)
(X_218  0.16372549533843994)
(X_219  0.16372549533843994)
(X_220  0.17549020051956177)
(X_221  0.07156863063573837)
(X_222  0.0676470622420311)
(X_223  0.06372549384832382)
(X_224  0.2872548997402191)
(X_225  0.3186274468898773)
(X_226  0.41470590233802795)
(X_227  0.387254923582077)
(X_228  0.387254923582077)
(X_229  0.3186274468898773)
(X_230  0.31470587849617004)
(X_231  0.28333333134651184)
(X_232  0.45000001788139343)
(X_233  0.4539215862751007)
(X_234  0.3539215624332428)
(X_235  0.3539215624332428)
(X_236  0.34607842564582825)
(X_237  0.3343137204647064)
(X_238  0.3225490152835846)
(X_239  0.31470587849617004)
(X_240  0.3382352888584137)
(X_241  0.32058826088905334)
(X_242  0.19509804248809814)
(X_243  0.14803922176361084)
(X_244  0.1715686321258545)
(X_245  0.19901961088180542)
(X_246  0.17941176891326904)
(X_247  0.04803921654820442)
(X_248  0.06372549384832382)
(X_249  0.07156863063573837)
(X_250  0.07549020648002625)
(X_251  0.16764706373214722)
(X_252  0.31078431010246277)
(X_253  0.29509803652763367)
(X_254  0.26764705777168274)
(X_255  0.26764705777168274)
(X_256  0.4382353127002716)
(X_257  0.5127450823783875)
(X_258  0.5127450823783875)
(X_259  0.4696078598499298)
(X_260  0.46764707565307617)
(X_261  0.5068627595901489)
(X_262  0.6539216041564941)
(X_263  0.5774509906768799)
(X_264  0.5539215803146362)
(X_265  0.5794118046760559)
(X_266  0.39313724637031555)
(X_267  0.3343137204647064)
(X_268  0.2598039209842682)
(X_269  0.3068627417087555)
(X_270  0.3754902184009552)
(X_271  0.24215686321258545)
(X_272  0.0519607849419117)
(X_273  0.05980392172932625)
(X_274  0.18333333730697632)
(X_275  0.17549020051956177)
(X_276  0.16764706373214722)
(X_277  0.07549020648002625)
(X_278  0.07941177487373352)
(X_279  0.07549020648002625)
(X_280  0.3598039448261261)
(X_281  0.4068627655506134)
(X_282  0.3696078360080719)
(X_283  0.42450979351997375)
(X_284  0.4637255072593689)
(X_285  0.5362744927406311)
(X_286  0.41862747073173523)
(X_287  0.29313725233078003)
(X_288  0.3245098292827606)
(X_289  0.2245098203420639)
(X_290  0.22843138873577118)
(X_291  0.25196078419685364)
(X_292  0.29901960492134094)
(X_293  0.3539215624332428)
(X_294  0.40882351994514465)
(X_295  0.44411763548851013)
(X_296  0.3735294044017792)
(X_297  0.3068627417087555)
(X_298  0.2598039209842682)
(X_299  0.33627453446388245)
(X_300  0.2617647051811218)
(X_301  0.16372549533843994)
(X_302  0.14411765336990356)
(X_303  0.08725491166114807)
(X_304  0.05588235333561897)
(X_305  0.06372549384832382)
(X_306  0.07156863063573837)
(X_307  0.07156863063573837)
(X_308  0.4735294282436371)
(X_309  0.49705883860588074)
(X_310  0.5009803771972656)
(X_311  0.3578431308269501)
(X_312  0.3068627417087555)
(X_313  0.2558823525905609)
(X_314  0.19705882668495178)
(X_315  0.15392157435417175)
(X_316  0.3794117867946625)
(X_317  0.3715686500072479)
(X_318  0.3598039448261261)
(X_319  0.35196080803871155)
(X_320  0.25196078419685364)
(X_321  0.2598039209842682)
(X_322  0.27156862616539)
(X_323  0.27941176295280457)
(X_324  0.4362744987010956)
(X_325  0.3029411733150482)
(X_326  0.22843138873577118)
(X_327  0.35196080803871155)
(X_328  0.33235296607017517)
(X_329  0.22647058963775635)
(X_330  0.15980392694473267)
(X_331  0.16764706373214722)
(X_332  0.05588235333561897)
(X_333  0.05980392172932625)
(X_334  0.0676470622420311)
(X_335  0.07156863063573837)
(X_336  0.4852941334247589)
(X_337  0.4539215862751007)
(X_338  0.38333335518836975)
(X_339  0.29313725233078003)
(X_340  0.24215686321258545)
(X_341  0.23823529481887817)
(X_342  0.2656862735748291)
(X_343  0.18529412150382996)
(X_344  0.23039215803146362)
(X_345  0.25)
(X_346  0.18137255311012268)
(X_347  0.2088235467672348)
(X_348  0.22843138873577118)
(X_349  0.23235295712947845)
(X_350  0.3245098292827606)
(X_351  0.32058826088905334)
(X_352  0.3637255132198334)
(X_353  0.45000001788139343)
(X_354  0.457843154668808)
(X_355  0.3598039448261261)
(X_356  0.28921568393707275)
(X_357  0.28921568393707275)
(X_358  0.24215686321258545)
(X_359  0.15980392694473267)
(X_360  0.07156863063573837)
(X_361  0.16764706373214722)
(X_362  0.07156863063573837)
(X_363  0.07156863063573837)
(X_364  0.2245098203420639)
(X_365  0.1931372582912445)
(X_366  0.1617647111415863)
(X_367  0.2539215683937073)
(X_368  0.2656862735748291)
(X_369  0.2617647051811218)
(X_370  0.1303921639919281)
(X_371  0.09509804844856262)
(X_372  0.18529412150382996)
(X_373  0.16568627953529358)
(X_374  0.13431373238563538)
(X_375  0.114705890417099)
(X_376  0.22254902124404907)
(X_377  0.25)
(X_378  0.28921568393707275)
(X_379  0.21666668355464935)
(X_380  0.1617647111415863)
(X_381  0.27941176295280457)
(X_382  0.4539215862751007)
(X_383  0.31470587849617004)
(X_384  0.24803923070430756)
(X_385  0.21666668355464935)
(X_386  0.16568627953529358)
(X_387  0.0990196168422699)
(X_388  0.16764706373214722)
(X_389  0.15980392694473267)
(X_390  0.04803921654820442)
(X_391  0.04803921654820442)
(X_392  0.2656862735748291)
(X_393  0.22647058963775635)
(X_394  0.19117647409439087)
(X_395  0.18333333730697632)
(X_396  0.19901961088180542)
(X_397  0.20686274766921997)
(X_398  0.19509804248809814)
(X_399  0.17941176891326904)
(X_400  0.07941177487373352)
(X_401  0.18333333730697632)
(X_402  0.19509804248809814)
(X_403  0.21078431606292725)
(X_404  0.22647058963775635)
(X_405  0.23823529481887817)
(X_406  0.15000000596046448)
(X_407  0.15392157435417175)
(X_408  0.17352941632270813)
(X_409  0.1617647111415863)
(X_410  0.21274511516094208)
(X_411  0.4068627655506134)
(X_412  0.41470590233802795)
(X_413  0.3245098292827606)
(X_414  0.2539215683937073)
(X_415  0.25)
(X_416  0.07549020648002625)
(X_417  0.05980392172932625)
(X_418  0.04019607976078987)
(X_419  0.03235294297337532)
(X_420  0.0833333432674408)
(X_421  0.09509804844856262)
(X_422  0.10294118523597717)
(X_423  0.09117648005485535)
(X_424  0.06372549384832382)
(X_425  0.04019607976078987)
(X_426  0.14411765336990356)
(X_427  0.16372549533843994)
(X_428  0.17941176891326904)
(X_429  0.17941176891326904)
(X_430  0.07941177487373352)
(X_431  0.0833333432674408)
(X_432  0.08725491166114807)
(X_433  0.09117648005485535)
(X_434  0.09509804844856262)
(X_435  0.09509804844856262)
(X_436  0.12647059559822083)
(X_437  0.2539215683937073)
(X_438  0.28921568393707275)
(X_439  0.3245098292827606)
(X_440  0.33627453446388245)
(X_441  0.3245098292827606)
(X_442  0.19705882668495178)
(X_443  0.16960784792900085)
(X_444  0.114705890417099)
(X_445  0.09117648005485535)
(X_446  0.06372549384832382)
(X_447  0.1558823585510254)
(X_448  0.14803922176361084)
(X_449  0.04803921654820442)
(X_450  0.04803921654820442)
(X_451  0.14803922176361084)
(X_452  0.04803921654820442)
(X_453  0.04803921654820442)
(X_454  0.04803921654820442)
(X_455  0.04803921654820442)
(X_456  0.15196079015731812)
(X_457  0.1558823585510254)
(X_458  0.15980392694473267)
(X_459  0.16764706373214722)
(X_460  0.1715686321258545)
(X_461  0.07941177487373352)
(X_462  0.0833333432674408)
(X_463  0.08725491166114807)
(X_464  0.08725491166114807)
(X_465  0.12254902720451355)
(X_466  0.23823529481887817)
(X_467  0.24607843160629272)
(X_468  0.3088235557079315)
(X_469  0.3715686500072479)
(X_470  0.33235296607017517)
(X_471  0.23823529481887817)
(X_472  0.2696078419685364)
(X_473  0.24607843160629272)
(X_474  0.21470588445663452)
(X_475  0.18333333730697632)
(X_476  0.04411764815449715)
(X_477  0.04411764815449715)
(X_478  0.14411765336990356)
(X_479  0.14411765336990356)
(X_480  0.04411764815449715)
(X_481  0.04411764815449715)
(X_482  0.04411764815449715)
(X_483  0.14411765336990356)
(X_484  0.136274516582489)
(X_485  0.136274516582489)
(X_486  0.1401960849761963)
(X_487  0.04411764815449715)
(X_488  0.04803921654820442)
(X_489  0.0519607849419117)
(X_490  0.05588235333561897)
(X_491  0.05588235333561897)
(X_492  0.04803921654820442)
(X_493  0.08725491166114807)
(X_494  0.10686275362968445)
(X_495  0.114705890417099)
(X_496  0.27352941036224365)
(X_497  0.3480392396450043)
(X_498  0.3480392396450043)
(X_499  0.1931372582912445)
(X_500  0.2656862735748291)
(X_501  0.17352941632270813)
(X_502  0.1931372582912445)
(X_503  0.20490197837352753)
(X_504  0.036274511367082596)
(X_505  0.036274511367082596)
(X_506  0.136274516582489)
(X_507  0.036274511367082596)
(X_508  0.036274511367082596)
(X_509  0.036274511367082596)
(X_510  0.036274511367082596)
(X_511  0.136274516582489)
(X_512  0.036274511367082596)
(X_513  0.04019607976078987)
(X_514  0.1401960849761963)
(X_515  0.04019607976078987)
(X_516  0.04411764815449715)
(X_517  0.04411764815449715)
(X_518  0.04803921654820442)
(X_519  0.04803921654820442)
(X_520  0.02450980618596077)
(X_521  0.0676470622420311)
(X_522  0.09117648005485535)
(X_523  0.09117648005485535)
(X_524  0.13823530077934265)
(X_525  0.3245098292827606)
(X_526  0.3794117867946625)
(X_527  0.38333335518836975)
(X_528  0.15392157435417175)
(X_529  0.17352941632270813)
(X_530  0.20098040997982025)
(X_531  0.23235295712947845)
(X_532  0.12843137979507446)
(X_533  0.12843137979507446)
(X_534  0.12843137979507446)
(X_535  0.12843137979507446)
(X_536  0.028431374579668045)
(X_537  0.028431374579668045)
(X_538  0.028431374579668045)
(X_539  0.12843137979507446)
(X_540  0.04019607976078987)
(X_541  0.04019607976078987)
(X_542  0.1401960849761963)
(X_543  0.1401960849761963)
(X_544  0.04019607976078987)
(X_545  0.04019607976078987)
(X_546  0.04019607976078987)
(X_547  0.04019607976078987)
(X_548  0.12058823555707932)
(X_549  0.1558823585510254)
(X_550  0.1715686321258545)
(X_551  0.16372549533843994)
(X_552  0.19117647409439087)
(X_553  0.2696078419685364)
(X_554  0.2598039209842682)
(X_555  0.31078431010246277)
(X_556  0.2813725471496582)
(X_557  0.2774509787559509)
(X_558  0.27352941036224365)
(X_559  0.2696078419685364)
(X_560  0.12450980395078659)
(X_561  0.02450980618596077)
(X_562  0.12450980395078659)
(X_563  0.02450980618596077)
(X_564  0.02450980618596077)
(X_565  0.02450980618596077)
(X_566  0.02450980618596077)
(X_567  0.02450980618596077)
(X_568  0.12843137979507446)
(X_569  0.12450980395078659)
(X_570  0.12450980395078659)
(X_571  0.12450980395078659)
(X_572  0.02450980618596077)
(X_573  0.020588237792253494)
(X_574  0.020588237792253494)
(X_575  0.020588237792253494)
(X_576  0.008823529817163944)
(X_577  0.03235294297337532)
(X_578  0.14411765336990356)
(X_579  0.13235294818878174)
(X_580  0.136274516582489)
(X_581  0.19117647409439087)
(X_582  0.2813725471496582)
(X_583  0.35196080803871155)
(X_584  0.3029411733150482)
(X_585  0.2911764681339264)
(X_586  0.27156862616539)
(X_587  0.2598039209842682)
(X_588  0.12450980395078659)
(X_589  0.02450980618596077)
(X_590  0.02450980618596077)
(X_591  0.02450980618596077)
(X_592  0.02450980618596077)
(X_593  0.12450980395078659)
(X_594  0.12450980395078659)
(X_595  0.12450980395078659)
(X_596  0.12843137979507446)
(X_597  0.028431374579668045)
(X_598  0.028431374579668045)
(X_599  0.02450980618596077)
(X_600  0.02450980618596077)
(X_601  0.02450980618596077)
(X_602  0.02450980618596077)
(X_603  0.02450980618596077)
(X_604  0.12450980395078659)
(X_605  0.12843137979507446)
(X_606  0.136274516582489)
(X_607  0.13235294818878174)
(X_608  0.12450980395078659)
(X_609  0.14411765336990356)
(X_610  0.20686274766921997)
(X_611  0.2696078419685364)
(X_612  0.25196078419685364)
(X_613  0.2598039209842682)
(X_614  0.27156862616539)
(X_615  0.38333335518836975)
(X_616  0.12450980395078659)
(X_617  0.02450980618596077)
(X_618  0.02450980618596077)
(X_619  0.02450980618596077)
(X_620  0.12450980395078659)
(X_621  0.12450980395078659)
(X_622  0.02450980618596077)
(X_623  0.02450980618596077)
(X_624  0.12843137979507446)
(X_625  0.12843137979507446)
(X_626  0.12843137979507446)
(X_627  0.12843137979507446)
(X_628  0.028431374579668045)
(X_629  0.03235294297337532)
(X_630  0.03235294297337532)
(X_631  0.03235294297337532)
(X_632  0.03235294297337532)
(X_633  0.12450980395078659)
(X_634  0.136274516582489)
(X_635  0.15196079015731812)
(X_636  0.04803921654820442)
(X_637  0.04019607976078987)
(X_638  0.16372549533843994)
(X_639  0.2029411792755127)
(X_640  0.17549020051956177)
(X_641  0.19117647409439087)
(X_642  0.21470588445663452)
(X_643  0.2343137264251709)
(X_644  0.02450980618596077)
(X_645  0.02450980618596077)
(X_646  0.12450980395078659)
(X_647  0.12450980395078659)
(X_648  0.12450980395078659)
(X_649  0.12450980395078659)
(X_650  0.12450980395078659)
(X_651  0.12450980395078659)
(X_652  0.008823529817163944)
(X_653  0.008823529817163944)
(X_654  0.008823529817163944)
(X_655  0.008823529817163944)
(X_656  0.012745101936161518)
(X_657  0.012745101936161518)
(X_658  0.01666666939854622)
(X_659  0.01666666939854622)
(X_660  0.11274509876966476)
(X_661  0.10098039358854294)
(X_662  0.11274509876966476)
(X_663  0.14803922176361084)
(X_664  0.0519607849419117)
(X_665  0.02450980618596077)
(X_666  0.028431374579668045)
(X_667  0.0519607849419117)
(X_668  0.09509804844856262)
(X_669  0.0990196168422699)
(X_670  0.10294118523597717)
(X_671  0.10294118523597717)
(X_672  0.12058823555707932)
(X_673  0.01666666939854622)
(X_674  0.012745101936161518)
(X_675  0.008823529817163944)
(X_676  0.008823529817163944)
(X_677  0.10882353037595749)
(X_678  0.10882353037595749)
(X_679  0.11274509876966476)
(X_680  0.10098039358854294)
(X_681  0.10490196198225021)
(X_682  0.10882353037595749)
(X_683  0.10882353037595749)
(X_684  0.10490196198225021)
(X_685  0.004901961423456669)
(X_686  0.012745101936161518)
(X_687  0.020588237792253494)
(X_688  0.11274509876966476)
(X_689  0.11274509876966476)
(X_690  0.012745101936161518)
(X_691  0.01666666939854622)
(X_692  0.11666666716337204)
(X_693  0.12058823555707932)
(X_694  0.020588237792253494)
(X_695  0.12058823555707932)
(X_696  0.14411765336990356)
(X_697  0.14411765336990356)
(X_698  0.14803922176361084)
(X_699  0.04803921654820442)
(X_700  0.12058823555707932)
(X_701  0.01666666939854622)
(X_702  0.11274509876966476)
(X_703  0.10882353037595749)
(X_704  0.10882353037595749)
(X_705  0.10882353037595749)
(X_706  0.008823529817163944)
(X_707  0.012745101936161518)
(X_708  0.0009803927969187498)
(X_709  0.008823529817163944)
(X_710  0.008823529817163944)
(X_711  0.008823529817163944)
(X_712  0.10490196198225021)
(X_713  0.004901961423456669)
(X_714  0.012745101936161518)
(X_715  0.020588237792253494)
(X_716  0.11274509876966476)
(X_717  0.11274509876966476)
(X_718  0.012745101936161518)
(X_719  0.01666666939854622)
(X_720  0.01666666939854622)
(X_721  0.020588237792253494)
(X_722  0.020588237792253494)
(X_723  0.12058823555707932)
(X_724  0.12450980395078659)
(X_725  0.12450980395078659)
(X_726  0.12843137979507446)
(X_727  0.12843137979507446)
(X_728  0.12058823555707932)
(X_729  0.11666666716337204)
(X_730  0.11274509876966476)
(X_731  0.10882353037595749)
(X_732  0.10882353037595749)
(X_733  0.10882353037595749)
(X_734  0.008823529817163944)
(X_735  0.11274509876966476)
(X_736  0.10490196198225021)
(X_737  0.008823529817163944)
(X_738  0.012745101936161518)
(X_739  0.008823529817163944)
(X_740  0.004901961423456669)
(X_741  0.004901961423456669)
(X_742  0.012745101936161518)
(X_743  0.020588237792253494)
(X_744  0.012745101936161518)
(X_745  0.012745101936161518)
(X_746  0.012745101936161518)
(X_747  0.01666666939854622)
(X_748  0.11666666716337204)
(X_749  0.12058823555707932)
(X_750  0.020588237792253494)
(X_751  0.12058823555707932)
(X_752  0.11274509876966476)
(X_753  0.11274509876966476)
(X_754  0.11274509876966476)
(X_755  0.11274509876966476)
(X_756  0.12058823555707932)
(X_757  0.01666666939854622)
(X_758  0.11274509876966476)
(X_759  0.10882353037595749)
(X_760  0.008823529817163944)
(X_761  0.10882353037595749)
(X_762  0.10882353037595749)
(X_763  0.11274509876966476)
(X_764  0.004901961423456669)
(X_765  0.10882353037595749)
(X_766  0.012745101936161518)
(X_767  0.008823529817163944)
(X_768  0.0009803927969187498)
(X_769  0.0009803927969187498)
(X_770  0.008823529817163944)
(X_771  0.01666666939854622)
(X_772  0.012745101936161518)
(X_773  0.012745101936161518)
(X_774  0.012745101936161518)
(X_775  0.01666666939854622)
(X_776  0.01666666939854622)
(X_777  0.020588237792253494)
(X_778  0.020588237792253494)
(X_779  0.020588237792253494)
(X_780  0.012745101936161518)
(X_781  0.01666666939854622)
(X_782  0.01666666939854622)
(X_783  0.01666666939854622)
(Y_0 -22.009212493896484)
(Y_1 20.68118667602539)
(Y_2 -16.284090042114258)
(Y_3 17.893672943115234))