((X_0  0.16764706373214722)
(X_1  0.0833333432674408)
(X_2  0.09117648005485535)
(X_3  0.08725491166114807)
(X_4  0.1715686321258545)
(X_5  0.0676470622420311)
(X_6  0.0833333432674408)
(X_7  0.0990196168422699)
(X_8  0.1872549057006836)
(X_9  0.18333333730697632)
(X_10  0.17941176891326904)
(X_11  0.16764706373214722)
(X_12  0.16372549533843994)
(X_13  0.16764706373214722)
(X_14  0.18333333730697632)
(X_15  0.19901961088180542)
(X_16  0.10686275362968445)
(X_17  0.12254902720451355)
(X_18  0.15392157435417175)
(X_19  0.18529412150382996)
(X_20  0.32058826088905334)
(X_21  0.3598039448261261)
(X_22  0.39901962876319885)
(X_23  0.3225490152835846)
(X_24  0.4735294282436371)
(X_25  0.39313724637031555)
(X_26  0.4205882251262665)
(X_27  0.5480391979217529)
(X_28  0.1872549057006836)
(X_29  0.19901961088180542)
(X_30  0.10686275362968445)
(X_31  0.09509804844856262)
(X_32  0.07941177487373352)
(X_33  0.07549020648002625)
(X_34  0.0833333432674408)
(X_35  0.19901961088180542)
(X_36  0.1872549057006836)
(X_37  0.19117647409439087)
(X_38  0.09117648005485535)
(X_39  0.08725491166114807)
(X_40  0.08725491166114807)
(X_41  0.19509804248809814)
(X_42  0.21078431606292725)
(X_43  0.12254902720451355)
(X_44  0.19117647409439087)
(X_45  0.19901961088180542)
(X_46  0.21078431606292725)
(X_47  0.10294118523597717)
(X_48  0.08725491166114807)
(X_49  0.06372549384832382)
(X_50  0.04803921654820442)
(X_51  0.036274511367082596)
(X_52  0.18333333730697632)
(X_53  0.07549020648002625)
(X_54  0.0676470622420311)
(X_55  0.15980392694473267)
(X_56  0.1715686321258545)
(X_57  0.0833333432674408)
(X_58  0.09117648005485535)
(X_59  0.0833333432674408)
(X_60  0.07156863063573837)
(X_61  0.0676470622420311)
(X_62  0.07941177487373352)
(X_63  0.08725491166114807)
(X_64  0.15980392694473267)
(X_65  0.0676470622420311)
(X_66  0.07156863063573837)
(X_67  0.17549020051956177)
(X_68  0.17549020051956177)
(X_69  0.07941177487373352)
(X_70  0.09509804844856262)
(X_71  0.10294118523597717)
(X_72  0.06372549384832382)
(X_73  0.07941177487373352)
(X_74  0.0990196168422699)
(X_75  0.11078432202339172)
(X_76  0.21078431606292725)
(X_77  0.21078431606292725)
(X_78  0.20686274766921997)
(X_79  0.21078431606292725)
(X_80  0.23823529481887817)
(X_81  0.22254902124404907)
(X_82  0.2029411792755127)
(X_83  0.18333333730697632)
(X_84  0.14803922176361084)
(X_85  0.15980392694473267)
(X_86  0.1715686321258545)
(X_87  0.1715686321258545)
(X_88  0.16764706373214722)
(X_89  0.16764706373214722)
(X_90  0.17549020051956177)
(X_91  0.1872549057006836)
(X_92  0.1558823585510254)
(X_93  0.05980392172932625)
(X_94  0.0676470622420311)
(X_95  0.0676470622420311)
(X_96  0.16372549533843994)
(X_97  0.16372549533843994)
(X_98  0.1715686321258545)
(X_99  0.17549020051956177)
(X_100  0.16372549533843994)
(X_101  0.16372549533843994)
(X_102  0.16372549533843994)
(X_103  0.15980392694473267)
(X_104  0.15980392694473267)
(X_105  0.07156863063573837)
(X_106  0.09117648005485535)
(X_107  0.11078432202339172)
(X_108  0.05588235333561897)
(X_109  0.05588235333561897)
(X_110  0.05980392172932625)
(X_111  0.15980392694473267)
(X_112  0.1558823585510254)
(X_113  0.16372549533843994)
(X_114  0.1715686321258545)
(X_115  0.17549020051956177)
(X_116  0.17549020051956177)
(X_117  0.07156863063573837)
(X_118  0.07156863063573837)
(X_119  0.07549020648002625)
(X_120  0.0676470622420311)
(X_121  0.07156863063573837)
(X_122  0.07549020648002625)
(X_123  0.07156863063573837)
(X_124  0.06372549384832382)
(X_125  0.05980392172932625)
(X_126  0.06372549384832382)
(X_127  0.0676470622420311)
(X_128  0.19509804248809814)
(X_129  0.19117647409439087)
(X_130  0.18333333730697632)
(X_131  0.1715686321258545)
(X_132  0.16372549533843994)
(X_133  0.16372549533843994)
(X_134  0.1715686321258545)
(X_135  0.18333333730697632)
(X_136  0.15196079015731812)
(X_137  0.15980392694473267)
(X_138  0.0676470622420311)
(X_139  0.17549020051956177)
(X_140  0.15980392694473267)
(X_141  0.16372549533843994)
(X_142  0.16764706373214722)
(X_143  0.1715686321258545)
(X_144  0.0676470622420311)
(X_145  0.06372549384832382)
(X_146  0.05588235333561897)
(X_147  0.15196079015731812)
(X_148  0.15196079015731812)
(X_149  0.1558823585510254)
(X_150  0.15980392694473267)
(X_151  0.05588235333561897)
(X_152  0.1558823585510254)
(X_153  0.1558823585510254)
(X_154  0.16764706373214722)
(X_155  0.17549020051956177)
(X_156  0.05588235333561897)
(X_157  0.17549020051956177)
(X_158  0.19509804248809814)
(X_159  0.2029411792755127)
(X_160  0.19901961088180542)
(X_161  0.08725491166114807)
(X_162  0.07549020648002625)
(X_163  0.1715686321258545)
(X_164  0.07549020648002625)
(X_165  0.0676470622420311)
(X_166  0.05588235333561897)
(X_167  0.14803922176361084)
(X_168  0.06372549384832382)
(X_169  0.0676470622420311)
(X_170  0.07549020648002625)
(X_171  0.1872549057006836)
(X_172  0.19509804248809814)
(X_173  0.19509804248809814)
(X_174  0.08725491166114807)
(X_175  0.0833333432674408)
(X_176  0.18333333730697632)
(X_177  0.19117647409439087)
(X_178  0.2029411792755127)
(X_179  0.21078431606292725)
(X_180  0.22254902124404907)
(X_181  0.13823530077934265)
(X_182  0.16568627953529358)
(X_183  0.18137255311012268)
(X_184  0.3950980603694916)
(X_185  0.4107843339443207)
(X_186  0.43039217591285706)
(X_187  0.43039217591285706)
(X_188  0.4107843339443207)
(X_189  0.28333333134651184)
(X_190  0.2558823525905609)
(X_191  0.3401961028575897)
(X_192  0.28921568393707275)
(X_193  0.2774509787559509)
(X_194  0.2539215683937073)
(X_195  0.13431373238563538)
(X_196  0.0833333432674408)
(X_197  0.19117647409439087)
(X_198  0.20686274766921997)
(X_199  0.1303921639919281)
(X_200  0.15000000596046448)
(X_201  0.1617647111415863)
(X_202  0.1617647111415863)
(X_203  0.15784314274787903)
(X_204  0.18529412150382996)
(X_205  0.1931372582912445)
(X_206  0.2088235467672348)
(X_207  0.3284313976764679)
(X_208  0.25196078419685364)
(X_209  0.28333333134651184)
(X_210  0.3225490152835846)
(X_211  0.44607844948768616)
(X_212  0.4696078598499298)
(X_213  0.4852941334247589)
(X_214  0.4009803831577301)
(X_215  0.41274508833885193)
(X_216  0.4166666567325592)
(X_217  0.4205882251262665)
(X_218  0.5245097875595093)
(X_219  0.5323529243469238)
(X_220  0.5127450823783875)
(X_221  0.40882351994514465)
(X_222  0.4009803831577301)
(X_223  0.49313727021217346)
(X_224  0.3539215624332428)
(X_225  0.3656862676143646)
(X_226  0.47745099663734436)
(X_227  0.47745099663734436)
(X_228  0.3735294044017792)
(X_229  0.3696078360080719)
(X_230  0.3735294044017792)
(X_231  0.3735294044017792)
(X_232  0.4382353127002716)
(X_233  0.25196078419685364)
(X_234  0.41862747073173523)
(X_235  0.3225490152835846)
(X_236  0.3068627417087555)
(X_237  0.2872548997402191)
(X_238  0.23627452552318573)
(X_239  0.34607842564582825)
(X_240  0.33039215207099915)
(X_241  0.3499999940395355)
(X_242  0.4539215862751007)
(X_243  0.45000001788139343)
(X_244  0.46568629145622253)
(X_245  0.49705883860588074)
(X_246  0.5088235139846802)
(X_247  0.49705883860588074)
(X_248  0.3892156779766083)
(X_249  0.385294109582901)
(X_250  0.4009803831577301)
(X_251  0.5284313559532166)
(X_252  0.3735294044017792)
(X_253  0.3813725411891937)
(X_254  0.39313724637031555)
(X_255  0.4892157018184662)
(X_256  0.46568629145622253)
(X_257  0.43431374430656433)
(X_258  0.4264706075191498)
(X_259  0.3382352888584137)
(X_260  0.27941176295280457)
(X_261  0.3539215624332428)
(X_262  0.40882351994514465)
(X_263  0.42450979351997375)
(X_264  0.4735294282436371)
(X_265  0.41470590233802795)
(X_266  0.4225490391254425)
(X_267  0.43039217591285706)
(X_268  0.33039215207099915)
(X_269  0.4539215862751007)
(X_270  0.4735294282436371)
(X_271  0.4892157018184662)
(X_272  0.40882351994514465)
(X_273  0.5284313559532166)
(X_274  0.5166666507720947)
(X_275  0.4892157018184662)
(X_276  0.3656862676143646)
(X_277  0.36176469922065735)
(X_278  0.3735294044017792)
(X_279  0.3970588147640228)
(X_280  0.47745099663734436)
(X_281  0.47745099663734436)
(X_282  0.385294109582901)
(X_283  0.3892156779766083)
(X_284  0.3539215624332428)
(X_285  0.41862747073173523)
(X_286  0.4225490391254425)
(X_287  0.457843154668808)
(X_288  0.4480392038822174)
(X_289  0.550000011920929)
(X_290  0.5186274647712708)
(X_291  0.5343137383460999)
(X_292  0.4480392038822174)
(X_293  0.32647058367729187)
(X_294  0.37745097279548645)
(X_295  0.34215685725212097)
(X_296  0.49705883860588074)
(X_297  0.40882351994514465)
(X_298  0.41274508833885193)
(X_299  0.5088235139846802)
(X_300  0.5088235139846802)
(X_301  0.5049019455909729)
(X_302  0.3813725411891937)
(X_303  0.3539215624332428)
(X_304  0.37745097279548645)
(X_305  0.37745097279548645)
(X_306  0.3892156779766083)
(X_307  0.4009803831577301)
(X_308  0.4696078598499298)
(X_309  0.457843154668808)
(X_310  0.3656862676143646)
(X_311  0.37745097279548645)
(X_312  0.3735294044017792)
(X_313  0.3735294044017792)
(X_314  0.4166666567325592)
(X_315  0.479411780834198)
(X_316  0.6892157196998596)
(X_317  0.6852941513061523)
(X_318  0.6343137621879578)
(X_319  0.6696078777313232)
(X_320  0.6303921937942505)
(X_321  0.40882351994514465)
(X_322  0.3578431308269501)
(X_323  0.2872548997402191)
(X_324  0.3382352888584137)
(X_325  0.3343137204647064)
(X_326  0.31470587849617004)
(X_327  0.387254923582077)
(X_328  0.3637255132198334)
(X_329  0.2558823525905609)
(X_330  0.2598039209842682)
(X_331  0.3637255132198334)
(X_332  0.28333333134651184)
(X_333  0.387254923582077)
(X_334  0.29901960492134094)
(X_335  0.3068627417087555)
(X_336  0.44607844948768616)
(X_337  0.4264706075191498)
(X_338  0.41862747073173523)
(X_339  0.43431374430656433)
(X_340  0.4735294282436371)
(X_341  0.5323529243469238)
(X_342  0.6029412150382996)
(X_343  0.5578431487083435)
(X_344  0.5401960611343384)
(X_345  0.49705883860588074)
(X_346  0.5323529243469238)
(X_347  0.551960825920105)
(X_348  0.5343137383460999)
(X_349  0.5578431487083435)
(X_350  0.34607842564582825)
(X_351  0.2852941155433655)
(X_352  0.32058826088905334)
(X_353  0.32058826088905334)
(X_354  0.31666669249534607)
(X_355  0.30098041892051697)
(X_356  0.2813725471496582)
(X_357  0.2774509787559509)
(X_358  0.30098041892051697)
(X_359  0.3284313976764679)
(X_360  0.30490198731422424)
(X_361  0.3127451241016388)
(X_362  0.21666668355464935)
(X_363  0.2088235467672348)
(X_364  0.27156862616539)
(X_365  0.2598039209842682)
(X_366  0.23235295712947845)
(X_367  0.33627453446388245)
(X_368  0.40294119715690613)
(X_369  0.49705883860588074)
(X_370  0.44411763548851013)
(X_371  0.44019606709480286)
(X_372  0.2598039209842682)
(X_373  0.25196078419685364)
(X_374  0.3950980603694916)
(X_375  0.3245098292827606)
(X_376  0.457843154668808)
(X_377  0.5539215803146362)
(X_378  0.37745097279548645)
(X_379  0.18921568989753723)
(X_380  0.18137255311012268)
(X_381  0.27352941036224365)
(X_382  0.2774509787559509)
(X_383  0.2852941155433655)
(X_384  0.18137255311012268)
(X_385  0.16568627953529358)
(X_386  0.16568627953529358)
(X_387  0.17352941632270813)
(X_388  0.3088235557079315)
(X_389  0.31666669249534607)
(X_390  0.3127451241016388)
(X_391  0.18529412150382996)
(X_392  0.2970588207244873)
(X_393  0.2970588207244873)
(X_394  0.2656862735748291)
(X_395  0.25)
(X_396  0.33235296607017517)
(X_397  0.43039217591285706)
(X_398  0.31078431010246277)
(X_399  0.21666668355464935)
(X_400  0.1774509847164154)
(X_401  0.29313725233078003)
(X_402  0.2696078419685364)
(X_403  0.2029411792755127)
(X_404  0.17352941632270813)
(X_405  0.33039215207099915)
(X_406  0.36176469922065735)
(X_407  0.41470590233802795)
(X_408  0.2970588207244873)
(X_409  0.24607843160629272)
(X_410  0.21078431606292725)
(X_411  0.2343137264251709)
(X_412  0.2656862735748291)
(X_413  0.2617647051811218)
(X_414  0.2343137264251709)
(X_415  0.21078431606292725)
(X_416  0.1617647111415863)
(X_417  0.1774509847164154)
(X_418  0.16960784792900085)
(X_419  0.13823530077934265)
(X_420  0.16568627953529358)
(X_421  0.18529412150382996)
(X_422  0.2539215683937073)
(X_423  0.2343137264251709)
(X_424  0.21666668355464935)
(X_425  0.3068627417087555)
(X_426  0.23235295712947845)
(X_427  0.1715686321258545)
(X_428  0.0833333432674408)
(X_429  0.11862745881080627)
(X_430  0.07549020648002625)
(X_431  0.14215686917304993)
(X_432  0.23039215803146362)
(X_433  0.2029411792755127)
(X_434  0.29509803652763367)
(X_435  0.4049019515514374)
(X_436  0.27941176295280457)
(X_437  0.2813725471496582)
(X_438  0.21470588445663452)
(X_439  0.24607843160629272)
(X_440  0.2245098203420639)
(X_441  0.2558823525905609)
(X_442  0.23627452552318573)
(X_443  0.20490197837352753)
(X_444  0.14215686917304993)
(X_445  0.1617647111415863)
(X_446  0.15784314274787903)
(X_447  0.2343137264251709)
(X_448  0.3715686500072479)
(X_449  0.30098041892051697)
(X_450  0.28921568393707275)
(X_451  0.3598039448261261)
(X_452  0.2872548997402191)
(X_453  0.21274511516094208)
(X_454  0.2186274528503418)
(X_455  0.17549020051956177)
(X_456  0.16372549533843994)
(X_457  0.17941176891326904)
(X_458  0.18333333730697632)
(X_459  0.1558823585510254)
(X_460  0.1401960849761963)
(X_461  0.1872549057006836)
(X_462  0.18921568989753723)
(X_463  0.27941176295280457)
(X_464  0.26764705777168274)
(X_465  0.19705882668495178)
(X_466  0.1931372582912445)
(X_467  0.38333335518836975)
(X_468  0.4264706075191498)
(X_469  0.38333335518836975)
(X_470  0.3480392396450043)
(X_471  0.3637255132198334)
(X_472  0.344117671251297)
(X_473  0.3127451241016388)
(X_474  0.27352941036224365)
(X_475  0.25)
(X_476  0.44019606709480286)
(X_477  0.3696078360080719)
(X_478  0.41470590233802795)
(X_479  0.39901962876319885)
(X_480  0.2598039209842682)
(X_481  0.1617647111415863)
(X_482  0.05980392172932625)
(X_483  0.004901961423456669)
(X_484  0.14411765336990356)
(X_485  0.16764706373214722)
(X_486  0.18333333730697632)
(X_487  0.0676470622420311)
(X_488  0.04411764815449715)
(X_489  0.0519607849419117)
(X_490  0.10294118523597717)
(X_491  0.15392157435417175)
(X_492  0.23235295712947845)
(X_493  0.23235295712947845)
(X_494  0.2598039209842682)
(X_495  0.387254923582077)
(X_496  0.344117671251297)
(X_497  0.27352941036224365)
(X_498  0.2774509787559509)
(X_499  0.22843138873577118)
(X_500  0.3382352888584137)
(X_501  0.3892156779766083)
(X_502  0.40882351994514465)
(X_503  0.3735294044017792)
(X_504  0.23627452552318573)
(X_505  0.32058826088905334)
(X_506  0.29313725233078003)
(X_507  0.2656862735748291)
(X_508  0.23823529481887817)
(X_509  0.10686275362968445)
(X_510  0.07156863063573837)
(X_511  0.04803921654820442)
(X_512  0.020588237792253494)
(X_513  0.04411764815449715)
(X_514  0.0676470622420311)
(X_515  0.07156863063573837)
(X_516  0.0676470622420311)
(X_517  0.07941177487373352)
(X_518  0.10294118523597717)
(X_519  0.1303921639919281)
(X_520  0.16960784792900085)
(X_521  0.21666668355464935)
(X_522  0.26372548937797546)
(X_523  0.2558823525905609)
(X_524  0.19705882668495178)
(X_525  0.15000000596046448)
(X_526  0.2774509787559509)
(X_527  0.3284313976764679)
(X_528  0.27941176295280457)
(X_529  0.385294109582901)
(X_530  0.4323529303073883)
(X_531  0.37745097279548645)
(X_532  0.23039215803146362)
(X_533  0.25784313678741455)
(X_534  0.24607843160629272)
(X_535  0.19901961088180542)
(X_536  0.16764706373214722)
(X_537  0.07156863063573837)
(X_538  0.07156863063573837)
(X_539  0.15980392694473267)
(X_540  0.036274511367082596)
(X_541  0.036274511367082596)
(X_542  0.1401960849761963)
(X_543  0.14803922176361084)
(X_544  0.16372549533843994)
(X_545  0.19509804248809814)
(X_546  0.1303921639919281)
(X_547  0.15392157435417175)
(X_548  0.22647058963775635)
(X_549  0.2539215683937073)
(X_550  0.2774509787559509)
(X_551  0.27352941036224365)
(X_552  0.2656862735748291)
(X_553  0.27352941036224365)
(X_554  0.18137255311012268)
(X_555  0.1774509847164154)
(X_556  0.2343137264251709)
(X_557  0.19705882668495178)
(X_558  0.21666668355464935)
(X_559  0.16960784792900085)
(X_560  0.114705890417099)
(X_561  0.15392157435417175)
(X_562  0.15000000596046448)
(X_563  0.08725491166114807)
(X_564  0.04411764815449715)
(X_565  0.04019607976078987)
(X_566  0.04019607976078987)
(X_567  0.02450980618596077)
(X_568  0.06372549384832382)
(X_569  0.04803921654820442)
(X_570  0.03235294297337532)
(X_571  0.02450980618596077)
(X_572  0.036274511367082596)
(X_573  0.05588235333561897)
(X_574  0.07549020648002625)
(X_575  0.08725491166114807)
(X_576  0.09509804844856262)
(X_577  0.11078432202339172)
(X_578  0.10686275362968445)
(X_579  0.19509804248809814)
(X_580  0.19901961088180542)
(X_581  0.21470588445663452)
(X_582  0.10686275362968445)
(X_583  0.0833333432674408)
(X_584  0.08725491166114807)
(X_585  0.07156863063573837)
(X_586  0.0676470622420311)
(X_587  0.0676470622420311)
(X_588  0.10098039358854294)
(X_589  0.04019607976078987)
(X_590  0.15196079015731812)
(X_591  0.12843137979507446)
(X_592  0.012745101936161518)
(X_593  0.028431374579668045)
(X_594  0.136274516582489)
(X_595  0.12843137979507446)
(X_596  0.1401960849761963)
(X_597  0.036274511367082596)
(X_598  0.03235294297337532)
(X_599  0.036274511367082596)
(X_600  0.04019607976078987)
(X_601  0.04411764815449715)
(X_602  0.04019607976078987)
(X_603  0.036274511367082596)
(X_604  0.14803922176361084)
(X_605  0.07549020648002625)
(X_606  0.19117647409439087)
(X_607  0.1715686321258545)
(X_608  0.14803922176361084)
(X_609  0.14803922176361084)
(X_610  0.06372549384832382)
(X_611  0.07549020648002625)
(X_612  0.0676470622420311)
(X_613  0.028431374579668045)
(X_614  0.028431374579668045)
(X_615  0.16764706373214722)
(X_616  0.136274516582489)
(X_617  0.04019607976078987)
(X_618  0.1401960849761963)
(X_619  0.03235294297337532)
(X_620  0.12843137979507446)
(X_621  0.12450980395078659)
(X_622  0.02450980618596077)
(X_623  0.01666666939854622)
(X_624  0.11274509876966476)
(X_625  0.11666666716337204)
(X_626  0.12843137979507446)
(X_627  0.136274516582489)
(X_628  0.14411765336990356)
(X_629  0.04411764815449715)
(X_630  0.14411765336990356)
(X_631  0.1401960849761963)
(X_632  0.028431374579668045)
(X_633  0.04411764815449715)
(X_634  0.15980392694473267)
(X_635  0.15980392694473267)
(X_636  0.1401960849761963)
(X_637  0.12843137979507446)
(X_638  0.15196079015731812)
(X_639  0.1872549057006836)
(X_640  0.13235294818878174)
(X_641  0.11666666716337204)
(X_642  0.11666666716337204)
(X_643  0.1401960849761963)
(X_644  0.1401960849761963)
(X_645  0.02450980618596077)
(X_646  0.11274509876966476)
(X_647  0.12058823555707932)
(X_648  0.12843137979507446)
(X_649  0.12450980395078659)
(X_650  0.12450980395078659)
(X_651  0.12450980395078659)
(X_652  0.12450980395078659)
(X_653  0.02450980618596077)
(X_654  0.020588237792253494)
(X_655  0.012745101936161518)
(X_656  0.008823529817163944)
(X_657  0.012745101936161518)
(X_658  0.020588237792253494)
(X_659  0.028431374579668045)
(X_660  0.15980392694473267)
(X_661  0.12843137979507446)
(X_662  0.11274509876966476)
(X_663  0.12843137979507446)
(X_664  0.03235294297337532)
(X_665  0.11666666716337204)
(X_666  0.11274509876966476)
(X_667  0.028431374579668045)
(X_668  0.028431374579668045)
(X_669  0.04411764815449715)
(X_670  0.03235294297337532)
(X_671  0.004901961423456669)
(X_672  0.12450980395078659)
(X_673  0.028431374579668045)
(X_674  0.036274511367082596)
(X_675  0.03235294297337532)
(X_676  0.02450980618596077)
(X_677  0.12058823555707932)
(X_678  0.12058823555707932)
(X_679  0.12058823555707932)
(X_680  0.12058823555707932)
(X_681  0.12450980395078659)
(X_682  0.12450980395078659)
(X_683  0.12058823555707932)
(X_684  0.11666666716337204)
(X_685  0.11274509876966476)
(X_686  0.012745101936161518)
(X_687  0.01666666939854622)
(X_688  0.12058823555707932)
(X_689  0.11666666716337204)
(X_690  0.11666666716337204)
(X_691  0.020588237792253494)
(X_692  0.12843137979507446)
(X_693  0.136274516582489)
(X_694  0.03235294297337532)
(X_695  0.028431374579668045)
(X_696  0.12843137979507446)
(X_697  0.13235294818878174)
(X_698  0.136274516582489)
(X_699  0.1401960849761963)
(X_700  0.07745098322629929)
(X_701  -0.014705880545079708)
(X_702  0.09705882519483566)
(X_703  0.10882353037595749)
(X_704  0.01666666939854622)
(X_705  0.02450980618596077)
(X_706  0.03235294297337532)
(X_707  0.036274511367082596)
(X_708  0.012745101936161518)
(X_709  0.01666666939854622)
(X_710  0.02450980618596077)
(X_711  0.12843137979507446)
(X_712  0.13235294818878174)
(X_713  0.036274511367082596)
(X_714  0.04411764815449715)
(X_715  0.04803921654820442)
(X_716  0.12450980395078659)
(X_717  0.11666666716337204)
(X_718  0.012745101936161518)
(X_719  0.01666666939854622)
(X_720  0.02450980618596077)
(X_721  0.028431374579668045)
(X_722  0.02450980618596077)
(X_723  0.12058823555707932)
(X_724  0.02450980618596077)
(X_725  0.028431374579668045)
(X_726  0.13235294818878174)
(X_727  0.136274516582489)
(X_728  0.14411765336990356)
(X_729  0.04019607976078987)
(X_730  0.13235294818878174)
(X_731  0.12058823555707932)
(X_732  0.10882353037595749)
(X_733  -0.006862743757665157)
(X_734  -0.018627449870109558)
(X_735  0.07352941483259201)
(X_736  0.10882353037595749)
(X_737  0.10490196198225021)
(X_738  0.10098039358854294)
(X_739  0.09705882519483566)
(X_740  0.09313725680112839)
(X_741  0.08921568840742111)
(X_742  0.08921568840742111)
(X_743  0.08921568840742111)
(X_744  0.02450980618596077)
(X_745  0.01666666939854622)
(X_746  0.012745101936161518)
(X_747  0.012745101936161518)
(X_748  0.01666666939854622)
(X_749  0.020588237792253494)
(X_750  0.012745101936161518)
(X_751  0.008823529817163944)
(X_752  0.11666666716337204)
(X_753  0.12058823555707932)
(X_754  0.12450980395078659)
(X_755  0.12843137979507446)
(X_756  0.6500000357627869)
(X_757  0.5264706015586853)
(X_758  0.4911764860153198)
(X_759  0.4480392038822174)
(X_760  0.4009803831577301)
(X_761  0.4539215862751007)
(X_762  0.4107843339443207)
(X_763  0.387254923582077)
(X_764  0.3127451241016388)
(X_765  0.2970588207244873)
(X_766  0.2696078419685364)
(X_767  0.23823529481887817)
(X_768  0.21470588445663452)
(X_769  0.09117648005485535)
(X_770  0.07156863063573837)
(X_771  0.05980392172932625)
(X_772  0.02450980618596077)
(X_773  0.01666666939854622)
(X_774  0.008823529817163944)
(X_775  0.008823529817163944)
(X_776  0.11274509876966476)
(X_777  0.10882353037595749)
(X_778  0.004901961423456669)
(X_779  -0.0029411755967885256)
(X_780  0.012745101936161518)
(X_781  0.012745101936161518)
(X_782  0.01666666939854622)
(X_783  0.020588237792253494)
(Y_0 -30.955570220947266)
(Y_1 29.420682907104492)
(Y_2 -22.42023468017578)
(Y_3 22.714101791381836))