((X_0  1.0382353067398071)
(X_1  0.9382352828979492)
(X_2  0.9421568512916565)
(X_3  0.9460784196853638)
(X_4  0.985410213470459)
(X_5  0.949999988079071)
(X_6  0.949999988079071)
(X_7  0.9793214797973633)
(X_8  1.0382353067398071)
(X_9  1.0421568155288696)
(X_10  1.0421568155288696)
(X_11  1.0460784435272217)
(X_12  0.9460784196853638)
(X_13  0.949999988079071)
(X_14  1.0499999523162842)
(X_15  1.0499999523162842)
(X_16  0.9382352828979492)
(X_17  0.9382352828979492)
(X_18  0.9421568512916565)
(X_19  0.9460784196853638)
(X_20  1.0499999523162842)
(X_21  1.0499999523162842)
(X_22  1.0460784435272217)
(X_23  1.0460784435272217)
(X_24  1.0499999523162842)
(X_25  1.0499999523162842)
(X_26  0.949999988079071)
(X_27  0.985410213470459)
(X_28  1.0499999523162842)
(X_29  0.949999988079071)
(X_30  0.949999988079071)
(X_31  0.949999988079071)
(X_32  0.9460784196853638)
(X_33  0.9421568512916565)
(X_34  0.9382352828979492)
(X_35  1.034313678741455)
(X_36  1.0499999523162842)
(X_37  1.0499999523162842)
(X_38  0.949999988079071)
(X_39  0.949999988079071)
(X_40  0.949999988079071)
(X_41  1.0499999523162842)
(X_42  1.0460784435272217)
(X_43  0.9421568512916565)
(X_44  1.0499999523162842)
(X_45  1.0145896673202515)
(X_46  0.949999988079071)
(X_47  0.949999988079071)
(X_48  0.949999988079071)
(X_49  0.9421568512916565)
(X_50  0.9382352828979492)
(X_51  0.9343137145042419)
(X_52  1.0460784435272217)
(X_53  1.0460784435272217)
(X_54  0.9460784196853638)
(X_55  1.0460784435272217)
(X_56  0.8343137502670288)
(X_57  0.7303921580314636)
(X_58  0.7225490212440491)
(X_59  0.7186274528503418)
(X_60  0.70686274766922)
(X_61  0.7029411792755127)
(X_62  0.6950980424880981)
(X_63  0.6911764740943909)
(X_64  0.6558823585510254)
(X_65  0.6480392217636108)
(X_66  0.6401960849761963)
(X_67  0.6284313797950745)
(X_68  0.6166666746139526)
(X_69  0.6049019694328308)
(X_70  0.5970588326454163)
(X_71  0.593137264251709)
(X_72  0.6146156191825867)
(X_73  0.5774509906768799)
(X_74  0.5656862854957581)
(X_75  0.5539215803146362)
(X_76  0.6460784673690796)
(X_77  0.638235330581665)
(X_78  0.638235330581665)
(X_79  0.638235330581665)
(X_80  0.6068627834320068)
(X_81  0.6068627834320068)
(X_82  0.5068627595901489)
(X_83  0.6068627834320068)
(X_84  0.22647058963775635)
(X_85  0.22254902124404907)
(X_86  0.12254902720451355)
(X_87  0.12254902720451355)
(X_88  0.12254902720451355)
(X_89  0.12254902720451355)
(X_90  0.12254902720451355)
(X_91  0.12254902720451355)
(X_92  0.25)
(X_93  0.1460784375667572)
(X_94  0.13823530077934265)
(X_95  0.1303921639919281)
(X_96  0.2186274528503418)
(X_97  0.21078431606292725)
(X_98  0.10294118523597717)
(X_99  0.19901961088180542)
(X_100  0.2029411792755127)
(X_101  0.19901961088180542)
(X_102  0.19117647409439087)
(X_103  0.11265485733747482)
(X_104  0.0833333432674408)
(X_105  0.08725491166114807)
(X_106  0.09509804844856262)
(X_107  0.0990196168422699)
(X_108  0.11862745881080627)
(X_109  0.11862745881080627)
(X_110  0.11862745881080627)
(X_111  0.2186274528503418)
(X_112  0.12049799412488937)
(X_113  0.19117647409439087)
(X_114  0.12049799412488937)
(X_115  0.09509804844856262)
(X_116  0.0990196168422699)
(X_117  0.10294118523597717)
(X_118  0.10294118523597717)
(X_119  0.10686275362968445)
(X_120  0.0990196168422699)
(X_121  0.0990196168422699)
(X_122  0.09509804844856262)
(X_123  0.19509804248809814)
(X_124  0.19509804248809814)
(X_125  0.19117647409439087)
(X_126  0.09117648005485535)
(X_127  0.09117648005485535)
(X_128  0.20686274766921997)
(X_129  0.2029411792755127)
(X_130  0.19901961088180542)
(X_131  0.19509804248809814)
(X_132  0.19901961088180542)
(X_133  0.20686274766921997)
(X_134  0.2186274528503418)
(X_135  0.22647058963775635)
(X_136  0.2029411792755127)
(X_137  0.1322627067565918)
(X_138  0.2029411792755127)
(X_139  0.2029411792755127)
(X_140  0.1872549057006836)
(X_141  0.1872549057006836)
(X_142  0.1872549057006836)
(X_143  0.18333333730697632)
(X_144  0.11265485733747482)
(X_145  0.0833333432674408)
(X_146  0.0833333432674408)
(X_147  0.17941176891326904)
(X_148  0.1872549057006836)
(X_149  0.1872549057006836)
(X_150  0.09117648005485535)
(X_151  0.09509804844856262)
(X_152  0.0990196168422699)
(X_153  0.2029411792755127)
(X_154  0.2029411792755127)
(X_155  0.20686274766921997)
(X_156  0.0990196168422699)
(X_157  0.19509804248809814)
(X_158  0.19117647409439087)
(X_159  0.1872549057006836)
(X_160  0.1872549057006836)
(X_161  0.12049799412488937)
(X_162  0.09509804844856262)
(X_163  0.19901961088180542)
(X_164  0.2186274528503418)
(X_165  0.11862745881080627)
(X_166  0.1479489803314209)
(X_167  0.2186274528503418)
(X_168  0.11862745881080627)
(X_169  0.2186274528503418)
(X_170  0.114705890417099)
(X_171  0.21078431606292725)
(X_172  0.20686274766921997)
(X_173  0.14227300882339478)
(X_174  0.10294118523597717)
(X_175  0.12834113836288452)
(X_176  0.13050830364227295)
(X_177  0.19509804248809814)
(X_178  0.19509804248809814)
(X_179  0.09509804844856262)
(X_180  0.0990196168422699)
(X_181  0.0990196168422699)
(X_182  0.19901961088180542)
(X_183  0.19901961088180542)
(X_184  0.21470588445663452)
(X_185  0.21078431606292725)
(X_186  0.21078431606292725)
(X_187  0.20686274766921997)
(X_188  0.20686274766921997)
(X_189  0.10686275362968445)
(X_190  0.10294118523597717)
(X_191  0.2029411792755127)
(X_192  0.1872549057006836)
(X_193  0.1872549057006836)
(X_194  0.08725491166114807)
(X_195  0.08725491166114807)
(X_196  0.09117648005485535)
(X_197  0.19117647409439087)
(X_198  0.19117647409439087)
(X_199  0.08725491166114807)
(X_200  0.08725491166114807)
(X_201  0.1540118157863617)
(X_202  0.18333333730697632)
(X_203  0.18333333730697632)
(X_204  0.09117648005485535)
(X_205  0.15793338418006897)
(X_206  0.08725491166114807)
(X_207  0.0833333432674408)
(X_208  0.07549020648002625)
(X_209  0.07156863063573837)
(X_210  0.07156863063573837)
(X_211  0.16764706373214722)
(X_212  0.16764706373214722)
(X_213  0.16764706373214722)
(X_214  0.07156863063573837)
(X_215  0.07549020648002625)
(X_216  0.07549020648002625)
(X_217  0.07549020648002625)
(X_218  0.1715686321258545)
(X_219  0.16764706373214722)
(X_220  0.16764706373214722)
(X_221  0.16764706373214722)
(X_222  0.0676470622420311)
(X_223  0.16764706373214722)
(X_224  0.07156863063573837)
(X_225  0.0833333432674408)
(X_226  0.15576621890068054)
(X_227  0.18333333730697632)
(X_228  0.07549020648002625)
(X_229  0.0676470622420311)
(X_230  0.07549020648002625)
(X_231  0.11874360591173172)
(X_232  0.19117647409439087)
(X_233  0.19117647409439087)
(X_234  0.09117648005485535)
(X_235  0.08725491166114807)
(X_236  0.08725491166114807)
(X_237  0.08725491166114807)
(X_238  0.1872549057006836)
(X_239  0.0833333432674408)
(X_240  0.09117648005485535)
(X_241  0.07941177487373352)
(X_242  0.16372549533843994)
(X_243  0.1558823585510254)
(X_244  0.1558823585510254)
(X_245  0.16372549533843994)
(X_246  0.16764706373214722)
(X_247  0.16764706373214722)
(X_248  0.06372549384832382)
(X_249  0.06372549384832382)
(X_250  0.06372549384832382)
(X_251  0.16764706373214722)
(X_252  0.0676470622420311)
(X_253  0.07549020648002625)
(X_254  0.07941177487373352)
(X_255  0.17549020051956177)
(X_256  0.16372549533843994)
(X_257  0.1558823585510254)
(X_258  0.16372549533843994)
(X_259  0.1322367936372757)
(X_260  0.07941177487373352)
(X_261  0.07941177487373352)
(X_262  0.07941177487373352)
(X_263  0.07941177487373352)
(X_264  0.17941176891326904)
(X_265  0.17549020051956177)
(X_266  0.1715686321258545)
(X_267  0.0676470622420311)
(X_268  0.07156863063573837)
(X_269  0.17549020051956177)
(X_270  0.18333333730697632)
(X_271  0.19117647409439087)
(X_272  0.09509804844856262)
(X_273  0.19117647409439087)
(X_274  0.18333333730697632)
(X_275  0.07549020648002625)
(X_276  0.08725491166114807)
(X_277  0.07549020648002625)
(X_278  0.05980392172932625)
(X_279  0.15196079015731812)
(X_280  0.1872549057006836)
(X_281  0.19117647409439087)
(X_282  0.09509804844856262)
(X_283  0.09117648005485535)
(X_284  0.0833333432674408)
(X_285  0.17941176891326904)
(X_286  0.18333333730697632)
(X_287  0.1872549057006836)
(X_288  0.0676470622420311)
(X_289  0.07156863063573837)
(X_290  0.07549020648002625)
(X_291  0.07941177487373352)
(X_292  0.10481172055006027)
(X_293  0.07156863063573837)
(X_294  0.06372549384832382)
(X_295  0.05980392172932625)
(X_296  0.17941176891326904)
(X_297  0.0833333432674408)
(X_298  0.08725491166114807)
(X_299  0.09117648005485535)
(X_300  0.1872549057006836)
(X_301  0.17941176891326904)
(X_302  0.1715686321258545)
(X_303  0.06372549384832382)
(X_304  0.0519607849419117)
(X_305  0.05980392172932625)
(X_306  0.07156863063573837)
(X_307  0.11874360591173172)
(X_308  0.16372549533843994)
(X_309  0.09696857631206512)
(X_310  0.07156863063573837)
(X_311  0.0676470622420311)
(X_312  0.0676470622420311)
(X_313  0.0676470622420311)
(X_314  0.07156863063573837)
(X_315  0.07156863063573837)
(X_316  0.06372549384832382)
(X_317  0.16764706373214722)
(X_318  0.17549020051956177)
(X_319  0.18333333730697632)
(X_320  0.11265485733747482)
(X_321  0.0833333432674408)
(X_322  0.07549020648002625)
(X_323  0.07156863063573837)
(X_324  0.07549020648002625)
(X_325  0.07549020648002625)
(X_326  0.07156863063573837)
(X_327  0.16764706373214722)
(X_328  0.16372549533843994)
(X_329  0.1715686321258545)
(X_330  0.1540118157863617)
(X_331  0.16185495257377625)
(X_332  0.07941177487373352)
(X_333  0.08725491166114807)
(X_334  0.09509804844856262)
(X_335  0.0990196168422699)
(X_336  0.07941177487373352)
(X_337  0.17549020051956177)
(X_338  0.17549020051956177)
(X_339  0.17941176891326904)
(X_340  0.1872549057006836)
(X_341  0.1872549057006836)
(X_342  0.19117647409439087)
(X_343  0.08725491166114807)
(X_344  0.1558823585510254)
(X_345  0.16372549533843994)
(X_346  0.07156863063573837)
(X_347  0.07941177487373352)
(X_348  0.0833333432674408)
(X_349  0.0833333432674408)
(X_350  0.0833333432674408)
(X_351  0.17941176891326904)
(X_352  0.14803922176361084)
(X_353  0.1558823585510254)
(X_354  0.16764706373214722)
(X_355  0.07156863063573837)
(X_356  0.17549020051956177)
(X_357  0.17941176891326904)
(X_358  0.19509804248809814)
(X_359  0.20686274766921997)
(X_360  0.0676470622420311)
(X_361  0.09913576394319534)
(X_362  0.05588235333561897)
(X_363  0.04019607976078987)
(X_364  0.0833333432674408)
(X_365  0.07941177487373352)
(X_366  0.07549020648002625)
(X_367  0.17549020051956177)
(X_368  0.17941176891326904)
(X_369  0.18333333730697632)
(X_370  0.07941177487373352)
(X_371  0.07156863063573837)
(X_372  0.05980392172932625)
(X_373  0.06372549384832382)
(X_374  0.06372549384832382)
(X_375  0.06372549384832382)
(X_376  0.09696857631206512)
(X_377  0.07156863063573837)
(X_378  0.07156863063573837)
(X_379  0.07549020648002625)
(X_380  0.14803922176361084)
(X_381  0.16764706373214722)
(X_382  0.18333333730697632)
(X_383  0.18333333730697632)
(X_384  0.0676470622420311)
(X_385  0.0519607849419117)
(X_386  0.04803921654820442)
(X_387  0.04803921654820442)
(X_388  0.14411765336990356)
(X_389  0.1872549057006836)
(X_390  0.14215686917304993)
(X_391  0.1774509847164154)
(X_392  0.19117647409439087)
(X_393  0.17941176891326904)
(X_394  0.09696857631206512)
(X_395  0.12831522524356842)
(X_396  0.16372549533843994)
(X_397  0.15980392694473267)
(X_398  0.14803922176361084)
(X_399  0.136274516582489)
(X_400  0.19117647409439087)
(X_401  0.18333333730697632)
(X_402  0.1715686321258545)
(X_403  0.06372549384832382)
(X_404  0.05980392172932625)
(X_405  0.05980392172932625)
(X_406  0.06372549384832382)
(X_407  0.06372549384832382)
(X_408  0.07156863063573837)
(X_409  0.07941177487373352)
(X_410  0.11874360591173172)
(X_411  0.17549020051956177)
(X_412  0.15980392694473267)
(X_413  0.15980392694473267)
(X_414  0.17549020051956177)
(X_415  0.19509804248809814)
(X_416  0.1931372582912445)
(X_417  0.3558823764324188)
(X_418  0.3343137204647064)
(X_419  0.39313724637031555)
(X_420  0.21666668355464935)
(X_421  0.20098040997982025)
(X_422  0.18529412150382996)
(X_423  0.17352941632270813)
(X_424  0.16960784792900085)
(X_425  0.15784314274787903)
(X_426  0.20891377329826355)
(X_427  0.22254902124404907)
(X_428  0.12254902720451355)
(X_429  0.21078431606292725)
(X_430  0.09117648005485535)
(X_431  0.07156863063573837)
(X_432  0.05980392172932625)
(X_433  0.15980392694473267)
(X_434  0.12439365684986115)
(X_435  0.06372549384832382)
(X_436  0.1715686321258545)
(X_437  0.16764706373214722)
(X_438  0.15980392694473267)
(X_439  0.1558823585510254)
(X_440  0.17549020051956177)
(X_441  0.23039215803146362)
(X_442  0.2088235467672348)
(X_443  0.26764705777168274)
(X_444  0.34215685725212097)
(X_445  0.3499999940395355)
(X_446  0.3499999940395355)
(X_447  0.43039217591285706)
(X_448  0.47745099663734436)
(X_449  0.37745097279548645)
(X_450  0.4696078598499298)
(X_451  0.45000001788139343)
(X_452  0.32647058367729187)
(X_453  0.31470587849617004)
(X_454  0.41862747073173523)
(X_455  0.4264706075191498)
(X_456  0.43039217591285706)
(X_457  0.4068627655506134)
(X_458  0.3754902184009552)
(X_459  0.3480392396450043)
(X_460  0.32058826088905334)
(X_461  0.2813725471496582)
(X_462  0.20282503962516785)
(X_463  0.16753092408180237)
(X_464  0.15971368551254272)
(X_465  0.17147839069366455)
(X_466  0.21853721141815186)
(X_467  0.3558823764324188)
(X_468  0.33835145831108093)
(X_469  0.4107843339443207)
(X_470  0.39901962876319885)
(X_471  0.3950980603694916)
(X_472  0.3911764919757843)
(X_473  0.3480392396450043)
(X_474  0.33627453446388245)
(X_475  0.26764705777168274)
(X_476  0.31078431010246277)
(X_477  0.3029411733150482)
(X_478  0.39901962876319885)
(X_479  0.39901962876319885)
(X_480  0.3029411733150482)
(X_481  0.3029411733150482)
(X_482  0.29901960492134094)
(X_483  0.36577653884887695)
(X_484  0.3950980603694916)
(X_485  0.38333335518836975)
(X_486  0.2598039209842682)
(X_487  0.23627452552318573)
(X_488  0.2245098203420639)
(X_489  0.22843138873577118)
(X_490  0.240196093916893)
(X_491  0.25196078419685364)
(X_492  0.24411766231060028)
(X_493  0.25196078419685364)
(X_494  0.36764708161354065)
(X_495  0.3794117867946625)
(X_496  0.30305734276771545)
(X_497  0.3401961028575897)
(X_498  0.33627453446388245)
(X_499  0.31262895464897156)
(X_500  0.18921568989753723)
(X_501  0.2245098203420639)
(X_502  0.2911764681339264)
(X_503  0.3578431308269501)
(X_504  0.2245098203420639)
(X_505  0.2773348391056061)
(X_506  0.3088235557079315)
(X_507  0.32058826088905334)
(X_508  0.304785817861557)
(X_509  0.2795279324054718)
(X_510  0.33235296607017517)
(X_511  0.3127451241016388)
(X_512  0.23235295712947845)
(X_513  0.25196078419685364)
(X_514  0.26372548937797546)
(X_515  0.24803923070430756)
(X_516  0.21666668355464935)
(X_517  0.18529412150382996)
(X_518  0.17352941632270813)
(X_519  0.17352941632270813)
(X_520  0.1617647111415863)
(X_521  0.18921568989753723)
(X_522  0.22843138873577118)
(X_523  0.25196078419685364)
(X_524  0.23235295712947845)
(X_525  0.2088235467672348)
(X_526  0.21666668355464935)
(X_527  0.2834495007991791)
(X_528  0.23235295712947845)
(X_529  0.29901960492134094)
(X_530  0.3735294044017792)
(X_531  0.4166666567325592)
(X_532  0.32058826088905334)
(X_533  0.32058826088905334)
(X_534  0.32058826088905334)
(X_535  0.3245098292827606)
(X_536  0.32058826088905334)
(X_537  0.3088235557079315)
(X_538  0.29313725233078003)
(X_539  0.2774509787559509)
(X_540  0.21274511516094208)
(X_541  0.23627452552318573)
(X_542  0.33440399169921875)
(X_543  0.31090047955513)
(X_544  0.30089014768600464)
(X_545  0.25196078419685364)
(X_546  0.240196093916893)
(X_547  0.23627452552318573)
(X_548  0.551960825920105)
(X_549  0.40882351994514465)
(X_550  0.3499999940395355)
(X_551  0.29901960492134094)
(X_552  0.27156862616539)
(X_553  0.387254923582077)
(X_554  0.4539215862751007)
(X_555  0.5245097875595093)
(X_556  0.5598039627075195)
(X_557  0.5598039627075195)
(X_558  0.5088235139846802)
(X_559  0.3579593002796173)
(X_560  0.48725491762161255)
(X_561  0.5068627595901489)
(X_562  0.522549033164978)
(X_563  0.5107843279838562)
(X_564  0.479411780834198)
(X_565  0.4873710870742798)
(X_566  0.44411763548851013)
(X_567  0.44411763548851013)
(X_568  0.5598039627075195)
(X_569  0.5323529243469238)
(X_570  0.49705883860588074)
(X_571  0.47745099663734436)
(X_572  0.4459622800350189)
(X_573  0.42638033628463745)
(X_574  0.5127450823783875)
(X_575  0.4205882251262665)
(X_576  0.33235296607017517)
(X_577  0.26764705777168274)
(X_578  0.34215685725212097)
(X_579  0.42450979351997375)
(X_580  0.4637255072593689)
(X_581  0.5087073445320129)
(X_582  0.5009803771972656)
(X_583  0.47745099663734436)
(X_584  0.44812947511672974)
(X_585  0.3382352888584137)
(X_586  0.24411766231060028)
(X_587  0.14215686917304993)
(X_588  0.3598039448261261)
(X_589  0.3518446385860443)
(X_590  0.34402740001678467)
(X_591  0.3029411733150482)
(X_592  0.26372548937797546)
(X_593  0.3401961028575897)
(X_594  0.24411766231060028)
(X_595  0.2598039209842682)
(X_596  0.4421568810939789)
(X_597  0.3029411733150482)
(X_598  0.2598039209842682)
(X_599  0.22843138873577118)
(X_600  0.22058825194835663)
(X_601  0.24598819017410278)
(X_602  0.30490198731422424)
(X_603  0.2970588207244873)
(X_604  0.3598039448261261)
(X_605  0.30490198731422424)
(X_606  0.2656862735748291)
(X_607  0.2656862735748291)
(X_608  0.2852941155433655)
(X_609  0.2852941155433655)
(X_610  0.23811915516853333)
(X_611  0.2656862735748291)
(X_612  0.2343137264251709)
(X_613  0.11862745881080627)
(X_614  0.09117648005485535)
(X_615  0.07549020648002625)
(X_616  0.24607843160629272)
(X_617  0.2696078419685364)
(X_618  0.18921568989753723)
(X_619  0.18529412150382996)
(X_620  0.16960784792900085)
(X_621  0.2539215683937073)
(X_622  0.2617647051811218)
(X_623  0.17352941632270813)
(X_624  0.2186274528503418)
(X_625  0.22647058963775635)
(X_626  0.23823529481887817)
(X_627  0.21851131319999695)
(X_628  0.1617647111415863)
(X_629  0.1617647111415863)
(X_630  0.15000000596046448)
(X_631  0.13823530077934265)
(X_632  0.24607843160629272)
(X_633  0.10686275362968445)
(X_634  0.08725491166114807)
(X_635  0.114705890417099)
(X_636  0.15392157435417175)
(X_637  0.2617647051811218)
(X_638  0.24215686321258545)
(X_639  0.22647058963775635)
(X_640  0.20686274766921997)
(X_641  0.19509804248809814)
(X_642  0.19509804248809814)
(X_643  0.2029411792755127)
(X_644  0.19117647409439087)
(X_645  0.19901961088180542)
(X_646  0.20686274766921997)
(X_647  0.21078431606292725)
(X_648  0.21078431606292725)
(X_649  0.21078431606292725)
(X_650  0.20686274766921997)
(X_651  0.21078431606292725)
(X_652  0.19117647409439087)
(X_653  0.09509804844856262)
(X_654  0.09117648005485535)
(X_655  0.07549020648002625)
(X_656  0.05980392172932625)
(X_657  0.06372549384832382)
(X_658  0.0833333432674408)
(X_659  0.10686275362968445)
(X_660  0.19714906811714172)
(X_661  0.15009024739265442)
(X_662  0.14411765336990356)
(X_663  0.1558823585510254)
(X_664  0.07549020648002625)
(X_665  0.11090046912431717)
(X_666  0.13440397381782532)
(X_667  0.05588235333561897)
(X_668  0.05980392172932625)
(X_669  0.04019607976078987)
(X_670  0.04803921654820442)
(X_671  0.0676470622420311)
(X_672  0.16372549533843994)
(X_673  0.07156863063573837)
(X_674  0.0833333432674408)
(X_675  0.09117648005485535)
(X_676  0.09117648005485535)
(X_677  0.17941176891326904)
(X_678  0.16372549533843994)
(X_679  0.0519607849419117)
(X_680  0.036274511367082596)
(X_681  0.04803921654820442)
(X_682  0.05588235333561897)
(X_683  0.0519607849419117)
(X_684  0.04411764815449715)
(X_685  0.04019607976078987)
(X_686  0.0519607849419117)
(X_687  0.05980392172932625)
(X_688  0.06372549384832382)
(X_689  0.05588235333561897)
(X_690  0.04803921654820442)
(X_691  0.04019607976078987)
(X_692  0.07560635358095169)
(X_693  0.11479613929986954)
(X_694  0.14803922176361084)
(X_695  0.1558823585510254)
(X_696  0.14411765336990356)
(X_697  0.14411765336990356)
(X_698  0.14411765336990356)
(X_699  0.14411765336990356)
(X_700  0.14411765336990356)
(X_701  0.07736073434352875)
(X_702  0.1558823585510254)
(X_703  0.16372549533843994)
(X_704  0.09521419554948807)
(X_705  0.0519607849419117)
(X_706  0.04019607976078987)
(X_707  0.036274511367082596)
(X_708  0.028431374579668045)
(X_709  0.04019607976078987)
(X_710  0.04411764815449715)
(X_711  0.04411764815449715)
(X_712  0.136274516582489)
(X_713  0.136274516582489)
(X_714  0.04019607976078987)
(X_715  0.0519607849419117)
(X_716  0.1558823585510254)
(X_717  0.15196079015731812)
(X_718  0.04411764815449715)
(X_719  0.036274511367082596)
(X_720  0.036274511367082596)
(X_721  0.04019607976078987)
(X_722  0.04411764815449715)
(X_723  0.14803922176361084)
(X_724  0.136274516582489)
(X_725  0.136274516582489)
(X_726  0.136274516582489)
(X_727  0.136274516582489)
(X_728  0.12843137979507446)
(X_729  0.13235294818878174)
(X_730  0.13235294818878174)
(X_731  0.136274516582489)
(X_732  0.13235294818878174)
(X_733  0.13235294818878174)
(X_734  0.12450980395078659)
(X_735  0.02450980618596077)
(X_736  0.020588237792253494)
(X_737  0.028431374579668045)
(X_738  0.03235294297337532)
(X_739  0.03235294297337532)
(X_740  0.028431374579668045)
(X_741  0.12843137979507446)
(X_742  0.03235294297337532)
(X_743  0.04019607976078987)
(X_744  0.04803921654820442)
(X_745  0.04411764815449715)
(X_746  0.11087457090616226)
(X_747  0.03235294297337532)
(X_748  0.03235294297337532)
(X_749  0.13235294818878174)
(X_750  0.04019607976078987)
(X_751  0.1401960849761963)
(X_752  0.12843137979507446)
(X_753  0.12843137979507446)
(X_754  0.12843137979507446)
(X_755  0.12843137979507446)
(X_756  0.13235294818878174)
(X_757  0.028431374579668045)
(X_758  0.12843137979507446)
(X_759  0.12450980395078659)
(X_760  0.02450980618596077)
(X_761  0.02450980618596077)
(X_762  0.05775288864970207)
(X_763  0.028431374579668045)
(X_764  0.12058823555707932)
(X_765  0.12450980395078659)
(X_766  0.02450980618596077)
(X_767  0.028431374579668045)
(X_768  0.028431374579668045)
(X_769  0.028431374579668045)
(X_770  0.028431374579668045)
(X_771  0.03235294297337532)
(X_772  0.04019607976078987)
(X_773  0.04019607976078987)
(X_774  0.03235294297337532)
(X_775  0.028431374579668045)
(X_776  0.028431374579668045)
(X_777  0.028431374579668045)
(X_778  0.03235294297337532)
(X_779  0.13235294818878174)
(X_780  0.02450980618596077)
(X_781  0.02450980618596077)
(X_782  0.02450980618596077)
(X_783  0.02450980618596077)
(Y_0 -16.52020263671875)
(Y_1 14.911698341369629)
(Y_2 -12.730746269226074)
(Y_3 15.037271499633789))