((X_0  0.136274516582489)
(X_1  0.1401960849761963)
(X_2  0.14411765336990356)
(X_3  0.14411765336990356)
(X_4  0.136274516582489)
(X_5  0.12843137979507446)
(X_6  0.02450980618596077)
(X_7  0.02450980618596077)
(X_8  0.01666666939854622)
(X_9  0.13235294818878174)
(X_10  0.1401960849761963)
(X_11  0.136274516582489)
(X_12  0.12450980395078659)
(X_13  0.12058823555707932)
(X_14  0.13235294818878174)
(X_15  0.14411765336990356)
(X_16  0.0833333432674408)
(X_17  0.07156863063573837)
(X_18  0.05588235333561897)
(X_19  0.04411764815449715)
(X_20  0.1401960849761963)
(X_21  0.136274516582489)
(X_22  0.03235294297337532)
(X_23  0.028431374579668045)
(X_24  0.1401960849761963)
(X_25  0.136274516582489)
(X_26  0.03235294297337532)
(X_27  0.12843137979507446)
(X_28  0.12843137979507446)
(X_29  0.13235294818878174)
(X_30  0.13235294818878174)
(X_31  0.12843137979507446)
(X_32  0.028431374579668045)
(X_33  0.028431374579668045)
(X_34  0.036274511367082596)
(X_35  0.04019607976078987)
(X_36  0.04803921654820442)
(X_37  0.04411764815449715)
(X_38  0.04019607976078987)
(X_39  0.04019607976078987)
(X_40  0.04019607976078987)
(X_41  0.1401960849761963)
(X_42  0.1401960849761963)
(X_43  0.036274511367082596)
(X_44  0.12843137979507446)
(X_45  0.12058823555707932)
(X_46  0.11666666716337204)
(X_47  0.01666666939854622)
(X_48  0.02450980618596077)
(X_49  0.036274511367082596)
(X_50  0.04803921654820442)
(X_51  0.0519607849419117)
(X_52  0.1558823585510254)
(X_53  0.15980392694473267)
(X_54  0.05980392172932625)
(X_55  0.15980392694473267)
(X_56  0.14411765336990356)
(X_57  0.04019607976078987)
(X_58  0.03235294297337532)
(X_59  0.020588237792253494)
(X_60  0.01666666939854622)
(X_61  0.01666666939854622)
(X_62  0.020588237792253494)
(X_63  0.020588237792253494)
(X_64  0.03235294297337532)
(X_65  0.01666666939854622)
(X_66  0.008823529817163944)
(X_67  0.020588237792253494)
(X_68  0.04019607976078987)
(X_69  0.04803921654820442)
(X_70  0.04019607976078987)
(X_71  0.028431374579668045)
(X_72  0.05588235333561897)
(X_73  0.0519607849419117)
(X_74  0.14411765336990356)
(X_75  0.136274516582489)
(X_76  0.12843137979507446)
(X_77  0.12843137979507446)
(X_78  0.12843137979507446)
(X_79  0.12843137979507446)
(X_80  0.10490196198225021)
(X_81  0.008823529817163944)
(X_82  0.020588237792253494)
(X_83  0.12843137979507446)
(X_84  0.14803922176361084)
(X_85  0.14411765336990356)
(X_86  0.136274516582489)
(X_87  0.136274516582489)
(X_88  0.136274516582489)
(X_89  0.036274511367082596)
(X_90  0.03235294297337532)
(X_91  0.028431374579668045)
(X_92  0.04803921654820442)
(X_93  0.036274511367082596)
(X_94  0.028431374579668045)
(X_95  0.028431374579668045)
(X_96  0.136274516582489)
(X_97  0.1401960849761963)
(X_98  0.136274516582489)
(X_99  0.12843137979507446)
(X_100  0.12058823555707932)
(X_101  0.13235294818878174)
(X_102  0.14411765336990356)
(X_103  0.0519607849419117)
(X_104  0.0519607849419117)
(X_105  0.04803921654820442)
(X_106  0.04803921654820442)
(X_107  0.04411764815449715)
(X_108  0.0519607849419117)
(X_109  0.0519607849419117)
(X_110  0.0519607849419117)
(X_111  0.14803922176361084)
(X_112  0.03235294297337532)
(X_113  0.028431374579668045)
(X_114  0.03235294297337532)
(X_115  0.14411765336990356)
(X_116  0.1558823585510254)
(X_117  0.1558823585510254)
(X_118  0.04411764815449715)
(X_119  0.136274516582489)
(X_120  0.06372549384832382)
(X_121  0.06372549384832382)
(X_122  0.05980392172932625)
(X_123  0.04411764815449715)
(X_124  0.028431374579668045)
(X_125  0.02450980618596077)
(X_126  0.036274511367082596)
(X_127  0.14803922176361084)
(X_128  0.14803922176361084)
(X_129  0.1872549057006836)
(X_130  0.23823529481887817)
(X_131  0.2852941155433655)
(X_132  0.3127451241016388)
(X_133  0.33235296607017517)
(X_134  0.344117671251297)
(X_135  0.35196080803871155)
(X_136  0.18921568989753723)
(X_137  0.17352941632270813)
(X_138  0.25)
(X_139  0.22647058963775635)
(X_140  0.1401960849761963)
(X_141  0.12843137979507446)
(X_142  0.12058823555707932)
(X_143  0.12450980395078659)
(X_144  0.13235294818878174)
(X_145  0.03235294297337532)
(X_146  0.012745101936161518)
(X_147  0.09705882519483566)
(X_148  0.09705882519483566)
(X_149  0.10882353037595749)
(X_150  0.012745101936161518)
(X_151  0.008823529817163944)
(X_152  0.008823529817163944)
(X_153  0.028431374579668045)
(X_154  0.16764706373214722)
(X_155  0.2029411792755127)
(X_156  0.21666668355464935)
(X_157  0.24803923070430756)
(X_158  0.2911764681339264)
(X_159  0.4225490391254425)
(X_160  0.43431374430656433)
(X_161  0.3382352888584137)
(X_162  0.34607842564582825)
(X_163  0.3539215624332428)
(X_164  0.3735294044017792)
(X_165  0.36176469922065735)
(X_166  0.34607842564582825)
(X_167  0.43039217591285706)
(X_168  0.0519607849419117)
(X_169  0.136274516582489)
(X_170  0.12450980395078659)
(X_171  0.136274516582489)
(X_172  0.15980392694473267)
(X_173  0.07941177487373352)
(X_174  0.0833333432674408)
(X_175  0.07941177487373352)
(X_176  0.15196079015731812)
(X_177  0.14411765336990356)
(X_178  0.04019607976078987)
(X_179  0.04411764815449715)
(X_180  0.06372549384832382)
(X_181  0.2029411792755127)
(X_182  0.25)
(X_183  0.2813725471496582)
(X_184  0.3558823764324188)
(X_185  0.3715686500072479)
(X_186  0.38333335518836975)
(X_187  0.3794117867946625)
(X_188  0.3598039448261261)
(X_189  0.24803923070430756)
(X_190  0.25196078419685364)
(X_191  0.3637255132198334)
(X_192  0.3754902184009552)
(X_193  0.3794117867946625)
(X_194  0.2872548997402191)
(X_195  0.29901960492134094)
(X_196  0.036274511367082596)
(X_197  0.12843137979507446)
(X_198  0.13235294818878174)
(X_199  0.17549020051956177)
(X_200  0.24215686321258545)
(X_201  0.3127451241016388)
(X_202  0.3598039448261261)
(X_203  0.3794117867946625)
(X_204  0.2558823525905609)
(X_205  0.32058826088905334)
(X_206  0.2813725471496582)
(X_207  0.2656862735748291)
(X_208  0.18137255311012268)
(X_209  0.2088235467672348)
(X_210  0.23235295712947845)
(X_211  0.24411766231060028)
(X_212  0.30098041892051697)
(X_213  0.3127451241016388)
(X_214  0.2245098203420639)
(X_215  0.22058825194835663)
(X_216  0.21666668355464935)
(X_217  0.3284313976764679)
(X_218  0.3598039448261261)
(X_219  0.387254923582077)
(X_220  0.3754902184009552)
(X_221  0.387254923582077)
(X_222  0.3029411733150482)
(X_223  0.41470590233802795)
(X_224  0.012745101936161518)
(X_225  0.07941177487373352)
(X_226  0.2696078419685364)
(X_227  0.3480392396450043)
(X_228  0.4107843339443207)
(X_229  0.34607842564582825)
(X_230  0.3343137204647064)
(X_231  0.31078431010246277)
(X_232  0.3637255132198334)
(X_233  0.3637255132198334)
(X_234  0.33235296607017517)
(X_235  0.2813725471496582)
(X_236  0.15784314274787903)
(X_237  0.16960784792900085)
(X_238  0.1774509847164154)
(X_239  0.16568627953529358)
(X_240  0.1617647111415863)
(X_241  0.25)
(X_242  0.23823529481887817)
(X_243  0.23039215803146362)
(X_244  0.23823529481887817)
(X_245  0.2617647051811218)
(X_246  0.28921568393707275)
(X_247  0.20490197837352753)
(X_248  0.20098040997982025)
(X_249  0.3480392396450043)
(X_250  0.26372548937797546)
(X_251  0.23627452552318573)
(X_252  0.16960784792900085)
(X_253  0.24803923070430756)
(X_254  0.32647058367729187)
(X_255  0.3382352888584137)
(X_256  0.4107843339443207)
(X_257  0.3715686500072479)
(X_258  0.3480392396450043)
(X_259  0.3284313976764679)
(X_260  0.2598039209842682)
(X_261  0.3401961028575897)
(X_262  0.30098041892051697)
(X_263  0.2696078419685364)
(X_264  0.2696078419685364)
(X_265  0.18529412150382996)
(X_266  0.16568627953529358)
(X_267  0.13431373238563538)
(X_268  0.03235294297337532)
(X_269  0.12843137979507446)
(X_270  0.12843137979507446)
(X_271  0.028431374579668045)
(X_272  0.03235294297337532)
(X_273  0.04019607976078987)
(X_274  0.0519607849419117)
(X_275  0.05980392172932625)
(X_276  0.17549020051956177)
(X_277  0.19509804248809814)
(X_278  0.1460784375667572)
(X_279  0.20490197837352753)
(X_280  0.40294119715690613)
(X_281  0.4107843339443207)
(X_282  0.2872548997402191)
(X_283  0.22843138873577118)
(X_284  0.18137255311012268)
(X_285  0.1774509847164154)
(X_286  0.2970588207244873)
(X_287  0.31666669249534607)
(X_288  0.11078432202339172)
(X_289  0.0833333432674408)
(X_290  0.05588235333561897)
(X_291  0.05980392172932625)
(X_292  0.0990196168422699)
(X_293  0.12254902720451355)
(X_294  0.09117648005485535)
(X_295  0.04019607976078987)
(X_296  0.10882353037595749)
(X_297  0.11666666716337204)
(X_298  0.12843137979507446)
(X_299  0.1401960849761963)
(X_300  0.14411765336990356)
(X_301  0.14411765336990356)
(X_302  0.14411765336990356)
(X_303  0.04019607976078987)
(X_304  0.03235294297337532)
(X_305  0.028431374579668045)
(X_306  0.11078432202339172)
(X_307  0.24803923070430756)
(X_308  0.3401961028575897)
(X_309  0.240196093916893)
(X_310  0.23235295712947845)
(X_311  0.2245098203420639)
(X_312  0.22058825194835663)
(X_313  0.2852941155433655)
(X_314  0.10686275362968445)
(X_315  0.03235294297337532)
(X_316  0.04803921654820442)
(X_317  0.13235294818878174)
(X_318  0.136274516582489)
(X_319  0.1715686321258545)
(X_320  0.22647058963775635)
(X_321  0.15392157435417175)
(X_322  0.1303921639919281)
(X_323  0.09509804844856262)
(X_324  0.2029411792755127)
(X_325  0.114705890417099)
(X_326  0.1303921639919281)
(X_327  0.1460784375667572)
(X_328  0.15392157435417175)
(X_329  0.2539215683937073)
(X_330  0.25)
(X_331  0.24215686321258545)
(X_332  0.1617647111415863)
(X_333  0.25)
(X_334  0.2088235467672348)
(X_335  0.41470590233802795)
(X_336  0.22843138873577118)
(X_337  0.20490197837352753)
(X_338  0.2696078419685364)
(X_339  0.2656862735748291)
(X_340  0.3088235557079315)
(X_341  0.3637255132198334)
(X_342  0.38333335518836975)
(X_343  0.27156862616539)
(X_344  0.3911764919757843)
(X_345  0.2911764681339264)
(X_346  0.31078431010246277)
(X_347  0.3499999940395355)
(X_348  0.3813725411891937)
(X_349  0.3892156779766083)
(X_350  0.37745097279548645)
(X_351  0.46568629145622253)
(X_352  0.4382353127002716)
(X_353  0.44607844948768616)
(X_354  0.45000001788139343)
(X_355  0.457843154668808)
(X_356  0.457843154668808)
(X_357  0.4539215862751007)
(X_358  0.45000001788139343)
(X_359  0.44607844948768616)
(X_360  0.38333335518836975)
(X_361  0.3754902184009552)
(X_362  0.26764705777168274)
(X_363  0.26372548937797546)
(X_364  0.11862745881080627)
(X_365  0.1931372582912445)
(X_366  0.27941176295280457)
(X_367  0.4225490391254425)
(X_368  0.4382353127002716)
(X_369  0.45000001788139343)
(X_370  0.4539215862751007)
(X_371  0.45000001788139343)
(X_372  0.41470590233802795)
(X_373  0.3186274468898773)
(X_374  0.43431374430656433)
(X_375  0.45000001788139343)
(X_376  0.34607842564582825)
(X_377  0.3225490152835846)
(X_378  0.31470587849617004)
(X_379  0.41862747073173523)
(X_380  0.39901962876319885)
(X_381  0.39901962876319885)
(X_382  0.29509803652763367)
(X_383  0.2872548997402191)
(X_384  0.27941176295280457)
(X_385  0.27156862616539)
(X_386  0.3598039448261261)
(X_387  0.3558823764324188)
(X_388  0.35196080803871155)
(X_389  0.3598039448261261)
(X_390  0.21274511516094208)
(X_391  0.2343137264251709)
(X_392  0.41470590233802795)
(X_393  0.43039217591285706)
(X_394  0.3186274468898773)
(X_395  0.2598039209842682)
(X_396  0.3127451241016388)
(X_397  0.3127451241016388)
(X_398  0.35196080803871155)
(X_399  0.38333335518836975)
(X_400  0.387254923582077)
(X_401  0.2754901945590973)
(X_402  0.28333333134651184)
(X_403  0.3911764919757843)
(X_404  0.27941176295280457)
(X_405  0.3480392396450043)
(X_406  0.240196093916893)
(X_407  0.25196078419685364)
(X_408  0.24411766231060028)
(X_409  0.24411766231060028)
(X_410  0.24803923070430756)
(X_411  0.344117671251297)
(X_412  0.33627453446388245)
(X_413  0.2245098203420639)
(X_414  0.21274511516094208)
(X_415  0.30490198731422424)
(X_416  0.20098040997982025)
(X_417  0.20490197837352753)
(X_418  0.1617647111415863)
(X_419  0.1872549057006836)
(X_420  0.27941176295280457)
(X_421  0.27156862616539)
(X_422  0.240196093916893)
(X_423  0.20098040997982025)
(X_424  0.18529412150382996)
(X_425  0.1931372582912445)
(X_426  0.19705882668495178)
(X_427  0.2852941155433655)
(X_428  0.1774509847164154)
(X_429  0.15784314274787903)
(X_430  0.15784314274787903)
(X_431  0.1774509847164154)
(X_432  0.1774509847164154)
(X_433  0.1617647111415863)
(X_434  0.15392157435417175)
(X_435  0.16960784792900085)
(X_436  0.30098041892051697)
(X_437  0.3127451241016388)
(X_438  0.3245098292827606)
(X_439  0.33627453446388245)
(X_440  0.33627453446388245)
(X_441  0.3284313976764679)
(X_442  0.21274511516094208)
(X_443  0.20490197837352753)
(X_444  0.2245098203420639)
(X_445  0.21274511516094208)
(X_446  0.16960784792900085)
(X_447  0.2186274528503418)
(X_448  0.2813725471496582)
(X_449  0.2617647051811218)
(X_450  0.24215686321258545)
(X_451  0.22647058963775635)
(X_452  0.10686275362968445)
(X_453  0.09509804844856262)
(X_454  0.2186274528503418)
(X_455  0.25)
(X_456  0.1460784375667572)
(X_457  0.24607843160629272)
(X_458  0.24607843160629272)
(X_459  0.1460784375667572)
(X_460  0.1460784375667572)
(X_461  0.24607843160629272)
(X_462  0.24607843160629272)
(X_463  0.24607843160629272)
(X_464  0.12647059559822083)
(X_465  0.15000000596046448)
(X_466  0.27352941036224365)
(X_467  0.2774509787559509)
(X_468  0.25784313678741455)
(X_469  0.23823529481887817)
(X_470  0.22647058963775635)
(X_471  0.22647058963775635)
(X_472  0.2343137264251709)
(X_473  0.22254902124404907)
(X_474  0.20686274766921997)
(X_475  0.1872549057006836)
(X_476  0.15000000596046448)
(X_477  0.12647059559822083)
(X_478  0.21078431606292725)
(X_479  0.19509804248809814)
(X_480  0.07941177487373352)
(X_481  0.0676470622420311)
(X_482  0.08725491166114807)
(X_483  0.11862745881080627)
(X_484  0.22647058963775635)
(X_485  0.22647058963775635)
(X_486  0.22647058963775635)
(X_487  0.12647059559822083)
(X_488  0.12647059559822083)
(X_489  0.12647059559822083)
(X_490  0.12647059559822083)
(X_491  0.12647059559822083)
(X_492  0.11862745881080627)
(X_493  0.11862745881080627)
(X_494  0.2186274528503418)
(X_495  0.22254902124404907)
(X_496  0.22254902124404907)
(X_497  0.21470588445663452)
(X_498  0.20686274766921997)
(X_499  0.0990196168422699)
(X_500  0.2186274528503418)
(X_501  0.10686275362968445)
(X_502  0.08725491166114807)
(X_503  0.07156863063573837)
(X_504  0.22254902124404907)
(X_505  0.2029411792755127)
(X_506  0.0833333432674408)
(X_507  0.07549020648002625)
(X_508  0.06372549384832382)
(X_509  0.0519607849419117)
(X_510  0.0676470622420311)
(X_511  0.19509804248809814)
(X_512  0.10686275362968445)
(X_513  0.10686275362968445)
(X_514  0.20686274766921997)
(X_515  0.20686274766921997)
(X_516  0.10686275362968445)
(X_517  0.10686275362968445)
(X_518  0.10686275362968445)
(X_519  0.10686275362968445)
(X_520  0.114705890417099)
(X_521  0.09509804844856262)
(X_522  0.07549020648002625)
(X_523  0.07549020648002625)
(X_524  0.09117648005485535)
(X_525  0.2029411792755127)
(X_526  0.19901961088180542)
(X_527  0.1872549057006836)
(X_528  0.1872549057006836)
(X_529  0.07941177487373352)
(X_530  0.06372549384832382)
(X_531  0.0519607849419117)
(X_532  0.19117647409439087)
(X_533  0.16764706373214722)
(X_534  0.15196079015731812)
(X_535  0.14803922176361084)
(X_536  0.1401960849761963)
(X_537  0.03235294297337532)
(X_538  0.04411764815449715)
(X_539  0.06372549384832382)
(X_540  0.06372549384832382)
(X_541  0.06372549384832382)
(X_542  0.16372549533843994)
(X_543  0.16372549533843994)
(X_544  0.06372549384832382)
(X_545  0.16372549533843994)
(X_546  0.16372549533843994)
(X_547  0.06372549384832382)
(X_548  0.1715686321258545)
(X_549  0.05980392172932625)
(X_550  0.04411764815449715)
(X_551  0.14411765336990356)
(X_552  0.1558823585510254)
(X_553  0.16764706373214722)
(X_554  0.1715686321258545)
(X_555  0.07156863063573837)
(X_556  0.16372549533843994)
(X_557  0.05588235333561897)
(X_558  0.14411765336990356)
(X_559  0.13235294818878174)
(X_560  0.1401960849761963)
(X_561  0.12058823555707932)
(X_562  0.10882353037595749)
(X_563  0.10882353037595749)
(X_564  0.008823529817163944)
(X_565  0.0009803927969187498)
(X_566  0.004901961423456669)
(X_567  0.01666666939854622)
(X_568  0.012745101936161518)
(X_569  0.11274509876966476)
(X_570  0.11274509876966476)
(X_571  0.11274509876966476)
(X_572  0.012745101936161518)
(X_573  0.012745101936161518)
(X_574  0.012745101936161518)
(X_575  0.012745101936161518)
(X_576  0.004901961423456669)
(X_577  0.012745101936161518)
(X_578  0.020588237792253494)
(X_579  0.01666666939854622)
(X_580  0.008823529817163944)
(X_581  0.11274509876966476)
(X_582  0.12058823555707932)
(X_583  0.13235294818878174)
(X_584  0.1401960849761963)
(X_585  0.036274511367082596)
(X_586  0.028431374579668045)
(X_587  0.12058823555707932)
(X_588  0.12450980395078659)
(X_589  0.0009803927969187498)
(X_590  0.09313725680112839)
(X_591  0.10098039358854294)
(X_592  0.004901961423456669)
(X_593  -0.0029411755967885256)
(X_594  -0.006862743757665157)
(X_595  0.004901961423456669)
(X_596  0.0009803927969187498)
(X_597  0.10098039358854294)
(X_598  0.10098039358854294)
(X_599  0.0009803927969187498)
(X_600  0.0009803927969187498)
(X_601  0.0009803927969187498)
(X_602  0.0009803927969187498)
(X_603  0.0009803927969187498)
(X_604  0.08137255162000656)
(X_605  0.09705882519483566)
(X_606  0.11274509876966476)
(X_607  0.11274509876966476)
(X_608  0.09705882519483566)
(X_609  0.09313725680112839)
(X_610  0.10098039358854294)
(X_611  0.11666666716337204)
(X_612  0.01666666939854622)
(X_613  0.01666666939854622)
(X_614  0.11274509876966476)
(X_615  0.10882353037595749)
(X_616  0.12058823555707932)
(X_617  0.09705882519483566)
(X_618  0.08921568840742111)
(X_619  0.0009803927969187498)
(X_620  0.008823529817163944)
(X_621  0.0009803927969187498)
(X_622  -0.0029411755967885256)
(X_623  0.0009803927969187498)
(X_624  0.10490196198225021)
(X_625  0.10490196198225021)
(X_626  0.10490196198225021)
(X_627  0.10490196198225021)
(X_628  0.004901961423456669)
(X_629  0.004901961423456669)
(X_630  0.004901961423456669)
(X_631  0.10490196198225021)
(X_632  -0.0029411755967885256)
(X_633  -0.0029411755967885256)
(X_634  0.0009803927969187498)
(X_635  0.0009803927969187498)
(X_636  -0.0029411755967885256)
(X_637  0.09705882519483566)
(X_638  0.10098039358854294)
(X_639  0.10490196198225021)
(X_640  -0.0029411755967885256)
(X_641  -0.0029411755967885256)
(X_642  0.09705882519483566)
(X_643  0.09705882519483566)
(X_644  0.10098039358854294)
(X_645  -0.018627449870109558)
(X_646  0.07352941483259201)
(X_647  0.08921568840742111)
(X_648  0.09705882519483566)
(X_649  -0.010784312151372433)
(X_650  -0.018627449870109558)
(X_651  -0.014705880545079708)
(X_652  -0.018627449870109558)
(X_653  -0.018627449870109558)
(X_654  -0.018627449870109558)
(X_655  -0.018627449870109558)
(X_656  -0.018627449870109558)
(X_657  -0.018627449870109558)
(X_658  0.08137255162000656)
(X_659  -0.018627449870109558)
(X_660  0.10098039358854294)
(X_661  0.08529412001371384)
(X_662  0.06960784643888474)
(X_663  0.06960784643888474)
(X_664  -0.018627449870109558)
(X_665  -0.006862743757665157)
(X_666  -0.010784312151372433)
(X_667  -0.018627449870109558)
(X_668  -0.018627449870109558)
(X_669  -0.014705880545079708)
(X_670  -0.014705880545079708)
(X_671  -0.014705880545079708)
(X_672  0.11274509876966476)
(X_673  0.004901961423456669)
(X_674  -0.0029411755967885256)
(X_675  -0.006862743757665157)
(X_676  -0.0029411755967885256)
(X_677  0.10098039358854294)
(X_678  0.09705882519483566)
(X_679  0.08921568840742111)
(X_680  -0.0029411755967885256)
(X_681  0.10098039358854294)
(X_682  0.09705882519483566)
(X_683  0.09313725680112839)
(X_684  0.08529412001371384)
(X_685  -0.018627449870109558)
(X_686  -0.014705880545079708)
(X_687  -0.006862743757665157)
(X_688  0.08921568840742111)
(X_689  0.09313725680112839)
(X_690  -0.0029411755967885256)
(X_691  -0.006862743757665157)
(X_692  -0.010784312151372433)
(X_693  -0.014705880545079708)
(X_694  -0.010784312151372433)
(X_695  -0.006862743757665157)
(X_696  -0.014705880545079708)
(X_697  0.08137255162000656)
(X_698  0.08137255162000656)
(X_699  0.08529412001371384)
(X_700  0.10490196198225021)
(X_701  -0.0029411755967885256)
(X_702  -0.010784312151372433)
(X_703  -0.014705880545079708)
(X_704  -0.010784312151372433)
(X_705  -0.010784312151372433)
(X_706  -0.014705880545079708)
(X_707  -0.018627449870109558)
(X_708  -0.010784312151372433)
(X_709  -0.006862743757665157)
(X_710  -0.0029411755967885256)
(X_711  0.09705882519483566)
(X_712  0.09705882519483566)
(X_713  0.09705882519483566)
(X_714  0.004901961423456669)
(X_715  0.008823529817163944)
(X_716  0.07352941483259201)
(X_717  0.08137255162000656)
(X_718  -0.014705880545079708)
(X_719  -0.010784312151372433)
(X_720  0.09313725680112839)
(X_721  0.09705882519483566)
(X_722  0.004901961423456669)
(X_723  0.10882353037595749)
(X_724  0.08529412001371384)
(X_725  0.07745098322629929)
(X_726  0.07352941483259201)
(X_727  0.07745098322629929)
(X_728  0.20686274766921997)
(X_729  0.19509804248809814)
(X_730  0.0833333432674408)
(X_731  0.1715686321258545)
(X_732  0.16372549533843994)
(X_733  0.15196079015731812)
(X_734  0.1401960849761963)
(X_735  0.12843137979507446)
(X_736  0.12450980395078659)
(X_737  0.12058823555707932)
(X_738  0.11274509876966476)
(X_739  0.0009803927969187498)
(X_740  0.09313725680112839)
(X_741  0.08529412001371384)
(X_742  -0.022549020126461983)
(X_743  0.07352941483259201)
(X_744  0.008823529817163944)
(X_745  0.004901961423456669)
(X_746  0.10098039358854294)
(X_747  -0.006862743757665157)
(X_748  -0.010784312151372433)
(X_749  -0.018627449870109558)
(X_750  -0.022549020126461983)
(X_751  -0.026470588520169258)
(X_752  0.10098039358854294)
(X_753  0.09313725680112839)
(X_754  0.08137255162000656)
(X_755  0.08137255162000656)
(X_756  0.9245098233222961)
(X_757  0.9049019813537598)
(X_758  0.7813725471496582)
(X_759  0.7578431367874146)
(X_760  0.7343137264251709)
(X_761  0.70686274766922)
(X_762  0.679411768913269)
(X_763  0.6637254953384399)
(X_764  0.6852941513061523)
(X_765  0.665686309337616)
(X_766  0.5382353067398071)
(X_767  0.5029411911964417)
(X_768  0.46764707565307617)
(X_769  0.4323529303073883)
(X_770  0.4009803831577301)
(X_771  0.3813725411891937)
(X_772  0.2872548997402191)
(X_773  0.27156862616539)
(X_774  0.24411766231060028)
(X_775  0.21274511516094208)
(X_776  0.18137255311012268)
(X_777  0.15000000596046448)
(X_778  0.12254902720451355)
(X_779  0.10686275362968445)
(X_780  0.028431374579668045)
(X_781  0.020588237792253494)
(X_782  0.004901961423456669)
(X_783  0.0009803927969187498)
(Y_0 -28.23572540283203)
(Y_1 42.63137435913086)
(Y_2 -21.200742721557617)
(Y_3 7.626990795135498))