((X_0  1.0499999523162842)
(X_1  0.949999988079071)
(X_2  0.9460784196853638)
(X_3  0.949999988079071)
(X_4  0.949999988079071)
(X_5  0.949999988079071)
(X_6  1.0233278274536133)
(X_7  1.0154846906661987)
(X_8  1.0499999523162842)
(X_9  1.0499999523162842)
(X_10  1.0460784435272217)
(X_11  0.9460784196853638)
(X_12  0.949999988079071)
(X_13  1.0499999523162842)
(X_14  1.0460784435272217)
(X_15  0.9421568512916565)
(X_16  0.949999988079071)
(X_17  0.949999988079071)
(X_18  0.949999988079071)
(X_19  0.949999988079071)
(X_20  1.0421568155288696)
(X_21  1.0460784435272217)
(X_22  1.0499999523162842)
(X_23  1.0499999523162842)
(X_24  1.0421568155288696)
(X_25  0.9421568512916565)
(X_26  0.9382352828979492)
(X_27  0.9343137145042419)
(X_28  1.0382353067398071)
(X_29  1.0499999523162842)
(X_30  0.949999988079071)
(X_31  0.949999988079071)
(X_32  0.9460784196853638)
(X_33  0.9421568512916565)
(X_34  0.9460784196853638)
(X_35  1.0499999523162842)
(X_36  0.949999988079071)
(X_37  0.9821337461471558)
(X_38  0.949999988079071)
(X_39  0.949999988079071)
(X_40  0.949999988079071)
(X_41  1.0499999523162842)
(X_42  1.0499999523162842)
(X_43  0.949999988079071)
(X_44  1.0460784435272217)
(X_45  1.0499999523162842)
(X_46  1.0499999523162842)
(X_47  1.0499999523162842)
(X_48  1.0382353067398071)
(X_49  0.9303921461105347)
(X_50  0.9303921461105347)
(X_51  0.9343137145042419)
(X_52  1.0499999523162842)
(X_53  0.949999988079071)
(X_54  1.0020719766616821)
(X_55  1.0499999523162842)
(X_56  0.5362744927406311)
(X_57  0.48725491762161255)
(X_58  0.5617647171020508)
(X_59  0.6284313797950745)
(X_60  0.6833333373069763)
(X_61  0.7460784316062927)
(X_62  0.8687387704849243)
(X_63  0.863725483417511)
(X_64  0.9432485699653625)
(X_65  0.9107843041419983)
(X_66  0.9303921461105347)
(X_67  0.9421568512916565)
(X_68  0.9900847673416138)
(X_69  0.9686362743377686)
(X_70  0.9725578427314758)
(X_71  1.0272494554519653)
(X_72  0.9264705777168274)
(X_73  0.9382352828979492)
(X_74  0.949999988079071)
(X_75  0.949999988079071)
(X_76  0.949999988079071)
(X_77  1.0499999523162842)
(X_78  1.0499999523162842)
(X_79  1.0499999523162842)
(X_80  1.0421568155288696)
(X_81  1.0460784435272217)
(X_82  0.9460784196853638)
(X_83  1.0460784435272217)
(X_84  0.24607843160629272)
(X_85  0.2696078419685364)
(X_86  0.29313725233078003)
(X_87  0.30098041892051697)
(X_88  0.30098041892051697)
(X_89  0.2088235467672348)
(X_90  0.2724377512931824)
(X_91  0.24411766231060028)
(X_92  0.34097492694854736)
(X_93  0.31078431010246277)
(X_94  0.37745097279548645)
(X_95  0.44019606709480286)
(X_96  0.5911765098571777)
(X_97  0.6421568989753723)
(X_98  0.6970588564872742)
(X_99  0.7323529720306396)
(X_100  0.8186274766921997)
(X_101  0.8382353186607361)
(X_102  0.8617647290229797)
(X_103  0.8852941393852234)
(X_104  0.8009803891181946)
(X_105  0.820588231086731)
(X_106  0.8362745046615601)
(X_107  0.8480392098426819)
(X_108  0.8794117569923401)
(X_109  0.8833333253860474)
(X_110  0.8911764621734619)
(X_111  0.8950980305671692)
(X_112  0.17255786061286926)
(X_113  0.25)
(X_114  0.25784313678741455)
(X_115  0.2656862735748291)
(X_116  0.17352941632270813)
(X_117  0.18137255311012268)
(X_118  0.18137255311012268)
(X_119  0.1774509847164154)
(X_120  0.21775834262371063)
(X_121  0.18529412150382996)
(X_122  0.20098040997982025)
(X_123  0.1931372582912445)
(X_124  0.27352941036224365)
(X_125  0.20969264209270477)
(X_126  0.16568627953529358)
(X_127  0.18137255311012268)
(X_128  0.2539215683937073)
(X_129  0.2656862735748291)
(X_130  0.2813725471496582)
(X_131  0.2970588207244873)
(X_132  0.3127451241016388)
(X_133  0.33627453446388245)
(X_134  0.3598039448261261)
(X_135  0.3794117867946625)
(X_136  0.387254923582077)
(X_137  0.3911764919757843)
(X_138  0.40294119715690613)
(X_139  0.4107843339443207)
(X_140  0.30098041892051697)
(X_141  0.28921568393707275)
(X_142  0.27352941036224365)
(X_143  0.2696078419685364)
(X_144  0.2656862735748291)
(X_145  0.15392157435417175)
(X_146  0.13431373238563538)
(X_147  0.11862745881080627)
(X_148  0.22254902124404907)
(X_149  0.23823529481887817)
(X_150  0.15000000596046448)
(X_151  0.16065536439418793)
(X_152  0.2539215683937073)
(X_153  0.2617647051811218)
(X_154  0.2774509787559509)
(X_155  0.29313725233078003)
(X_156  0.19216570258140564)
(X_157  0.2696078419685364)
(X_158  0.2696078419685364)
(X_159  0.2617647051811218)
(X_160  0.25784313678741455)
(X_161  0.16568627953529358)
(X_162  0.18137255311012268)
(X_163  0.29313725233078003)
(X_164  0.2343137264251709)
(X_165  0.21548475325107574)
(X_166  0.168636292219162)
(X_167  0.2539215683937073)
(X_168  0.2617647051811218)
(X_169  0.2696078419685364)
(X_170  0.2774509787559509)
(X_171  0.2813725471496582)
(X_172  0.2041230946779251)
(X_173  0.18529412150382996)
(X_174  0.18529412150382996)
(X_175  0.18921568989753723)
(X_176  0.2530524730682373)
(X_177  0.19705882668495178)
(X_178  0.18529412150382996)
(X_179  0.27352941036224365)
(X_180  0.2696078419685364)
(X_181  0.16960784792900085)
(X_182  0.17352941632270813)
(X_183  0.17352941632270813)
(X_184  0.27352941036224365)
(X_185  0.27352941036224365)
(X_186  0.2696078419685364)
(X_187  0.25784313678741455)
(X_188  0.24607843160629272)
(X_189  0.13823530077934265)
(X_190  0.13823530077934265)
(X_191  0.24215686321258545)
(X_192  0.2696078419685364)
(X_193  0.2696078419685364)
(X_194  0.2656862735748291)
(X_195  0.21361421048641205)
(X_196  0.1460784375667572)
(X_197  0.2696078419685364)
(X_198  0.2852941155433655)
(X_199  0.18137255311012268)
(X_200  0.2656862735748291)
(X_201  0.20991520583629608)
(X_202  0.16960784792900085)
(X_203  0.18529412150382996)
(X_204  0.17352941632270813)
(X_205  0.15784314274787903)
(X_206  0.14215686917304993)
(X_207  0.2343137264251709)
(X_208  0.14215686917304993)
(X_209  0.15000000596046448)
(X_210  0.15392157435417175)
(X_211  0.15392157435417175)
(X_212  0.25784313678741455)
(X_213  0.2656862735748291)
(X_214  0.2774509787559509)
(X_215  0.27352941036224365)
(X_216  0.2656862735748291)
(X_217  0.2539215683937073)
(X_218  0.25)
(X_219  0.25)
(X_220  0.27352941036224365)
(X_221  0.2696078419685364)
(X_222  0.1617647111415863)
(X_223  0.2539215683937073)
(X_224  0.14215686917304993)
(X_225  0.15392157435417175)
(X_226  0.2656862735748291)
(X_227  0.2656862735748291)
(X_228  0.16568627953529358)
(X_229  0.17352941632270813)
(X_230  0.19705882668495178)
(X_231  0.21666668355464935)
(X_232  0.29313725233078003)
(X_233  0.2852941155433655)
(X_234  0.27352941036224365)
(X_235  0.21361421048641205)
(X_236  0.20969264209270477)
(X_237  0.16568627953529358)
(X_238  0.24293573200702667)
(X_239  0.2696078419685364)
(X_240  0.18529412150382996)
(X_241  0.2539215683937073)
(X_242  0.25)
(X_243  0.2774509787559509)
(X_244  0.28921568393707275)
(X_245  0.27352941036224365)
(X_246  0.2539215683937073)
(X_247  0.15392157435417175)
(X_248  0.18137255311012268)
(X_249  0.1617647111415863)
(X_250  0.15000000596046448)
(X_251  0.2617647051811218)
(X_252  0.16568627953529358)
(X_253  0.18529412150382996)
(X_254  0.21666668355464935)
(X_255  0.35196080803871155)
(X_256  0.38333335518836975)
(X_257  0.41862747073173523)
(X_258  0.44607844948768616)
(X_259  0.46568629145622253)
(X_260  0.3892156779766083)
(X_261  0.3343137204647064)
(X_262  0.34335649013519287)
(X_263  0.344117671251297)
(X_264  0.33627453446388245)
(X_265  0.3245098292827606)
(X_266  0.28921568393707275)
(X_267  0.15392157435417175)
(X_268  0.19400636851787567)
(X_269  0.2539215683937073)
(X_270  0.2696078419685364)
(X_271  0.17352941632270813)
(X_272  0.15784314274787903)
(X_273  0.15000000596046448)
(X_274  0.21383677423000336)
(X_275  0.26254355907440186)
(X_276  0.23528528213500977)
(X_277  0.13823530077934265)
(X_278  0.1303921639919281)
(X_279  0.14215686917304993)
(X_280  0.4539215862751007)
(X_281  0.457843154668808)
(X_282  0.3735294044017792)
(X_283  0.39313724637031555)
(X_284  0.41274508833885193)
(X_285  0.520588219165802)
(X_286  0.520588219165802)
(X_287  0.5166666507720947)
(X_288  0.46568629145622253)
(X_289  0.46568629145622253)
(X_290  0.3735294044017792)
(X_291  0.41177353262901306)
(X_292  0.41177353262901306)
(X_293  0.34607842564582825)
(X_294  0.27156862616539)
(X_295  0.21666668355464935)
(X_296  0.2656862735748291)
(X_297  0.16960784792900085)
(X_298  0.1617647111415863)
(X_299  0.13431373238563538)
(X_300  0.1999911665916443)
(X_301  0.23823529481887817)
(X_302  0.18451525270938873)
(X_303  0.1774509847164154)
(X_304  0.1774509847164154)
(X_305  0.18059368431568146)
(X_306  0.15000000596046448)
(X_307  0.21383677423000336)
(X_308  0.457843154668808)
(X_309  0.457843154668808)
(X_310  0.457843154668808)
(X_311  0.36176469922065735)
(X_312  0.3539215624332428)
(X_313  0.32647058367729187)
(X_314  0.28333333134651184)
(X_315  0.25196078419685364)
(X_316  0.2872548997402191)
(X_317  0.2911764681339264)
(X_318  0.2872548997402191)
(X_319  0.27941176295280457)
(X_320  0.27941176295280457)
(X_321  0.3029411733150482)
(X_322  0.34607842564582825)
(X_323  0.3813725411891937)
(X_324  0.27941176295280457)
(X_325  0.24803923070430756)
(X_326  0.18921568989753723)
(X_327  0.16079315543174744)
(X_328  0.2343137264251709)
(X_329  0.2539215683937073)
(X_330  0.24215686321258545)
(X_331  0.18822646141052246)
(X_332  0.16568627953529358)
(X_333  0.1460784375667572)
(X_334  0.13431373238563538)
(X_335  0.14215686917304993)
(X_336  0.41862747073173523)
(X_337  0.3950980603694916)
(X_338  0.3754902184009552)
(X_339  0.3950980603694916)
(X_340  0.4539215862751007)
(X_341  0.5323529243469238)
(X_342  0.5990196466445923)
(X_343  0.5343137383460999)
(X_344  0.5833333730697632)
(X_345  0.5676470994949341)
(X_346  0.4323529303073883)
(X_347  0.3813725411891937)
(X_348  0.3343137204647064)
(X_349  0.29509803652763367)
(X_350  0.27156862616539)
(X_351  0.3637255132198334)
(X_352  0.4264706075191498)
(X_353  0.41862747073173523)
(X_354  0.3950980603694916)
(X_355  0.3598039448261261)
(X_356  0.33235296607017517)
(X_357  0.3088235557079315)
(X_358  0.27352941036224365)
(X_359  0.24215686321258545)
(X_360  0.16568627953529358)
(X_361  0.1460784375667572)
(X_362  0.13823530077934265)
(X_363  0.15000000596046448)
(X_364  0.28333333134651184)
(X_365  0.34607842564582825)
(X_366  0.44411763548851013)
(X_367  0.6264706254005432)
(X_368  0.665686309337616)
(X_369  0.6421568989753723)
(X_370  0.4833333492279053)
(X_371  0.4362744987010956)
(X_372  0.5303921699523926)
(X_373  0.5303921699523926)
(X_374  0.6195990443229675)
(X_375  0.6578431725502014)
(X_376  0.638235330581665)
(X_377  0.5558823943138123)
(X_378  0.4115631580352783)
(X_379  0.240196093916893)
(X_380  0.2588323950767517)
(X_381  0.3312612771987915)
(X_382  0.44607844948768616)
(X_383  0.40412312746047974)
(X_384  0.3578431308269501)
(X_385  0.31470587849617004)
(X_386  0.3029411733150482)
(X_387  0.3186274468898773)
(X_388  0.3843049108982086)
(X_389  0.3911764919757843)
(X_390  0.29509803652763367)
(X_391  0.33726373314857483)
(X_392  0.5490108132362366)
(X_393  0.520588219165802)
(X_394  0.4382353127002716)
(X_395  0.35196080803871155)
(X_396  0.28921568393707275)
(X_397  0.2656862735748291)
(X_398  0.2696078419685364)
(X_399  0.2852941155433655)
(X_400  0.3598039448261261)
(X_401  0.3637255132198334)
(X_402  0.38333335518836975)
(X_403  0.41470590233802795)
(X_404  0.46568629145622253)
(X_405  0.4980303645133972)
(X_406  0.46764707565307617)
(X_407  0.4950980544090271)
(X_408  0.24411766231060028)
(X_409  0.23627452552318573)
(X_410  0.28333333134651184)
(X_411  0.46176472306251526)
(X_412  0.4892157018184662)
(X_413  0.46568629145622253)
(X_414  0.4696078598499298)
(X_415  0.5127450823783875)
(X_416  0.40882351994514465)
(X_417  0.4009803831577301)
(X_418  0.40882351994514465)
(X_419  0.4323529303073883)
(X_420  0.20098040997982025)
(X_421  0.19705882668495178)
(X_422  0.18137255311012268)
(X_423  0.15392157435417175)
(X_424  0.12647059559822083)
(X_425  0.11862745881080627)
(X_426  0.2117558717727661)
(X_427  0.25)
(X_428  0.13353486359119415)
(X_429  0.2617647051811218)
(X_430  0.19705882668495178)
(X_431  0.18137255311012268)
(X_432  0.15784314274787903)
(X_433  0.30098041892051697)
(X_434  0.37439852952957153)
(X_435  0.44019606709480286)
(X_436  0.3892156779766083)
(X_437  0.2598039209842682)
(X_438  0.2970588207244873)
(X_439  0.36764708161354065)
(X_440  0.4382353127002716)
(X_441  0.41175588965415955)
(X_442  0.3225490152835846)
(X_443  0.3382352888584137)
(X_444  0.34607842564582825)
(X_445  0.3382352888584137)
(X_446  0.34215685725212097)
(X_447  0.4696078598499298)
(X_448  0.22254902124404907)
(X_449  0.22647058963775635)
(X_450  0.12647059559822083)
(X_451  0.12647059559822083)
(X_452  0.1303921639919281)
(X_453  0.1303921639919281)
(X_454  0.13431373238563538)
(X_455  0.13431373238563538)
(X_456  0.2186274528503418)
(X_457  0.20686274766921997)
(X_458  0.21078431606292725)
(X_459  0.22254902124404907)
(X_460  0.22647058963775635)
(X_461  0.2343137264251709)
(X_462  0.2813725471496582)
(X_463  0.2881240248680115)
(X_464  0.4950980544090271)
(X_465  0.3499999940395355)
(X_466  0.32058826088905334)
(X_467  0.3401961028575897)
(X_468  0.4068627655506134)
(X_469  0.3715686500072479)
(X_470  0.33235296607017517)
(X_471  0.36764708161354065)
(X_472  0.33627453446388245)
(X_473  0.3637255132198334)
(X_474  0.3950980603694916)
(X_475  0.4068627655506134)
(X_476  0.2088235467672348)
(X_477  0.20098040997982025)
(X_478  0.26665782928466797)
(X_479  0.25097155570983887)
(X_480  0.15392157435417175)
(X_481  0.13823530077934265)
(X_482  0.12647059559822083)
(X_483  0.17069952189922333)
(X_484  0.20686274766921997)
(X_485  0.2029411792755127)
(X_486  0.16285638511180878)
(X_487  0.12254902720451355)
(X_488  0.114705890417099)
(X_489  0.11078432202339172)
(X_490  0.13431373238563538)
(X_491  0.17352941632270813)
(X_492  0.29509803652763367)
(X_493  0.3696078360080719)
(X_494  0.3382352888584137)
(X_495  0.24803923070430756)
(X_496  0.3401961028575897)
(X_497  0.3598039448261261)
(X_498  0.3245098292827606)
(X_499  0.2813725471496582)
(X_500  0.2970588207244873)
(X_501  0.21666668355464935)
(X_502  0.240196093916893)
(X_503  0.240196093916893)
(X_504  0.20490197837352753)
(X_505  0.24890834093093872)
(X_506  0.29313725233078003)
(X_507  0.22930048406124115)
(X_508  0.17352941632270813)
(X_509  0.1617647111415863)
(X_510  0.15392157435417175)
(X_511  0.15000000596046448)
(X_512  0.11862745881080627)
(X_513  0.12647059559822083)
(X_514  0.19815050065517426)
(X_515  0.15784314274787903)
(X_516  0.15000000596046448)
(X_517  0.13431373238563538)
(X_518  0.13823530077934265)
(X_519  0.15784314274787903)
(X_520  0.19705882668495178)
(X_521  0.40882351994514465)
(X_522  0.5029411911964417)
(X_523  0.45196080207824707)
(X_524  0.4833333492279053)
(X_525  0.6696078777313232)
(X_526  0.6696078777313232)
(X_527  0.6147059202194214)
(X_528  0.48725491762161255)
(X_529  0.5029411911964417)
(X_530  0.5186274647712708)
(X_531  0.5147058963775635)
(X_532  0.24215686321258545)
(X_533  0.24215686321258545)
(X_534  0.24607843160629272)
(X_535  0.25)
(X_536  0.15000000596046448)
(X_537  0.15392157435417175)
(X_538  0.15392157435417175)
(X_539  0.15784314274787903)
(X_540  0.12254902720451355)
(X_541  0.1903073638677597)
(X_542  0.2617647051811218)
(X_543  0.2774509787559509)
(X_544  0.1774509847164154)
(X_545  0.16960784792900085)
(X_546  0.17352941632270813)
(X_547  0.18137255311012268)
(X_548  0.25784313678741455)
(X_549  0.29978078603744507)
(X_550  0.3382352888584137)
(X_551  0.37745097279548645)
(X_552  0.5362744927406311)
(X_553  0.5637255311012268)
(X_554  0.5441176295280457)
(X_555  0.4323529303073883)
(X_556  0.5715686678886414)
(X_557  0.5833333730697632)
(X_558  0.5990196466445923)
(X_559  0.5803833603858948)
(X_560  0.23039215803146362)
(X_561  0.12647059559822083)
(X_562  0.22647058963775635)
(X_563  0.12254902720451355)
(X_564  0.11862745881080627)
(X_565  0.114705890417099)
(X_566  0.114705890417099)
(X_567  0.11078432202339172)
(X_568  0.2029411792755127)
(X_569  0.21470588445663452)
(X_570  0.20391273498535156)
(X_571  0.1303921639919281)
(X_572  0.13823530077934265)
(X_573  0.15000000596046448)
(X_574  0.15784314274787903)
(X_575  0.1617647111415863)
(X_576  0.23235295712947845)
(X_577  0.240196093916893)
(X_578  0.240196093916893)
(X_579  0.3715686500072479)
(X_580  0.41470590233802795)
(X_581  0.3137343227863312)
(X_582  0.3715686500072479)
(X_583  0.4107843339443207)
(X_584  0.33039215207099915)
(X_585  0.3382352888584137)
(X_586  0.3499999940395355)
(X_587  0.3539215624332428)
(X_588  0.21470588445663452)
(X_589  0.114705890417099)
(X_590  0.114705890417099)
(X_591  0.114705890417099)
(X_592  0.11078432202339172)
(X_593  0.11078432202339172)
(X_594  0.20686274766921997)
(X_595  0.20686274766921997)
(X_596  0.2029411792755127)
(X_597  0.12961329519748688)
(X_598  0.10294118523597717)
(X_599  0.08725491166114807)
(X_600  0.09117648005485535)
(X_601  0.11078432202339172)
(X_602  0.12254902720451355)
(X_603  0.11862745881080627)
(X_604  0.21078431606292725)
(X_605  0.18059368431568146)
(X_606  0.25784313678741455)
(X_607  0.24215686321258545)
(X_608  0.2696078419685364)
(X_609  0.2970588207244873)
(X_610  0.33235296607017517)
(X_611  0.387254923582077)
(X_612  0.19705882668495178)
(X_613  0.20098040997982025)
(X_614  0.30490198731422424)
(X_615  0.3088235557079315)
(X_616  0.19117647409439087)
(X_617  0.19117647409439087)
(X_618  0.09509804844856262)
(X_619  0.0990196168422699)
(X_620  0.18411220610141754)
(X_621  0.21078431606292725)
(X_622  0.114705890417099)
(X_623  0.114705890417099)
(X_624  0.21470588445663452)
(X_625  0.2186274528503418)
(X_626  0.2029411792755127)
(X_627  0.07941177487373352)
(X_628  0.07941177487373352)
(X_629  0.10294118523597717)
(X_630  0.1587122529745102)
(X_631  0.2029411792755127)
(X_632  0.10981276631355286)
(X_633  0.18224166333675385)
(X_634  0.22647058963775635)
(X_635  0.19901961088180542)
(X_636  0.21470588445663452)
(X_637  0.23039215803146362)
(X_638  0.24215686321258545)
(X_639  0.2774509787559509)
(X_640  0.25)
(X_641  0.24607843160629272)
(X_642  0.24607843160629272)
(X_643  0.25)
(X_644  0.19509804248809814)
(X_645  0.19117647409439087)
(X_646  0.19117647409439087)
(X_647  0.1100054532289505)
(X_648  0.08725491166114807)
(X_649  0.18333333730697632)
(X_650  0.18333333730697632)
(X_651  0.0833333432674408)
(X_652  0.10686275362968445)
(X_653  0.114705890417099)
(X_654  0.10294118523597717)
(X_655  0.07941177487373352)
(X_656  0.0833333432674408)
(X_657  0.10686275362968445)
(X_658  0.114705890417099)
(X_659  0.0990196168422699)
(X_660  0.22254902124404907)
(X_661  0.19509804248809814)
(X_662  0.1715686321258545)
(X_663  0.21470588445663452)
(X_664  0.15784314274787903)
(X_665  0.11078432202339172)
(X_666  0.0676470622420311)
(X_667  0.0990196168422699)
(X_668  0.10686275362968445)
(X_669  0.10686275362968445)
(X_670  0.10686275362968445)
(X_671  0.114705890417099)
(X_672  0.17941176891326904)
(X_673  0.06372549384832382)
(X_674  0.05980392172932625)
(X_675  0.15273965895175934)
(X_676  0.1566612273454666)
(X_677  0.1715686321258545)
(X_678  0.1715686321258545)
(X_679  0.17941176891326904)
(X_680  0.07549020648002625)
(X_681  0.17549020051956177)
(X_682  0.07941177487373352)
(X_683  0.07941177487373352)
(X_684  0.07941177487373352)
(X_685  0.0833333432674408)
(X_686  0.0833333432674408)
(X_687  0.0833333432674408)
(X_688  0.19509804248809814)
(X_689  0.2029411792755127)
(X_690  0.1587122529745102)
(X_691  0.10686275362968445)
(X_692  0.19901961088180542)
(X_693  0.19509804248809814)
(X_694  0.19509804248809814)
(X_695  0.19901961088180542)
(X_696  0.19117647409439087)
(X_697  0.19509804248809814)
(X_698  0.19509804248809814)
(X_699  0.2029411792755127)
(X_700  0.1715686321258545)
(X_701  0.15980392694473267)
(X_702  0.15980392694473267)
(X_703  0.1715686321258545)
(X_704  0.17549020051956177)
(X_705  0.0676470622420311)
(X_706  0.0676470622420311)
(X_707  0.07549020648002625)
(X_708  0.07156863063573837)
(X_709  0.07156863063573837)
(X_710  0.07549020648002625)
(X_711  0.07549020648002625)
(X_712  0.07549020648002625)
(X_713  0.07941177487373352)
(X_714  0.07941177487373352)
(X_715  0.07941177487373352)
(X_716  0.13932697474956512)
(X_717  0.09509804844856262)
(X_718  0.0990196168422699)
(X_719  0.0990196168422699)
(X_720  0.09117648005485535)
(X_721  0.0833333432674408)
(X_722  0.16077548265457153)
(X_723  0.1872549057006836)
(X_724  0.19509804248809814)
(X_725  0.19509804248809814)
(X_726  0.19117647409439087)
(X_727  0.1872549057006836)
(X_728  0.16372549533843994)
(X_729  0.15196079015731812)
(X_730  0.1558823585510254)
(X_731  0.16764706373214722)
(X_732  0.16764706373214722)
(X_733  0.15980392694473267)
(X_734  0.15980392694473267)
(X_735  0.1715686321258545)
(X_736  0.0676470622420311)
(X_737  0.0676470622420311)
(X_738  0.0676470622420311)
(X_739  0.07156863063573837)
(X_740  0.07156863063573837)
(X_741  0.07156863063573837)
(X_742  0.07549020648002625)
(X_743  0.07549020648002625)
(X_744  0.07549020648002625)
(X_745  0.0833333432674408)
(X_746  0.08725491166114807)
(X_747  0.08725491166114807)
(X_748  0.07941177487373352)
(X_749  0.1715686321258545)
(X_750  0.17549020051956177)
(X_751  0.17549020051956177)
(X_752  0.19117647409439087)
(X_753  0.19117647409439087)
(X_754  0.1872549057006836)
(X_755  0.17941176891326904)
(X_756  0.1558823585510254)
(X_757  0.07078976929187775)
(X_758  0.10403285175561905)
(X_759  0.16372549533843994)
(X_760  0.05980392172932625)
(X_761  0.04803921654820442)
(X_762  0.09988871961832047)
(X_763  0.09412649273872375)
(X_764  0.15980392694473267)
(X_765  0.15980392694473267)
(X_766  0.14097493886947632)
(X_767  0.06372549384832382)
(X_768  0.0862833559513092)
(X_769  0.0676470622420311)
(X_770  0.0676470622420311)
(X_771  0.0676470622420311)
(X_772  0.07156863063573837)
(X_773  0.07941177487373352)
(X_774  0.0833333432674408)
(X_775  0.0833333432674408)
(X_776  0.07549020648002625)
(X_777  0.14508920907974243)
(X_778  0.0676470622420311)
(X_779  0.07156863063573837)
(X_780  0.07549020648002625)
(X_781  0.07941177487373352)
(X_782  0.07941177487373352)
(X_783  0.17941176891326904)
(Y_0 -7.534945487976074)
(Y_1 7.233189105987549)
(Y_2 -7.297910690307617)
(Y_3 8.99992561340332))