((X_0  0.49705883860588074)
(X_1  0.39313724637031555)
(X_2  0.3892156779766083)
(X_3  0.4892157018184662)
(X_4  0.3892156779766083)
(X_5  0.3892156779766083)
(X_6  0.49313727021217346)
(X_7  0.49705883860588074)
(X_8  0.49705883860588074)
(X_9  0.49705883860588074)
(X_10  0.3970588147640228)
(X_11  0.3970588147640228)
(X_12  0.49705883860588074)
(X_13  0.3970588147640228)
(X_14  0.3970588147640228)
(X_15  0.3970588147640228)
(X_16  0.39313724637031555)
(X_17  0.39313724637031555)
(X_18  0.39313724637031555)
(X_19  0.39313724637031555)
(X_20  0.39313724637031555)
(X_21  0.39313724637031555)
(X_22  0.39313724637031555)
(X_23  0.49313727021217346)
(X_24  0.3970588147640228)
(X_25  0.3970588147640228)
(X_26  0.3970588147640228)
(X_27  0.49705883860588074)
(X_28  0.07745098322629929)
(X_29  -0.022549020126461983)
(X_30  -0.026470588520169258)
(X_31  0.06960784643888474)
(X_32  0.06960784643888474)
(X_33  -0.026470588520169258)
(X_34  0.07745098322629929)
(X_35  -0.022549020126461983)
(X_36  -0.030392156913876534)
(X_37  -0.030392156913876534)
(X_38  0.06960784643888474)
(X_39  0.06960784643888474)
(X_40  0.06960784643888474)
(X_41  0.06960784643888474)
(X_42  0.06960784643888474)
(X_43  0.06960784643888474)
(X_44  0.06960784643888474)
(X_45  -0.030392156913876534)
(X_46  -0.030392156913876534)
(X_47  -0.030392156913876534)
(X_48  0.06960784643888474)
(X_49  0.06960784643888474)
(X_50  0.06960784643888474)
(X_51  0.06960784643888474)
(X_52  0.06960784643888474)
(X_53  0.06960784643888474)
(X_54  0.06960784643888474)
(X_55  0.06960784643888474)
(X_56  0.07352941483259201)
(X_57  0.06960784643888474)
(X_58  -0.030392156913876534)
(X_59  0.06568627804517746)
(X_60  -0.03431372344493866)
(X_61  -0.030392156913876534)
(X_62  -0.030392156913876534)
(X_63  -0.026470588520169258)
(X_64  -0.03431372344493866)
(X_65  -0.03431372344493866)
(X_66  -0.03431372344493866)
(X_67  -0.03431372344493866)
(X_68  -0.03431372344493866)
(X_69  0.06568627804517746)
(X_70  0.06568627804517746)
(X_71  0.06568627804517746)
(X_72  -0.03431372344493866)
(X_73  -0.03431372344493866)
(X_74  -0.03431372344493866)
(X_75  -0.03431372344493866)
(X_76  -0.03431372344493866)
(X_77  0.06568627804517746)
(X_78  0.06568627804517746)
(X_79  0.06568627804517746)
(X_80  0.06568627804517746)
(X_81  0.06568627804517746)
(X_82  0.06568627804517746)
(X_83  0.06568627804517746)
(X_84  -0.026470588520169258)
(X_85  -0.026470588520169258)
(X_86  -0.030392156913876534)
(X_87  -0.030392156913876534)
(X_88  0.06960784643888474)
(X_89  0.06960784643888474)
(X_90  0.07352941483259201)
(X_91  0.07352941483259201)
(X_92  0.07745098322629929)
(X_93  0.07745098322629929)
(X_94  -0.022549020126461983)
(X_95  -0.022549020126461983)
(X_96  -0.022549020126461983)
(X_97  0.07745098322629929)
(X_98  0.07745098322629929)
(X_99  -0.022549020126461983)
(X_100  -0.018627449870109558)
(X_101  0.08137255162000656)
(X_102  0.08137255162000656)
(X_103  0.08137255162000656)
(X_104  0.08137255162000656)
(X_105  0.08137255162000656)
(X_106  -0.018627449870109558)
(X_107  0.08137255162000656)
(X_108  -0.022549020126461983)
(X_109  -0.022549020126461983)
(X_110  0.07745098322629929)
(X_111  0.07745098322629929)
(X_112  0.08921568840742111)
(X_113  0.08529412001371384)
(X_114  0.08137255162000656)
(X_115  0.08137255162000656)
(X_116  0.08137255162000656)
(X_117  0.08137255162000656)
(X_118  0.08529412001371384)
(X_119  -0.010784312151372433)
(X_120  -0.010784312151372433)
(X_121  0.08921568840742111)
(X_122  -0.010784312151372433)
(X_123  -0.010784312151372433)
(X_124  0.08921568840742111)
(X_125  0.08921568840742111)
(X_126  -0.010784312151372433)
(X_127  -0.010784312151372433)
(X_128  -0.006862743757665157)
(X_129  -0.006862743757665157)
(X_130  -0.006862743757665157)
(X_131  -0.006862743757665157)
(X_132  0.09313725680112839)
(X_133  -0.006862743757665157)
(X_134  -0.006862743757665157)
(X_135  -0.006862743757665157)
(X_136  -0.010784312151372433)
(X_137  0.08921568840742111)
(X_138  0.08921568840742111)
(X_139  0.08921568840742111)
(X_140  0.07745098322629929)
(X_141  0.07745098322629929)
(X_142  -0.026470588520169258)
(X_143  0.07352941483259201)
(X_144  0.07352941483259201)
(X_145  0.07352941483259201)
(X_146  -0.022549020126461983)
(X_147  -0.022549020126461983)
(X_148  0.06960784643888474)
(X_149  0.06960784643888474)
(X_150  0.06960784643888474)
(X_151  0.06960784643888474)
(X_152  0.06960784643888474)
(X_153  0.06960784643888474)
(X_154  -0.030392156913876534)
(X_155  -0.030392156913876534)
(X_156  -0.026470588520169258)
(X_157  -0.026470588520169258)
(X_158  -0.026470588520169258)
(X_159  -0.026470588520169258)
(X_160  0.07352941483259201)
(X_161  0.07352941483259201)
(X_162  0.07352941483259201)
(X_163  0.07352941483259201)
(X_164  0.06960784643888474)
(X_165  0.06960784643888474)
(X_166  0.06960784643888474)
(X_167  0.06960784643888474)
(X_168  0.10098039358854294)
(X_169  0.0009803927969187498)
(X_170  -0.0029411755967885256)
(X_171  -0.006862743757665157)
(X_172  -0.006862743757665157)
(X_173  0.09705882519483566)
(X_174  0.0009803927969187498)
(X_175  0.0009803927969187498)
(X_176  -0.006862743757665157)
(X_177  -0.006862743757665157)
(X_178  0.09313725680112839)
(X_179  0.09313725680112839)
(X_180  0.09313725680112839)
(X_181  0.09313725680112839)
(X_182  0.09313725680112839)
(X_183  0.09313725680112839)
(X_184  -0.006862743757665157)
(X_185  -0.006862743757665157)
(X_186  -0.006862743757665157)
(X_187  -0.006862743757665157)
(X_188  -0.006862743757665157)
(X_189  -0.006862743757665157)
(X_190  -0.006862743757665157)
(X_191  -0.006862743757665157)
(X_192  0.09313725680112839)
(X_193  0.09313725680112839)
(X_194  0.09313725680112839)
(X_195  0.09313725680112839)
(X_196  0.09705882519483566)
(X_197  0.09313725680112839)
(X_198  0.09313725680112839)
(X_199  0.08921568840742111)
(X_200  -0.010784312151372433)
(X_201  -0.006862743757665157)
(X_202  0.09313725680112839)
(X_203  -0.0029411755967885256)
(X_204  -0.0029411755967885256)
(X_205  -0.0029411755967885256)
(X_206  -0.0029411755967885256)
(X_207  -0.0029411755967885256)
(X_208  -0.0029411755967885256)
(X_209  -0.0029411755967885256)
(X_210  -0.0029411755967885256)
(X_211  -0.0029411755967885256)
(X_212  0.09313725680112839)
(X_213  0.09313725680112839)
(X_214  0.09313725680112839)
(X_215  0.09313725680112839)
(X_216  -0.006862743757665157)
(X_217  0.09313725680112839)
(X_218  0.09313725680112839)
(X_219  0.09313725680112839)
(X_220  0.09705882519483566)
(X_221  -0.0029411755967885256)
(X_222  -0.0029411755967885256)
(X_223  -0.0029411755967885256)
(X_224  -0.006862743757665157)
(X_225  -0.006862743757665157)
(X_226  -0.006862743757665157)
(X_227  0.09705882519483566)
(X_228  -0.0029411755967885256)
(X_229  0.0009803927969187498)
(X_230  0.0009803927969187498)
(X_231  0.0009803927969187498)
(X_232  0.10098039358854294)
(X_233  0.10098039358854294)
(X_234  0.09313725680112839)
(X_235  0.08921568840742111)
(X_236  0.08529412001371384)
(X_237  0.08529412001371384)
(X_238  0.09313725680112839)
(X_239  0.09313725680112839)
(X_240  0.09705882519483566)
(X_241  0.09313725680112839)
(X_242  0.09705882519483566)
(X_243  0.09705882519483566)
(X_244  0.10098039358854294)
(X_245  0.10490196198225021)
(X_246  0.012745101936161518)
(X_247  0.012745101936161518)
(X_248  0.0009803927969187498)
(X_249  0.0009803927969187498)
(X_250  -0.0029411755967885256)
(X_251  0.09705882519483566)
(X_252  0.11274509876966476)
(X_253  0.10882353037595749)
(X_254  0.008823529817163944)
(X_255  0.004901961423456669)
(X_256  0.10490196198225021)
(X_257  0.10098039358854294)
(X_258  0.10098039358854294)
(X_259  0.0009803927969187498)
(X_260  0.12058823555707932)
(X_261  0.11666666716337204)
(X_262  0.11274509876966476)
(X_263  0.11274509876966476)
(X_264  0.11274509876966476)
(X_265  0.10490196198225021)
(X_266  0.09705882519483566)
(X_267  0.08921568840742111)
(X_268  0.02450980618596077)
(X_269  0.020588237792253494)
(X_270  0.012745101936161518)
(X_271  0.004901961423456669)
(X_272  -0.0029411755967885256)
(X_273  -0.006862743757665157)
(X_274  -0.010784312151372433)
(X_275  -0.010784312151372433)
(X_276  0.028431374579668045)
(X_277  0.02450980618596077)
(X_278  0.02450980618596077)
(X_279  0.12450980395078659)
(X_280  -0.022549020126461983)
(X_281  -0.018627449870109558)
(X_282  -0.018627449870109558)
(X_283  -0.014705880545079708)
(X_284  -0.010784312151372433)
(X_285  -0.006862743757665157)
(X_286  -0.006862743757665157)
(X_287  -0.0029411755967885256)
(X_288  -0.010784312151372433)
(X_289  0.08529412001371384)
(X_290  0.08529412001371384)
(X_291  0.09313725680112839)
(X_292  0.10490196198225021)
(X_293  0.008823529817163944)
(X_294  -0.006862743757665157)
(X_295  -0.018627449870109558)
(X_296  0.07745098322629929)
(X_297  0.08137255162000656)
(X_298  -0.006862743757665157)
(X_299  0.004901961423456669)
(X_300  0.01666666939854622)
(X_301  0.03235294297337532)
(X_302  0.1401960849761963)
(X_303  0.04411764815449715)
(X_304  0.09313725680112839)
(X_305  -0.006862743757665157)
(X_306  -0.006862743757665157)
(X_307  0.09313725680112839)
(X_308  0.01666666939854622)
(X_309  0.01666666939854622)
(X_310  0.012745101936161518)
(X_311  0.012745101936161518)
(X_312  0.008823529817163944)
(X_313  0.004901961423456669)
(X_314  0.0009803927969187498)
(X_315  0.0009803927969187498)
(X_316  0.004901961423456669)
(X_317  -0.006862743757665157)
(X_318  -0.014705880545079708)
(X_319  -0.0029411755967885256)
(X_320  0.11666666716337204)
(X_321  0.12843137979507446)
(X_322  0.12058823555707932)
(X_323  0.11274509876966476)
(X_324  0.004901961423456669)
(X_325  0.10490196198225021)
(X_326  0.10490196198225021)
(X_327  0.0009803927969187498)
(X_328  -0.0029411755967885256)
(X_329  -0.010784312151372433)
(X_330  -0.014705880545079708)
(X_331  -0.018627449870109558)
(X_332  0.12058823555707932)
(X_333  0.020588237792253494)
(X_334  0.11666666716337204)
(X_335  0.11274509876966476)
(X_336  0.16568627953529358)
(X_337  0.25784313678741455)
(X_338  0.24607843160629272)
(X_339  0.22647058963775635)
(X_340  0.20686274766921997)
(X_341  0.19117647409439087)
(X_342  0.07549020648002625)
(X_343  0.07156863063573837)
(X_344  0.15196079015731812)
(X_345  0.12843137979507446)
(X_346  -0.0029411755967885256)
(X_347  -0.018627449870109558)
(X_348  0.08529412001371384)
(X_349  0.08921568840742111)
(X_350  0.08921568840742111)
(X_351  0.08529412001371384)
(X_352  0.09705882519483566)
(X_353  0.10490196198225021)
(X_354  0.11274509876966476)
(X_355  0.12450980395078659)
(X_356  0.036274511367082596)
(X_357  0.04019607976078987)
(X_358  0.04411764815449715)
(X_359  0.04411764815449715)
(X_360  0.02450980618596077)
(X_361  0.020588237792253494)
(X_362  0.01666666939854622)
(X_363  0.10882353037595749)
(X_364  0.23627452552318573)
(X_365  0.23235295712947845)
(X_366  0.2245098203420639)
(X_367  0.32058826088905334)
(X_368  0.3088235557079315)
(X_369  0.30098041892051697)
(X_370  0.2970588207244873)
(X_371  0.29313725233078003)
(X_372  0.1617647111415863)
(X_373  0.13823530077934265)
(X_374  0.09509804844856262)
(X_375  0.15196079015731812)
(X_376  0.12058823555707932)
(X_377  0.10882353037595749)
(X_378  0.11274509876966476)
(X_379  0.11666666716337204)
(X_380  0.15196079015731812)
(X_381  0.1715686321258545)
(X_382  0.10686275362968445)
(X_383  0.15000000596046448)
(X_384  0.18921568989753723)
(X_385  0.2245098203420639)
(X_386  0.24803923070430756)
(X_387  0.2598039209842682)
(X_388  0.33235296607017517)
(X_389  0.3284313976764679)
(X_390  0.32058826088905334)
(X_391  0.3127451241016388)
(X_392  0.3127451241016388)
(X_393  0.3127451241016388)
(X_394  0.31666669249534607)
(X_395  0.3245098292827606)
(X_396  0.22843138873577118)
(X_397  0.23627452552318573)
(X_398  0.240196093916893)
(X_399  0.240196093916893)
(X_400  0.26372548937797546)
(X_401  0.3558823764324188)
(X_402  0.33235296607017517)
(X_403  0.18921568989753723)
(X_404  0.15392157435417175)
(X_405  0.13823530077934265)
(X_406  0.25)
(X_407  0.2656862735748291)
(X_408  0.22843138873577118)
(X_409  0.23627452552318573)
(X_410  0.25196078419685364)
(X_411  0.26372548937797546)
(X_412  0.27156862616539)
(X_413  0.3754902184009552)
(X_414  0.3754902184009552)
(X_415  0.27156862616539)
(X_416  0.27941176295280457)
(X_417  0.2754901945590973)
(X_418  0.27156862616539)
(X_419  0.36764708161354065)
(X_420  0.21274511516094208)
(X_421  0.21274511516094208)
(X_422  0.3088235557079315)
(X_423  0.30490198731422424)
(X_424  0.30098041892051697)
(X_425  0.2970588207244873)
(X_426  0.29313725233078003)
(X_427  0.29313725233078003)
(X_428  0.18921568989753723)
(X_429  0.30098041892051697)
(X_430  0.20490197837352753)
(X_431  0.18529412150382996)
(X_432  0.2617647051811218)
(X_433  0.25784313678741455)
(X_434  0.2813725471496582)
(X_435  0.3088235557079315)
(X_436  0.22843138873577118)
(X_437  0.23235295712947845)
(X_438  0.3401961028575897)
(X_439  0.344117671251297)
(X_440  0.344117671251297)
(X_441  0.3401961028575897)
(X_442  0.23235295712947845)
(X_443  0.22843138873577118)
(X_444  0.23627452552318573)
(X_445  0.33235296607017517)
(X_446  0.23235295712947845)
(X_447  0.33235296607017517)
(X_448  0.24411766231060028)
(X_449  0.3401961028575897)
(X_450  0.33235296607017517)
(X_451  0.33235296607017517)
(X_452  0.23627452552318573)
(X_453  0.23235295712947845)
(X_454  0.3245098292827606)
(X_455  0.31666669249534607)
(X_456  0.3401961028575897)
(X_457  0.3245098292827606)
(X_458  0.30490198731422424)
(X_459  0.1931372582912445)
(X_460  0.18921568989753723)
(X_461  0.29313725233078003)
(X_462  0.29313725233078003)
(X_463  0.29313725233078003)
(X_464  0.30490198731422424)
(X_465  0.30490198731422424)
(X_466  0.31666669249534607)
(X_467  0.22843138873577118)
(X_468  0.21666668355464935)
(X_469  0.30098041892051697)
(X_470  0.20098040997982025)
(X_471  0.32058826088905334)
(X_472  0.28921568393707275)
(X_473  0.28921568393707275)
(X_474  0.1931372582912445)
(X_475  0.29313725233078003)
(X_476  0.550000011920929)
(X_477  0.5460784435272217)
(X_478  0.5421568751335144)
(X_479  0.550000011920929)
(X_480  0.5696078538894653)
(X_481  0.5852941274642944)
(X_482  0.6931372880935669)
(X_483  0.5970588326454163)
(X_484  0.5539215803146362)
(X_485  0.5460784435272217)
(X_486  0.5343137383460999)
(X_487  0.522549033164978)
(X_488  0.5186274647712708)
(X_489  0.5186274647712708)
(X_490  0.6264706254005432)
(X_491  0.6343137621879578)
(X_492  0.4833333492279053)
(X_493  0.4754902124404907)
(X_494  0.47156864404678345)
(X_495  0.46764707565307617)
(X_496  0.551960825920105)
(X_497  0.5323529243469238)
(X_498  0.44019606709480286)
(X_499  0.5637255311012268)
(X_500  0.44411763548851013)
(X_501  0.44411763548851013)
(X_502  0.44411763548851013)
(X_503  0.5441176295280457)
(X_504  0.3892156779766083)
(X_505  0.37745097279548645)
(X_506  0.36176469922065735)
(X_507  0.457843154668808)
(X_508  0.46176472306251526)
(X_509  0.3735294044017792)
(X_510  0.48137256503105164)
(X_511  0.3813725411891937)
(X_512  0.42450979351997375)
(X_513  0.4323529303073883)
(X_514  0.4323529303073883)
(X_515  0.4205882251262665)
(X_516  0.41274508833885193)
(X_517  0.41274508833885193)
(X_518  0.42843136191368103)
(X_519  0.5480391979217529)
(X_520  0.5107843279838562)
(X_521  0.4911764860153198)
(X_522  0.479411780834198)
(X_523  0.47156864404678345)
(X_524  0.4598039388656616)
(X_525  0.45196080207824707)
(X_526  0.4637255072593689)
(X_527  0.4911764860153198)
(X_528  0.4754902124404907)
(X_529  0.47156864404678345)
(X_530  0.46764707565307617)
(X_531  0.5637255311012268)
(X_532  0.2911764681339264)
(X_533  0.3754902184009552)
(X_534  0.2558823525905609)
(X_535  0.24411766231060028)
(X_536  0.33627453446388245)
(X_537  0.33235296607017517)
(X_538  0.3245098292827606)
(X_539  0.32058826088905334)
(X_540  0.19705882668495178)
(X_541  0.21274511516094208)
(X_542  0.22058825194835663)
(X_543  0.21274511516094208)
(X_544  0.20098040997982025)
(X_545  0.20098040997982025)
(X_546  0.2245098203420639)
(X_547  0.3480392396450043)
(X_548  0.3754902184009552)
(X_549  0.3598039448261261)
(X_550  0.3558823764324188)
(X_551  0.3637255132198334)
(X_552  0.36764708161354065)
(X_553  0.26764705777168274)
(X_554  0.28333333134651184)
(X_555  0.3029411733150482)
(X_556  0.28333333134651184)
(X_557  0.27941176295280457)
(X_558  0.26764705777168274)
(X_559  0.2598039209842682)
(X_560  0.16568627953529358)
(X_561  0.2617647051811218)
(X_562  0.1617647111415863)
(X_563  0.16960784792900085)
(X_564  0.17352941632270813)
(X_565  0.16960784792900085)
(X_566  0.15784314274787903)
(X_567  0.1460784375667572)
(X_568  0.23039215803146362)
(X_569  0.1460784375667572)
(X_570  0.15784314274787903)
(X_571  0.15392157435417175)
(X_572  0.23823529481887817)
(X_573  0.24215686321258545)
(X_574  0.1617647111415863)
(X_575  0.18529412150382996)
(X_576  0.13823530077934265)
(X_577  0.23039215803146362)
(X_578  0.24215686321258545)
(X_579  0.2656862735748291)
(X_580  0.2813725471496582)
(X_581  0.2774509787559509)
(X_582  0.2813725471496582)
(X_583  0.29313725233078003)
(X_584  0.2852941155433655)
(X_585  0.2774509787559509)
(X_586  0.1617647111415863)
(X_587  0.15392157435417175)
(X_588  0.2343137264251709)
(X_589  0.13431373238563538)
(X_590  0.14215686917304993)
(X_591  0.15392157435417175)
(X_592  0.15784314274787903)
(X_593  0.15392157435417175)
(X_594  0.23823529481887817)
(X_595  0.22647058963775635)
(X_596  0.08725491166114807)
(X_597  0.0990196168422699)
(X_598  0.10686275362968445)
(X_599  0.2029411792755127)
(X_600  0.19509804248809814)
(X_601  0.19509804248809814)
(X_602  0.20686274766921997)
(X_603  0.22254902124404907)
(X_604  0.21470588445663452)
(X_605  0.21078431606292725)
(X_606  0.22647058963775635)
(X_607  0.25784313678741455)
(X_608  0.27352941036224365)
(X_609  0.2617647051811218)
(X_610  0.25)
(X_611  0.25)
(X_612  0.25784313678741455)
(X_613  0.2539215683937073)
(X_614  0.24215686321258545)
(X_615  0.2343137264251709)
(X_616  0.2696078419685364)
(X_617  0.2656862735748291)
(X_618  0.2617647051811218)
(X_619  0.2617647051811218)
(X_620  0.2617647051811218)
(X_621  0.2539215683937073)
(X_622  0.24215686321258545)
(X_623  0.22647058963775635)
(X_624  0.2343137264251709)
(X_625  0.2343137264251709)
(X_626  0.13431373238563538)
(X_627  0.1303921639919281)
(X_628  0.1303921639919281)
(X_629  0.1303921639919281)
(X_630  0.23039215803146362)
(X_631  0.2343137264251709)
(X_632  0.10294118523597717)
(X_633  0.09509804844856262)
(X_634  0.20686274766921997)
(X_635  0.23823529481887817)
(X_636  0.2539215683937073)
(X_637  0.14215686917304993)
(X_638  0.22254902124404907)
(X_639  0.2186274528503418)
(X_640  0.22254902124404907)
(X_641  0.22254902124404907)
(X_642  0.11862745881080627)
(X_643  0.2186274528503418)
(X_644  0.24215686321258545)
(X_645  0.13431373238563538)
(X_646  0.1303921639919281)
(X_647  0.1303921639919281)
(X_648  0.13431373238563538)
(X_649  0.13823530077934265)
(X_650  0.13431373238563538)
(X_651  0.1303921639919281)
(X_652  0.13823530077934265)
(X_653  0.2343137264251709)
(X_654  0.12647059559822083)
(X_655  0.12647059559822083)
(X_656  0.1303921639919281)
(X_657  0.23039215803146362)
(X_658  0.22254902124404907)
(X_659  0.2186274528503418)
(X_660  0.21470588445663452)
(X_661  0.2029411792755127)
(X_662  0.114705890417099)
(X_663  0.14215686917304993)
(X_664  0.1617647111415863)
(X_665  0.15392157435417175)
(X_666  0.13823530077934265)
(X_667  0.13823530077934265)
(X_668  0.11862745881080627)
(X_669  0.12254902720451355)
(X_670  0.23039215803146362)
(X_671  0.2343137264251709)
(X_672  0.22647058963775635)
(X_673  0.21470588445663452)
(X_674  0.10686275362968445)
(X_675  0.2029411792755127)
(X_676  0.21078431606292725)
(X_677  0.21470588445663452)
(X_678  0.2186274528503418)
(X_679  0.21470588445663452)
(X_680  0.22647058963775635)
(X_681  0.22254902124404907)
(X_682  0.2186274528503418)
(X_683  0.21470588445663452)
(X_684  0.2186274528503418)
(X_685  0.22647058963775635)
(X_686  0.23823529481887817)
(X_687  0.14215686917304993)
(X_688  0.2343137264251709)
(X_689  0.23039215803146362)
(X_690  0.23039215803146362)
(X_691  0.23039215803146362)
(X_692  0.23039215803146362)
(X_693  0.2343137264251709)
(X_694  0.23823529481887817)
(X_695  0.24215686321258545)
(X_696  0.24607843160629272)
(X_697  0.1460784375667572)
(X_698  0.1460784375667572)
(X_699  0.25)
(X_700  0.20686274766921997)
(X_701  0.19901961088180542)
(X_702  0.08725491166114807)
(X_703  0.1872549057006836)
(X_704  0.19117647409439087)
(X_705  0.19901961088180542)
(X_706  0.19901961088180542)
(X_707  0.0990196168422699)
(X_708  0.10686275362968445)
(X_709  0.10294118523597717)
(X_710  0.0990196168422699)
(X_711  0.09509804844856262)
(X_712  0.0990196168422699)
(X_713  0.10686275362968445)
(X_714  0.114705890417099)
(X_715  0.12254902720451355)
(X_716  0.11862745881080627)
(X_717  0.11862745881080627)
(X_718  0.11862745881080627)
(X_719  0.11862745881080627)
(X_720  0.11862745881080627)
(X_721  0.12254902720451355)
(X_722  0.12647059559822083)
(X_723  0.1303921639919281)
(X_724  0.23039215803146362)
(X_725  0.1303921639919281)
(X_726  0.1303921639919281)
(X_727  0.2343137264251709)
(X_728  0.0833333432674408)
(X_729  0.07549020648002625)
(X_730  0.06372549384832382)
(X_731  0.16372549533843994)
(X_732  0.1715686321258545)
(X_733  0.17549020051956177)
(X_734  0.17549020051956177)
(X_735  0.17549020051956177)
(X_736  0.17549020051956177)
(X_737  0.07549020648002625)
(X_738  0.1715686321258545)
(X_739  0.16764706373214722)
(X_740  0.1715686321258545)
(X_741  0.17941176891326904)
(X_742  0.08725491166114807)
(X_743  0.09117648005485535)
(X_744  0.09117648005485535)
(X_745  0.09117648005485535)
(X_746  0.08725491166114807)
(X_747  0.08725491166114807)
(X_748  0.09117648005485535)
(X_749  0.19509804248809814)
(X_750  0.19901961088180542)
(X_751  0.19901961088180542)
(X_752  0.19901961088180542)
(X_753  0.19901961088180542)
(X_754  0.19901961088180542)
(X_755  0.19901961088180542)
(X_756  0.16764706373214722)
(X_757  0.05980392172932625)
(X_758  0.04803921654820442)
(X_759  0.04803921654820442)
(X_760  0.15196079015731812)
(X_761  0.15980392694473267)
(X_762  0.15980392694473267)
(X_763  0.15980392694473267)
(X_764  0.15196079015731812)
(X_765  0.15196079015731812)
(X_766  0.15196079015731812)
(X_767  0.15196079015731812)
(X_768  0.1558823585510254)
(X_769  0.15980392694473267)
(X_770  0.16764706373214722)
(X_771  0.1715686321258545)
(X_772  0.05980392172932625)
(X_773  0.05980392172932625)
(X_774  0.05980392172932625)
(X_775  0.05588235333561897)
(X_776  0.05980392172932625)
(X_777  0.06372549384832382)
(X_778  0.0676470622420311)
(X_779  0.0676470622420311)
(X_780  0.16372549533843994)
(X_781  0.06372549384832382)
(X_782  0.06372549384832382)
(X_783  0.06372549384832382)
(Y_0 18.07113265991211)
(Y_1 24.86554718017578)
(Y_2 -14.576884269714355)
(Y_3 -32.751956939697266))