((X_0  0.6500000357627869)
(X_1  0.5617647171020508)
(X_2  0.5656862854957581)
(X_3  0.6578431725502014)
(X_4  0.638235330581665)
(X_5  0.5186274647712708)
(X_6  0.5147058963775635)
(X_7  0.5147058963775635)
(X_8  0.5068627595901489)
(X_9  0.5147058963775635)
(X_10  0.6225490570068359)
(X_11  0.5186274647712708)
(X_12  0.5068627595901489)
(X_13  0.6107843518257141)
(X_14  0.6303921937942505)
(X_15  0.6460784673690796)
(X_16  0.5656862854957581)
(X_17  0.5656862854957581)
(X_18  0.5696078538894653)
(X_19  0.5774509906768799)
(X_20  0.6892157196998596)
(X_21  0.708823561668396)
(X_22  0.6205882430076599)
(X_23  0.6323529481887817)
(X_24  0.7676470875740051)
(X_25  0.6754902005195618)
(X_26  0.6911764740943909)
(X_27  0.8029412031173706)
(X_28  0.19509804248809814)
(X_29  0.10294118523597717)
(X_30  0.11078432202339172)
(X_31  0.10686275362968445)
(X_32  0.09509804844856262)
(X_33  0.08725491166114807)
(X_34  0.09117648005485535)
(X_35  0.19901961088180542)
(X_36  0.0676470622420311)
(X_37  0.06372549384832382)
(X_38  0.06372549384832382)
(X_39  0.06372549384832382)
(X_40  0.07156863063573837)
(X_41  0.17941176891326904)
(X_42  0.18333333730697632)
(X_43  0.0833333432674408)
(X_44  0.19117647409439087)
(X_45  0.19117647409439087)
(X_46  0.09117648005485535)
(X_47  0.09117648005485535)
(X_48  0.09117648005485535)
(X_49  0.09117648005485535)
(X_50  0.09117648005485535)
(X_51  0.09117648005485535)
(X_52  0.19901961088180542)
(X_53  0.10294118523597717)
(X_54  0.11078432202339172)
(X_55  0.2186274528503418)
(X_56  0.16764706373214722)
(X_57  0.07156863063573837)
(X_58  0.07549020648002625)
(X_59  0.07156863063573837)
(X_60  0.0676470622420311)
(X_61  0.0676470622420311)
(X_62  0.07549020648002625)
(X_63  0.0833333432674408)
(X_64  0.114705890417099)
(X_65  0.0990196168422699)
(X_66  0.0833333432674408)
(X_67  0.0833333432674408)
(X_68  0.19509804248809814)
(X_69  0.09509804844856262)
(X_70  0.07941177487373352)
(X_71  0.06372549384832382)
(X_72  0.06372549384832382)
(X_73  0.0676470622420311)
(X_74  0.07549020648002625)
(X_75  0.07941177487373352)
(X_76  0.17941176891326904)
(X_77  0.17941176891326904)
(X_78  0.1715686321258545)
(X_79  0.1715686321258545)
(X_80  0.1715686321258545)
(X_81  0.1715686321258545)
(X_82  0.1715686321258545)
(X_83  0.1715686321258545)
(X_84  0.17549020051956177)
(X_85  0.17549020051956177)
(X_86  0.16764706373214722)
(X_87  0.16372549533843994)
(X_88  0.15980392694473267)
(X_89  0.05980392172932625)
(X_90  0.0676470622420311)
(X_91  0.07156863063573837)
(X_92  0.18333333730697632)
(X_93  0.07549020648002625)
(X_94  0.0676470622420311)
(X_95  0.0676470622420311)
(X_96  0.1715686321258545)
(X_97  0.1715686321258545)
(X_98  0.15980392694473267)
(X_99  0.14803922176361084)
(X_100  0.15196079015731812)
(X_101  0.1558823585510254)
(X_102  0.15980392694473267)
(X_103  0.16372549533843994)
(X_104  0.16764706373214722)
(X_105  0.0676470622420311)
(X_106  0.0676470622420311)
(X_107  0.0676470622420311)
(X_108  0.0676470622420311)
(X_109  0.0676470622420311)
(X_110  0.06372549384832382)
(X_111  0.15980392694473267)
(X_112  0.0833333432674408)
(X_113  0.07549020648002625)
(X_114  0.16764706373214722)
(X_115  0.16764706373214722)
(X_116  0.16764706373214722)
(X_117  0.07549020648002625)
(X_118  0.07941177487373352)
(X_119  0.07941177487373352)
(X_120  0.05980392172932625)
(X_121  0.0676470622420311)
(X_122  0.07549020648002625)
(X_123  0.07549020648002625)
(X_124  0.1715686321258545)
(X_125  0.07156863063573837)
(X_126  0.0833333432674408)
(X_127  0.09509804844856262)
(X_128  0.1872549057006836)
(X_129  0.1872549057006836)
(X_130  0.17941176891326904)
(X_131  0.17549020051956177)
(X_132  0.1715686321258545)
(X_133  0.1715686321258545)
(X_134  0.07156863063573837)
(X_135  0.1715686321258545)
(X_136  0.16764706373214722)
(X_137  0.06372549384832382)
(X_138  0.06372549384832382)
(X_139  0.16372549533843994)
(X_140  0.1401960849761963)
(X_141  0.136274516582489)
(X_142  0.136274516582489)
(X_143  0.14411765336990356)
(X_144  0.05588235333561897)
(X_145  0.06372549384832382)
(X_146  0.0676470622420311)
(X_147  0.16764706373214722)
(X_148  0.16764706373214722)
(X_149  0.17549020051956177)
(X_150  0.17941176891326904)
(X_151  0.16764706373214722)
(X_152  0.14803922176361084)
(X_153  0.1401960849761963)
(X_154  0.1558823585510254)
(X_155  0.1715686321258545)
(X_156  0.04803921654820442)
(X_157  0.0519607849419117)
(X_158  0.15196079015731812)
(X_159  0.15196079015731812)
(X_160  0.1558823585510254)
(X_161  0.1558823585510254)
(X_162  0.1558823585510254)
(X_163  0.1558823585510254)
(X_164  0.16372549533843994)
(X_165  0.06372549384832382)
(X_166  0.0676470622420311)
(X_167  0.17549020051956177)
(X_168  0.05980392172932625)
(X_169  0.0519607849419117)
(X_170  0.0519607849419117)
(X_171  0.16372549533843994)
(X_172  0.17941176891326904)
(X_173  0.1872549057006836)
(X_174  0.0833333432674408)
(X_175  0.17549020051956177)
(X_176  0.17549020051956177)
(X_177  0.1715686321258545)
(X_178  0.16764706373214722)
(X_179  0.16372549533843994)
(X_180  0.16764706373214722)
(X_181  0.17941176891326904)
(X_182  0.19901961088180542)
(X_183  0.21470588445663452)
(X_184  0.1872549057006836)
(X_185  0.19509804248809814)
(X_186  0.2029411792755127)
(X_187  0.2029411792755127)
(X_188  0.19509804248809814)
(X_189  0.07549020648002625)
(X_190  0.0519607849419117)
(X_191  0.1401960849761963)
(X_192  0.15196079015731812)
(X_193  0.15980392694473267)
(X_194  0.0676470622420311)
(X_195  0.07549020648002625)
(X_196  0.07156863063573837)
(X_197  0.06372549384832382)
(X_198  0.06372549384832382)
(X_199  0.07156863063573837)
(X_200  0.17941176891326904)
(X_201  0.17941176891326904)
(X_202  0.16372549533843994)
(X_203  0.15196079015731812)
(X_204  0.0833333432674408)
(X_205  0.17941176891326904)
(X_206  0.18333333730697632)
(X_207  0.22254902124404907)
(X_208  0.18137255311012268)
(X_209  0.240196093916893)
(X_210  0.27941176295280457)
(X_211  0.3950980603694916)
(X_212  0.3754902184009552)
(X_213  0.3794117867946625)
(X_214  0.2754901945590973)
(X_215  0.2558823525905609)
(X_216  0.21274511516094208)
(X_217  0.2539215683937073)
(X_218  0.19509804248809814)
(X_219  0.15980392694473267)
(X_220  0.15196079015731812)
(X_221  0.05980392172932625)
(X_222  0.0676470622420311)
(X_223  0.17549020051956177)
(X_224  0.05980392172932625)
(X_225  0.04411764815449715)
(X_226  0.04411764815449715)
(X_227  0.0676470622420311)
(X_228  0.0676470622420311)
(X_229  0.0519607849419117)
(X_230  0.04803921654820442)
(X_231  0.05980392172932625)
(X_232  0.136274516582489)
(X_233  0.15392157435417175)
(X_234  0.26764705777168274)
(X_235  0.31078431010246277)
(X_236  0.3343137204647064)
(X_237  0.3499999940395355)
(X_238  0.3186274468898773)
(X_239  0.26764705777168274)
(X_240  0.3343137204647064)
(X_241  0.3225490152835846)
(X_242  0.41862747073173523)
(X_243  0.43431374430656433)
(X_244  0.45000001788139343)
(X_245  0.4382353127002716)
(X_246  0.3950980603694916)
(X_247  0.3558823764324188)
(X_248  0.18137255311012268)
(X_249  0.12254902720451355)
(X_250  0.0519607849419117)
(X_251  0.12450980395078659)
(X_252  0.09509804844856262)
(X_253  0.05588235333561897)
(X_254  0.03235294297337532)
(X_255  0.13235294818878174)
(X_256  0.14803922176361084)
(X_257  0.16764706373214722)
(X_258  0.20686274766921997)
(X_259  0.24607843160629272)
(X_260  0.29901960492134094)
(X_261  0.34215685725212097)
(X_262  0.3735294044017792)
(X_263  0.34215685725212097)
(X_264  0.2754901945590973)
(X_265  0.3401961028575897)
(X_266  0.3715686500072479)
(X_267  0.4225490391254425)
(X_268  0.33627453446388245)
(X_269  0.27156862616539)
(X_270  0.40294119715690613)
(X_271  0.4068627655506134)
(X_272  0.3911764919757843)
(X_273  0.40294119715690613)
(X_274  0.45000001788139343)
(X_275  0.49313727021217346)
(X_276  0.49705883860588074)
(X_277  0.3499999940395355)
(X_278  0.2872548997402191)
(X_279  0.24803923070430756)
(X_280  0.16764706373214722)
(X_281  0.04411764815449715)
(X_282  0.036274511367082596)
(X_283  0.07156863063573837)
(X_284  0.13431373238563538)
(X_285  0.3088235557079315)
(X_286  0.387254923582077)
(X_287  0.4421568810939789)
(X_288  0.3735294044017792)
(X_289  0.3225490152835846)
(X_290  0.29901960492134094)
(X_291  0.3225490152835846)
(X_292  0.32647058367729187)
(X_293  0.3068627417087555)
(X_294  0.3343137204647064)
(X_295  0.3892156779766083)
(X_296  0.520588219165802)
(X_297  0.44019606709480286)
(X_298  0.44019606709480286)
(X_299  0.4892157018184662)
(X_300  0.41862747073173523)
(X_301  0.38333335518836975)
(X_302  0.40294119715690613)
(X_303  0.3382352888584137)
(X_304  0.34215685725212097)
(X_305  0.3382352888584137)
(X_306  0.3382352888584137)
(X_307  0.34607842564582825)
(X_308  0.39901962876319885)
(X_309  0.387254923582077)
(X_310  0.3794117867946625)
(X_311  0.29901960492134094)
(X_312  0.32647058367729187)
(X_313  0.3539215624332428)
(X_314  0.3735294044017792)
(X_315  0.385294109582901)
(X_316  0.2872548997402191)
(X_317  0.2754901945590973)
(X_318  0.4225490391254425)
(X_319  0.520588219165802)
(X_320  0.5872549414634705)
(X_321  0.4833333492279053)
(X_322  0.4637255072593689)
(X_323  0.5598039627075195)
(X_324  0.46764707565307617)
(X_325  0.4598039388656616)
(X_326  0.45196080207824707)
(X_327  0.44411763548851013)
(X_328  0.5323529243469238)
(X_329  0.4049019515514374)
(X_330  0.3696078360080719)
(X_331  0.4382353127002716)
(X_332  0.4068627655506134)
(X_333  0.41862747073173523)
(X_334  0.3343137204647064)
(X_335  0.34607842564582825)
(X_336  0.34215685725212097)
(X_337  0.43431374430656433)
(X_338  0.4264706075191498)
(X_339  0.4225490391254425)
(X_340  0.4225490391254425)
(X_341  0.4107843339443207)
(X_342  0.27941176295280457)
(X_343  0.24803923070430756)
(X_344  0.2598039209842682)
(X_345  0.45000001788139343)
(X_346  0.45196080207824707)
(X_347  0.4990196228027344)
(X_348  0.479411780834198)
(X_349  0.4362744987010956)
(X_350  0.4049019515514374)
(X_351  0.49313727021217346)
(X_352  0.44607844948768616)
(X_353  0.4421568810939789)
(X_354  0.4539215862751007)
(X_355  0.3970588147640228)
(X_356  0.4480392038822174)
(X_357  0.5637255311012268)
(X_358  0.5323529243469238)
(X_359  0.49313727021217346)
(X_360  0.2911764681339264)
(X_361  0.29901960492134094)
(X_362  0.3068627417087555)
(X_363  0.3068627417087555)
(X_364  0.28333333134651184)
(X_365  0.28333333134651184)
(X_366  0.3754902184009552)
(X_367  0.38333335518836975)
(X_368  0.41470590233802795)
(X_369  0.3382352888584137)
(X_370  0.33039215207099915)
(X_371  0.3068627417087555)
(X_372  0.36176469922065735)
(X_373  0.39313724637031555)
(X_374  0.4166666567325592)
(X_375  0.5166666507720947)
(X_376  0.4049019515514374)
(X_377  0.3813725411891937)
(X_378  0.3343137204647064)
(X_379  0.2872548997402191)
(X_380  0.3186274468898773)
(X_381  0.3225490152835846)
(X_382  0.43431374430656433)
(X_383  0.3499999940395355)
(X_384  0.3696078360080719)
(X_385  0.385294109582901)
(X_386  0.3970588147640228)
(X_387  0.5049019455909729)
(X_388  0.41470590233802795)
(X_389  0.4225490391254425)
(X_390  0.43039217591285706)
(X_391  0.4382353127002716)
(X_392  0.5598039627075195)
(X_393  0.5480391979217529)
(X_394  0.5284313559532166)
(X_395  0.5166666507720947)
(X_396  0.5401960611343384)
(X_397  0.5715686678886414)
(X_398  0.46764707565307617)
(X_399  0.44019606709480286)
(X_400  0.5284313559532166)
(X_401  0.4382353127002716)
(X_402  0.3754902184009552)
(X_403  0.41862747073173523)
(X_404  0.4852941334247589)
(X_405  0.4852941334247589)
(X_406  0.3186274468898773)
(X_407  0.2598039209842682)
(X_408  0.25196078419685364)
(X_409  0.26372548937797546)
(X_410  0.3754902184009552)
(X_411  0.3911764919757843)
(X_412  0.4107843339443207)
(X_413  0.34215685725212097)
(X_414  0.48137256503105164)
(X_415  0.5088235139846802)
(X_416  0.45196080207824707)
(X_417  0.45196080207824707)
(X_418  0.4480392038822174)
(X_419  0.44411763548851013)
(X_420  0.3892156779766083)
(X_421  0.385294109582901)
(X_422  0.3656862676143646)
(X_423  0.3578431308269501)
(X_424  0.385294109582901)
(X_425  0.4166666567325592)
(X_426  0.40882351994514465)
(X_427  0.3735294044017792)
(X_428  0.3186274468898773)
(X_429  0.20490197837352753)
(X_430  0.16568627953529358)
(X_431  0.23627452552318573)
(X_432  0.3794117867946625)
(X_433  0.3284313976764679)
(X_434  0.17352941632270813)
(X_435  0.17352941632270813)
(X_436  0.30490198731422424)
(X_437  0.29313725233078003)
(X_438  0.29313725233078003)
(X_439  0.32058826088905334)
(X_440  0.36764708161354065)
(X_441  0.40294119715690613)
(X_442  0.31078431010246277)
(X_443  0.3068627417087555)
(X_444  0.385294109582901)
(X_445  0.385294109582901)
(X_446  0.3892156779766083)
(X_447  0.5049019455909729)
(X_448  0.2539215683937073)
(X_449  0.2696078419685364)
(X_450  0.2813725471496582)
(X_451  0.2813725471496582)
(X_452  0.2813725471496582)
(X_453  0.2970588207244873)
(X_454  0.3284313976764679)
(X_455  0.3558823764324188)
(X_456  0.3401961028575897)
(X_457  0.2813725471496582)
(X_458  0.25)
(X_459  0.27352941036224365)
(X_460  0.28921568393707275)
(X_461  0.2774509787559509)
(X_462  0.2813725471496582)
(X_463  0.3088235557079315)
(X_464  0.20098040997982025)
(X_465  0.1774509847164154)
(X_466  0.2539215683937073)
(X_467  0.25)
(X_468  0.2617647051811218)
(X_469  0.2696078419685364)
(X_470  0.2617647051811218)
(X_471  0.25)
(X_472  0.2617647051811218)
(X_473  0.27352941036224365)
(X_474  0.29313725233078003)
(X_475  0.3127451241016388)
(X_476  0.11078432202339172)
(X_477  0.12254902720451355)
(X_478  0.23039215803146362)
(X_479  0.23039215803146362)
(X_480  0.22254902124404907)
(X_481  0.1303921639919281)
(X_482  0.15392157435417175)
(X_483  0.17352941632270813)
(X_484  0.2970588207244873)
(X_485  0.25)
(X_486  0.23823529481887817)
(X_487  0.16960784792900085)
(X_488  0.18529412150382996)
(X_489  0.16960784792900085)
(X_490  0.16568627953529358)
(X_491  0.18529412150382996)
(X_492  0.12647059559822083)
(X_493  0.10294118523597717)
(X_494  0.18333333730697632)
(X_495  0.17941176891326904)
(X_496  0.1872549057006836)
(X_497  0.19509804248809814)
(X_498  0.1872549057006836)
(X_499  0.17549020051956177)
(X_500  0.114705890417099)
(X_501  0.12647059559822083)
(X_502  0.1460784375667572)
(X_503  0.2617647051811218)
(X_504  0.18333333730697632)
(X_505  0.09509804844856262)
(X_506  0.2029411792755127)
(X_507  0.19901961088180542)
(X_508  0.08725491166114807)
(X_509  0.0833333432674408)
(X_510  0.09117648005485535)
(X_511  0.10294118523597717)
(X_512  0.10686275362968445)
(X_513  0.07941177487373352)
(X_514  0.0833333432674408)
(X_515  0.11862745881080627)
(X_516  0.13431373238563538)
(X_517  0.11862745881080627)
(X_518  0.10686275362968445)
(X_519  0.114705890417099)
(X_520  0.12254902720451355)
(X_521  0.10686275362968445)
(X_522  0.08725491166114807)
(X_523  0.0833333432674408)
(X_524  0.09117648005485535)
(X_525  0.09509804844856262)
(X_526  0.09117648005485535)
(X_527  0.17941176891326904)
(X_528  0.0833333432674408)
(X_529  0.09117648005485535)
(X_530  0.10686275362968445)
(X_531  0.2186274528503418)
(X_532  0.15980392694473267)
(X_533  0.1715686321258545)
(X_534  0.17941176891326904)
(X_535  0.17549020051956177)
(X_536  0.16764706373214722)
(X_537  0.05588235333561897)
(X_538  0.05588235333561897)
(X_539  0.05980392172932625)
(X_540  0.04411764815449715)
(X_541  0.03235294297337532)
(X_542  0.136274516582489)
(X_543  0.06372549384832382)
(X_544  0.17549020051956177)
(X_545  0.15980392694473267)
(X_546  0.14803922176361084)
(X_547  0.0519607849419117)
(X_548  0.17549020051956177)
(X_549  0.16372549533843994)
(X_550  0.0519607849419117)
(X_551  0.0519607849419117)
(X_552  0.1558823585510254)
(X_553  0.1558823585510254)
(X_554  0.15196079015731812)
(X_555  0.14803922176361084)
(X_556  0.15980392694473267)
(X_557  0.06372549384832382)
(X_558  0.1715686321258545)
(X_559  0.17941176891326904)
(X_560  0.12450980395078659)
(X_561  0.03235294297337532)
(X_562  0.1401960849761963)
(X_563  0.14411765336990356)
(X_564  0.036274511367082596)
(X_565  0.13235294818878174)
(X_566  0.028431374579668045)
(X_567  0.02450980618596077)
(X_568  0.04803921654820442)
(X_569  0.04019607976078987)
(X_570  0.036274511367082596)
(X_571  0.04803921654820442)
(X_572  0.0519607849419117)
(X_573  0.04411764815449715)
(X_574  0.04019607976078987)
(X_575  0.04411764815449715)
(X_576  0.04019607976078987)
(X_577  0.036274511367082596)
(X_578  0.028431374579668045)
(X_579  0.12843137979507446)
(X_580  0.12843137979507446)
(X_581  0.12843137979507446)
(X_582  0.12450980395078659)
(X_583  0.12058823555707932)
(X_584  0.12843137979507446)
(X_585  0.03235294297337532)
(X_586  0.04019607976078987)
(X_587  0.04411764815449715)
(X_588  0.10882353037595749)
(X_589  0.012745101936161518)
(X_590  0.020588237792253494)
(X_591  0.12450980395078659)
(X_592  0.028431374579668045)
(X_593  0.02450980618596077)
(X_594  0.12058823555707932)
(X_595  0.12058823555707932)
(X_596  0.14803922176361084)
(X_597  0.04019607976078987)
(X_598  0.036274511367082596)
(X_599  0.036274511367082596)
(X_600  0.03235294297337532)
(X_601  0.03235294297337532)
(X_602  0.036274511367082596)
(X_603  0.036274511367082596)
(X_604  0.04411764815449715)
(X_605  0.14411765336990356)
(X_606  0.14411765336990356)
(X_607  0.14411765336990356)
(X_608  0.1401960849761963)
(X_609  0.1401960849761963)
(X_610  0.136274516582489)
(X_611  0.136274516582489)
(X_612  0.028431374579668045)
(X_613  0.028431374579668045)
(X_614  0.13235294818878174)
(X_615  0.136274516582489)
(X_616  0.11666666716337204)
(X_617  0.01666666939854622)
(X_618  0.01666666939854622)
(X_619  0.02450980618596077)
(X_620  0.028431374579668045)
(X_621  0.12843137979507446)
(X_622  0.12843137979507446)
(X_623  0.12450980395078659)
(X_624  0.11274509876966476)
(X_625  0.12058823555707932)
(X_626  0.12058823555707932)
(X_627  0.020588237792253494)
(X_628  0.01666666939854622)
(X_629  0.020588237792253494)
(X_630  0.12058823555707932)
(X_631  0.020588237792253494)
(X_632  0.10882353037595749)
(X_633  0.012745101936161518)
(X_634  0.012745101936161518)
(X_635  0.012745101936161518)
(X_636  0.10882353037595749)
(X_637  0.10490196198225021)
(X_638  0.10490196198225021)
(X_639  0.10490196198225021)
(X_640  0.03235294297337532)
(X_641  0.13235294818878174)
(X_642  0.13235294818878174)
(X_643  0.13235294818878174)
(X_644  0.11274509876966476)
(X_645  0.008823529817163944)
(X_646  0.008823529817163944)
(X_647  0.10882353037595749)
(X_648  0.11666666716337204)
(X_649  0.01666666939854622)
(X_650  0.01666666939854622)
(X_651  0.012745101936161518)
(X_652  -0.006862743757665157)
(X_653  0.008823529817163944)
(X_654  0.020588237792253494)
(X_655  0.020588237792253494)
(X_656  0.020588237792253494)
(X_657  0.02450980618596077)
(X_658  0.02450980618596077)
(X_659  0.020588237792253494)
(X_660  0.11666666716337204)
(X_661  0.12058823555707932)
(X_662  0.12450980395078659)
(X_663  0.12450980395078659)
(X_664  0.020588237792253494)
(X_665  0.01666666939854622)
(X_666  0.012745101936161518)
(X_667  0.01666666939854622)
(X_668  0.008823529817163944)
(X_669  0.008823529817163944)
(X_670  0.012745101936161518)
(X_671  0.012745101936161518)
(X_672  0.11274509876966476)
(X_673  0.008823529817163944)
(X_674  0.004901961423456669)
(X_675  0.004901961423456669)
(X_676  0.012745101936161518)
(X_677  0.11666666716337204)
(X_678  0.10882353037595749)
(X_679  0.10490196198225021)
(X_680  0.01666666939854622)
(X_681  0.01666666939854622)
(X_682  0.11666666716337204)
(X_683  0.11666666716337204)
(X_684  0.11666666716337204)
(X_685  0.11666666716337204)
(X_686  0.01666666939854622)
(X_687  0.01666666939854622)
(X_688  0.10882353037595749)
(X_689  0.10882353037595749)
(X_690  0.10882353037595749)
(X_691  0.10882353037595749)
(X_692  0.10882353037595749)
(X_693  0.10882353037595749)
(X_694  0.008823529817163944)
(X_695  0.008823529817163944)
(X_696  0.11274509876966476)
(X_697  0.11274509876966476)
(X_698  0.11274509876966476)
(X_699  0.11666666716337204)
(X_700  0.11274509876966476)
(X_701  0.004901961423456669)
(X_702  0.0009803927969187498)
(X_703  0.004901961423456669)
(X_704  0.008823529817163944)
(X_705  0.012745101936161518)
(X_706  0.008823529817163944)
(X_707  0.0009803927969187498)
(X_708  0.008823529817163944)
(X_709  0.008823529817163944)
(X_710  0.008823529817163944)
(X_711  0.10882353037595749)
(X_712  0.10882353037595749)
(X_713  0.008823529817163944)
(X_714  0.008823529817163944)
(X_715  0.008823529817163944)
(X_716  0.10490196198225021)
(X_717  0.10490196198225021)
(X_718  0.004901961423456669)
(X_719  0.004901961423456669)
(X_720  0.10490196198225021)
(X_721  0.10490196198225021)
(X_722  0.10490196198225021)
(X_723  0.10490196198225021)
(X_724  0.10882353037595749)
(X_725  0.008823529817163944)
(X_726  0.11274509876966476)
(X_727  0.11274509876966476)
(X_728  0.10490196198225021)
(X_729  0.0009803927969187498)
(X_730  -0.0029411755967885256)
(X_731  0.09705882519483566)
(X_732  0.10490196198225021)
(X_733  0.10882353037595749)
(X_734  0.10098039358854294)
(X_735  0.09705882519483566)
(X_736  0.10098039358854294)
(X_737  0.10098039358854294)
(X_738  0.0009803927969187498)
(X_739  0.0009803927969187498)
(X_740  0.10098039358854294)
(X_741  0.10098039358854294)
(X_742  0.10098039358854294)
(X_743  0.10098039358854294)
(X_744  0.10098039358854294)
(X_745  0.10098039358854294)
(X_746  0.10098039358854294)
(X_747  0.0009803927969187498)
(X_748  0.10098039358854294)
(X_749  0.10098039358854294)
(X_750  0.0009803927969187498)
(X_751  0.0009803927969187498)
(X_752  0.10490196198225021)
(X_753  0.10490196198225021)
(X_754  0.10490196198225021)
(X_755  0.10882353037595749)
(X_756  0.10098039358854294)
(X_757  -0.0029411755967885256)
(X_758  -0.006862743757665157)
(X_759  -0.006862743757665157)
(X_760  0.0009803927969187498)
(X_761  0.0009803927969187498)
(X_762  0.09705882519483566)
(X_763  0.09313725680112839)
(X_764  -0.0029411755967885256)
(X_765  -0.0029411755967885256)
(X_766  -0.0029411755967885256)
(X_767  -0.0029411755967885256)
(X_768  -0.0029411755967885256)
(X_769  -0.0029411755967885256)
(X_770  -0.0029411755967885256)
(X_771  -0.0029411755967885256)
(X_772  -0.0029411755967885256)
(X_773  -0.0029411755967885256)
(X_774  -0.0029411755967885256)
(X_775  -0.0029411755967885256)
(X_776  0.09705882519483566)
(X_777  -0.0029411755967885256)
(X_778  -0.0029411755967885256)
(X_779  -0.0029411755967885256)
(X_780  0.0009803927969187498)
(X_781  0.0009803927969187498)
(X_782  0.0009803927969187498)
(X_783  0.0009803927969187498)
(Y_0 -27.844005584716797)
(Y_1 43.44186019897461)
(Y_2 -23.09282875061035)
(Y_3 9.48093032836914))