((X_0  1.0460784435272217)
(X_1  0.9460784196853638)
(X_2  0.9460784196853638)
(X_3  0.9460784196853638)
(X_4  0.9460784196853638)
(X_5  0.9421568512916565)
(X_6  0.9421568512916565)
(X_7  0.9421568512916565)
(X_8  0.9460784196853638)
(X_9  1.0145896673202515)
(X_10  1.0145896673202515)
(X_11  0.9460784196853638)
(X_12  0.9460784196853638)
(X_13  1.0499999523162842)
(X_14  1.0499999523162842)
(X_15  0.9814887046813965)
(X_16  0.949999988079071)
(X_17  0.949999988079071)
(X_18  0.949999988079071)
(X_19  0.9460784196853638)
(X_20  1.0460784435272217)
(X_21  1.0460784435272217)
(X_22  1.0460784435272217)
(X_23  0.9460784196853638)
(X_24  1.0499999523162842)
(X_25  1.0206784009933472)
(X_26  0.949999988079071)
(X_27  0.985410213470459)
(X_28  0.5598039627075195)
(X_29  0.479411780834198)
(X_30  0.5147058963775635)
(X_31  0.5617647171020508)
(X_32  0.6127451062202454)
(X_33  0.6558823585510254)
(X_34  0.6911764740943909)
(X_35  0.74619460105896)
(X_36  0.7578431367874146)
(X_37  0.8813725709915161)
(X_38  0.8049019575119019)
(X_39  0.820588231086731)
(X_40  0.8519607782363892)
(X_41  0.8911764621734619)
(X_42  1.0147058963775635)
(X_43  0.9440273642539978)
(X_44  1.0147058963775635)
(X_45  1.0264705419540405)
(X_46  0.9382352828979492)
(X_47  0.9382352828979492)
(X_48  0.9303921461105347)
(X_49  0.9343137145042419)
(X_50  0.949999988079071)
(X_51  0.949999988079071)
(X_52  1.0147058963775635)
(X_53  1.022549033164978)
(X_54  1.034313678741455)
(X_55  1.0460784435272217)
(X_56  0.1872549057006836)
(X_57  0.09117648005485535)
(X_58  0.09117648005485535)
(X_59  0.09509804844856262)
(X_60  0.0990196168422699)
(X_61  0.10294118523597717)
(X_62  0.10686275362968445)
(X_63  0.11078432202339172)
(X_64  0.15000000596046448)
(X_65  0.17352941632270813)
(X_66  0.1931372582912445)
(X_67  0.20490197837352753)
(X_68  0.29694268107414246)
(X_69  0.27156862616539)
(X_70  0.2911764681339264)
(X_71  0.2872548997402191)
(X_72  0.3735294044017792)
(X_73  0.4166666567325592)
(X_74  0.479411780834198)
(X_75  0.5343137383460999)
(X_76  0.6813725829124451)
(X_77  0.7362745404243469)
(X_78  0.8029412031173706)
(X_79  0.8539215922355652)
(X_80  0.8931372761726379)
(X_81  0.9127451181411743)
(X_82  0.9401960968971252)
(X_83  0.9676470756530762)
(X_84  0.23823529481887817)
(X_85  0.2343137264251709)
(X_86  0.22254902124404907)
(X_87  0.21078431606292725)
(X_88  0.12441956251859665)
(X_89  0.0833333432674408)
(X_90  0.07549020648002625)
(X_91  0.0676470622420311)
(X_92  0.0833333432674408)
(X_93  0.09509804844856262)
(X_94  0.0990196168422699)
(X_95  0.09117648005485535)
(X_96  0.19117647409439087)
(X_97  0.20686274766921997)
(X_98  0.10686275362968445)
(X_99  0.19901961088180542)
(X_100  0.23039215803146362)
(X_101  0.2343137264251709)
(X_102  0.23823529481887817)
(X_103  0.23039215803146362)
(X_104  0.21470588445663452)
(X_105  0.10686275362968445)
(X_106  0.114705890417099)
(X_107  0.12647059559822083)
(X_108  0.16960784792900085)
(X_109  0.18529412150382996)
(X_110  0.21274511516094208)
(X_111  0.3069530129432678)
(X_112  0.09509804844856262)
(X_113  0.12441956251859665)
(X_114  0.1636093556880951)
(X_115  0.16753092408180237)
(X_116  0.11078432202339172)
(X_117  0.114705890417099)
(X_118  0.11862745881080627)
(X_119  0.11862745881080627)
(X_120  0.2186274528503418)
(X_121  0.1303921639919281)
(X_122  0.12647059559822083)
(X_123  0.114705890417099)
(X_124  0.21078431606292725)
(X_125  0.12254902720451355)
(X_126  0.12254902720451355)
(X_127  0.11078432202339172)
(X_128  0.21470588445663452)
(X_129  0.20686274766921997)
(X_130  0.2029411792755127)
(X_131  0.21078431606292725)
(X_132  0.23039215803146362)
(X_133  0.24607843160629272)
(X_134  0.2167569100856781)
(X_135  0.24215686321258545)
(X_136  0.19117647409439087)
(X_137  0.09509804844856262)
(X_138  0.17145249247550964)
(X_139  0.21470588445663452)
(X_140  0.21078431606292725)
(X_141  0.21078431606292725)
(X_142  0.20686274766921997)
(X_143  0.2029411792755127)
(X_144  0.0990196168422699)
(X_145  0.0990196168422699)
(X_146  0.09509804844856262)
(X_147  0.19509804248809814)
(X_148  0.18333333730697632)
(X_149  0.19509804248809814)
(X_150  0.19117647409439087)
(X_151  0.17941176891326904)
(X_152  0.17549020051956177)
(X_153  0.18333333730697632)
(X_154  0.18333333730697632)
(X_155  0.1715686321258545)
(X_156  0.12254902720451355)
(X_157  0.1636093556880951)
(X_158  0.17941176891326904)
(X_159  0.18333333730697632)
(X_160  0.20686274766921997)
(X_161  0.114705890417099)
(X_162  0.0990196168422699)
(X_163  0.17941176891326904)
(X_164  0.23039215803146362)
(X_165  0.1949819028377533)
(X_166  0.22647058963775635)
(X_167  0.22254902124404907)
(X_168  0.19509804248809814)
(X_169  0.19901961088180542)
(X_170  0.17361965775489807)
(X_171  0.20686274766921997)
(X_172  0.18146279454231262)
(X_173  0.15011614561080933)
(X_174  0.114705890417099)
(X_175  0.2186274528503418)
(X_176  0.2186274528503418)
(X_177  0.22647058963775635)
(X_178  0.22254902124404907)
(X_179  0.20686274766921997)
(X_180  0.19901961088180542)
(X_181  0.20686274766921997)
(X_182  0.10294118523597717)
(X_183  0.08725491166114807)
(X_184  0.2186274528503418)
(X_185  0.21078431606292725)
(X_186  0.2029411792755127)
(X_187  0.21470588445663452)
(X_188  0.2343137264251709)
(X_189  0.1460784375667572)
(X_190  0.1460784375667572)
(X_191  0.23823529481887817)
(X_192  0.2186274528503418)
(X_193  0.21470588445663452)
(X_194  0.21470588445663452)
(X_195  0.21078431606292725)
(X_196  0.11078432202339172)
(X_197  0.17145249247550964)
(X_198  0.1322627067565918)
(X_199  0.09509804844856262)
(X_200  0.1872549057006836)
(X_201  0.18333333730697632)
(X_202  0.11090046912431717)
(X_203  0.07156863063573837)
(X_204  0.07941177487373352)
(X_205  0.19117647409439087)
(X_206  0.19509804248809814)
(X_207  0.18333333730697632)
(X_208  0.08725491166114807)
(X_209  0.0990196168422699)
(X_210  0.0990196168422699)
(X_211  0.08725491166114807)
(X_212  0.18333333730697632)
(X_213  0.1872549057006836)
(X_214  0.19117647409439087)
(X_215  0.19509804248809814)
(X_216  0.19901961088180542)
(X_217  0.2029411792755127)
(X_218  0.21470588445663452)
(X_219  0.2186274528503418)
(X_220  0.19509804248809814)
(X_221  0.0990196168422699)
(X_222  0.10294118523597717)
(X_223  0.20686274766921997)
(X_224  0.32647058367729187)
(X_225  0.31470587849617004)
(X_226  0.3794117867946625)
(X_227  0.3284313976764679)
(X_228  0.18921568989753723)
(X_229  0.1617647111415863)
(X_230  0.11862745881080627)
(X_231  0.07941177487373352)
(X_232  0.0676470622420311)
(X_233  0.08725491166114807)
(X_234  0.09509804844856262)
(X_235  0.0833333432674408)
(X_236  0.08725491166114807)
(X_237  0.11078432202339172)
(X_238  0.114705890417099)
(X_239  0.10294118523597717)
(X_240  0.0833333432674408)
(X_241  0.2539215683937073)
(X_242  0.17941176891326904)
(X_243  0.19509804248809814)
(X_244  0.2029411792755127)
(X_245  0.15196079015731812)
(X_246  0.2029411792755127)
(X_247  0.09509804844856262)
(X_248  0.10686275362968445)
(X_249  0.0990196168422699)
(X_250  0.10294118523597717)
(X_251  0.21078431606292725)
(X_252  0.5813725590705872)
(X_253  0.5578431487083435)
(X_254  0.5343137383460999)
(X_255  0.6186274886131287)
(X_256  0.6107843518257141)
(X_257  0.551960825920105)
(X_258  0.43039217591285706)
(X_259  0.32058826088905334)
(X_260  0.11862745881080627)
(X_261  0.10686275362968445)
(X_262  0.09509804844856262)
(X_263  0.0990196168422699)
(X_264  0.2029411792755127)
(X_265  0.2029411792755127)
(X_266  0.20686274766921997)
(X_267  0.21470588445663452)
(X_268  0.19509804248809814)
(X_269  0.2539215683937073)
(X_270  0.2539215683937073)
(X_271  0.3088235557079315)
(X_272  0.3715686500072479)
(X_273  0.36764708161354065)
(X_274  0.39901962876319885)
(X_275  0.39106032252311707)
(X_276  0.2754901945590973)
(X_277  0.25196078419685364)
(X_278  0.21666668355464935)
(X_279  0.18137255311012268)
(X_280  0.4696078598499298)
(X_281  0.5049019455909729)
(X_282  0.4323529303073883)
(X_283  0.44019606709480286)
(X_284  0.44411763548851013)
(X_285  0.5558823943138123)
(X_286  0.551960825920105)
(X_287  0.5362744927406311)
(X_288  0.3656862676143646)
(X_289  0.2872548997402191)
(X_290  0.19705882668495178)
(X_291  0.24215686321258545)
(X_292  0.22254902124404907)
(X_293  0.1303921639919281)
(X_294  0.1617647111415863)
(X_295  0.19705882668495178)
(X_296  0.38333335518836975)
(X_297  0.31470587849617004)
(X_298  0.3970588147640228)
(X_299  0.46764707565307617)
(X_300  0.6421568989753723)
(X_301  0.6421568989753723)
(X_302  0.5833333730697632)
(X_303  0.522549033164978)
(X_304  0.6421568989753723)
(X_305  0.6500000357627869)
(X_306  0.5264706015586853)
(X_307  0.4911764860153198)
(X_308  0.4107843339443207)
(X_309  0.4421568810939789)
(X_310  0.457843154668808)
(X_311  0.3775671422481537)
(X_312  0.3343137204647064)
(X_313  0.36176469922065735)
(X_314  0.4049019515514374)
(X_315  0.4323529303073883)
(X_316  0.42450979351997375)
(X_317  0.4323529303073883)
(X_318  0.5284313559532166)
(X_319  0.5049019455909729)
(X_320  0.48137256503105164)
(X_321  0.3539215624332428)
(X_322  0.2911764681339264)
(X_323  0.22843138873577118)
(X_324  0.18529412150382996)
(X_325  0.1303921639919281)
(X_326  0.16960784792900085)
(X_327  0.27352941036224365)
(X_328  0.3598039448261261)
(X_329  0.4421568810939789)
(X_330  0.3579593002796173)
(X_331  0.4362744987010956)
(X_332  0.41274508833885193)
(X_333  0.479411780834198)
(X_334  0.5186274647712708)
(X_335  0.5068627595901489)
(X_336  0.42843136191368103)
(X_337  0.5245097875595093)
(X_338  0.520588219165802)
(X_339  0.5323529243469238)
(X_340  0.5598039627075195)
(X_341  0.551960825920105)
(X_342  0.385294109582901)
(X_343  0.31470587849617004)
(X_344  0.43039217591285706)
(X_345  0.5049019455909729)
(X_346  0.42843136191368103)
(X_347  0.39313724637031555)
(X_348  0.385294109582901)
(X_349  0.3970588147640228)
(X_350  0.33039215207099915)
(X_351  0.3245098292827606)
(X_352  0.25)
(X_353  0.19901961088180542)
(X_354  0.2186274528503418)
(X_355  0.07941177487373352)
(X_356  0.24607843160629272)
(X_357  0.3284313976764679)
(X_358  0.30098041892051697)
(X_359  0.29901960492134094)
(X_360  0.3343137204647064)
(X_361  0.42450979351997375)
(X_362  0.48725491762161255)
(X_363  0.47156864404678345)
(X_364  0.4990196228027344)
(X_365  0.5382353067398071)
(X_366  0.6207044124603271)
(X_367  0.708823561668396)
(X_368  0.7205882668495178)
(X_369  0.708823561668396)
(X_370  0.5735294222831726)
(X_371  0.5303921699523926)
(X_372  0.40882351994514465)
(X_373  0.4323529303073883)
(X_374  0.3813725411891937)
(X_375  0.36764708161354065)
(X_376  0.2890995442867279)
(X_377  0.2558823525905609)
(X_378  0.25196078419685364)
(X_379  0.1931372582912445)
(X_380  0.2970588207244873)
(X_381  0.30098041892051697)
(X_382  0.28921568393707275)
(X_383  0.17364555597305298)
(X_384  0.18529412150382996)
(X_385  0.26372548937797546)
(X_386  0.26764705777168274)
(X_387  0.31470587849617004)
(X_388  0.5323529243469238)
(X_389  0.5911765098571777)
(X_390  0.5597136616706848)
(X_391  0.6107843518257141)
(X_392  0.4696078598499298)
(X_393  0.5558823943138123)
(X_394  0.6186274886131287)
(X_395  0.5911765098571777)
(X_396  0.5284313559532166)
(X_397  0.5127450823783875)
(X_398  0.5558823943138123)
(X_399  0.6029412150382996)
(X_400  0.4833333492279053)
(X_401  0.5714524984359741)
(X_402  0.6068627834320068)
(X_403  0.5676470994949341)
(X_404  0.5009803771972656)
(X_405  0.43039217591285706)
(X_406  0.27156862616539)
(X_407  0.23627452552318573)
(X_408  0.43244320154190063)
(X_409  0.3970588147640228)
(X_410  0.31090047955513)
(X_411  0.2852941155433655)
(X_412  0.33235296607017517)
(X_413  0.46176472306251526)
(X_414  0.5990196466445923)
(X_415  0.638235330581665)
(X_416  0.6167569756507874)
(X_417  0.6578431725502014)
(X_418  0.5696078538894653)
(X_419  0.5774509906768799)
(X_420  0.28333333134651184)
(X_421  0.3499999940395355)
(X_422  0.4049019515514374)
(X_423  0.39313724637031555)
(X_424  0.3578431308269501)
(X_425  0.3539215624332428)
(X_426  0.37745097279548645)
(X_427  0.5049019455909729)
(X_428  0.5598039627075195)
(X_429  0.5558823943138123)
(X_430  0.4911764860153198)
(X_431  0.5382353067398071)
(X_432  0.5068627595901489)
(X_433  0.5245097875595093)
(X_434  0.5049019455909729)
(X_435  0.4480392038822174)
(X_436  0.6147059202194214)
(X_437  0.7401961088180542)
(X_438  0.5382353067398071)
(X_439  0.551960825920105)
(X_440  0.5284313559532166)
(X_441  0.5284313559532166)
(X_442  0.46764707565307617)
(X_443  0.385294109582901)
(X_444  0.4480392038822174)
(X_445  0.42450979351997375)
(X_446  0.42450979351997375)
(X_447  0.5637255311012268)
(X_448  0.33235296607017517)
(X_449  0.24411766231060028)
(X_450  0.2558823525905609)
(X_451  0.3480392396450043)
(X_452  0.33627453446388245)
(X_453  0.33627453446388245)
(X_454  0.3558823764324188)
(X_455  0.3794117867946625)
(X_456  0.43039217591285706)
(X_457  0.45000001788139343)
(X_458  0.46176472306251526)
(X_459  0.44607844948768616)
(X_460  0.43039217591285706)
(X_461  0.457843154668808)
(X_462  0.5284313559532166)
(X_463  0.5204979777336121)
(X_464  0.5029411911964417)
(X_465  0.5343137383460999)
(X_466  0.5696078538894653)
(X_467  0.640286386013031)
(X_468  0.6107843518257141)
(X_469  0.5401960611343384)
(X_470  0.5127450823783875)
(X_471  0.520588219165802)
(X_472  0.4539215862751007)
(X_473  0.4225490391254425)
(X_474  0.3950980603694916)
(X_475  0.40294119715690613)
(X_476  0.1617647111415863)
(X_477  0.17352941632270813)
(X_478  0.2852941155433655)
(X_479  0.2813725471496582)
(X_480  0.16960784792900085)
(X_481  0.16960784792900085)
(X_482  0.18529412150382996)
(X_483  0.30098041892051697)
(X_484  0.2852941155433655)
(X_485  0.2813725471496582)
(X_486  0.17352941632270813)
(X_487  0.16960784792900085)
(X_488  0.18921568989753723)
(X_489  0.23235295712947845)
(X_490  0.29509803652763367)
(X_491  0.34215685725212097)
(X_492  0.3813725411891937)
(X_493  0.3892156779766083)
(X_494  0.4049019515514374)
(X_495  0.41274508833885193)
(X_496  0.48137256503105164)
(X_497  0.43039217591285706)
(X_498  0.3950980603694916)
(X_499  0.387254923582077)
(X_500  0.3461686968803406)
(X_501  0.24803923070430756)
(X_502  0.22058825194835663)
(X_503  0.21666668355464935)
(X_504  0.10686275362968445)
(X_505  0.12254902720451355)
(X_506  0.13431373238563538)
(X_507  0.16363525390625)
(X_508  0.12254902720451355)
(X_509  0.12254902720451355)
(X_510  0.16580241918563843)
(X_511  0.20891377329826355)
(X_512  0.16568627953529358)
(X_513  0.13823530077934265)
(X_514  0.10686275362968445)
(X_515  0.11078432202339172)
(X_516  0.15000000596046448)
(X_517  0.20490197837352753)
(X_518  0.24411766231060028)
(X_519  0.26764705777168274)
(X_520  0.26372548937797546)
(X_521  0.24411766231060028)
(X_522  0.240196093916893)
(X_523  0.2558823525905609)
(X_524  0.2558823525905609)
(X_525  0.2245098203420639)
(X_526  0.25989416241645813)
(X_527  0.2696078419685364)
(X_528  0.19705882668495178)
(X_529  0.18137255311012268)
(X_530  0.15784314274787903)
(X_531  0.1460784375667572)
(X_532  0.18333333730697632)
(X_533  0.19509804248809814)
(X_534  0.20686274766921997)
(X_535  0.21078431606292725)
(X_536  0.13618427515029907)
(X_537  0.0990196168422699)
(X_538  0.10294118523597717)
(X_539  0.10686275362968445)
(X_540  0.14215686917304993)
(X_541  0.11078432202339172)
(X_542  0.17941176891326904)
(X_543  0.17941176891326904)
(X_544  0.10686275362968445)
(X_545  0.14215686917304993)
(X_546  0.1617647111415863)
(X_547  0.16568627953529358)
(X_548  0.2774509787559509)
(X_549  0.2539215683937073)
(X_550  0.1460784375667572)
(X_551  0.1617647111415863)
(X_552  0.2696078419685364)
(X_553  0.2539215683937073)
(X_554  0.23039215803146362)
(X_555  0.11862745881080627)
(X_556  0.23039215803146362)
(X_557  0.12647059559822083)
(X_558  0.18930593132972717)
(X_559  0.21078431606292725)
(X_560  0.16372549533843994)
(X_561  0.07156863063573837)
(X_562  0.11482203751802444)
(X_563  0.0833333432674408)
(X_564  0.07941177487373352)
(X_565  0.07549020648002625)
(X_566  0.07549020648002625)
(X_567  0.07549020648002625)
(X_568  0.1872549057006836)
(X_569  0.17549020051956177)
(X_570  0.1383255422115326)
(X_571  0.06372549384832382)
(X_572  0.07156863063573837)
(X_573  0.07941177487373352)
(X_574  0.0833333432674408)
(X_575  0.0833333432674408)
(X_576  0.0990196168422699)
(X_577  0.09117648005485535)
(X_578  0.19509804248809814)
(X_579  0.2029411792755127)
(X_580  0.19901961088180542)
(X_581  0.18333333730697632)
(X_582  0.17941176891326904)
(X_583  0.19117647409439087)
(X_584  0.17549020051956177)
(X_585  0.07941177487373352)
(X_586  0.07941177487373352)
(X_587  0.07156863063573837)
(X_588  0.15980392694473267)
(X_589  0.06372549384832382)
(X_590  0.06372549384832382)
(X_591  0.0676470622420311)
(X_592  0.0676470622420311)
(X_593  0.16372549533843994)
(X_594  0.16372549533843994)
(X_595  0.16372549533843994)
(X_596  0.15980392694473267)
(X_597  0.1715686321258545)
(X_598  0.17941176891326904)
(X_599  0.0833333432674408)
(X_600  0.07941177487373352)
(X_601  0.07549020648002625)
(X_602  0.07941177487373352)
(X_603  0.07941177487373352)
(X_604  0.07921174168586731)
(X_605  0.1383255422115326)
(X_606  0.17941176891326904)
(X_607  0.18333333730697632)
(X_608  0.16372549533843994)
(X_609  0.14411765336990356)
(X_610  0.1558823585510254)
(X_611  0.18333333730697632)
(X_612  0.09304700791835785)
(X_613  0.0676470622420311)
(X_614  0.06372549384832382)
(X_615  0.1558823585510254)
(X_616  0.16372549533843994)
(X_617  0.05980392172932625)
(X_618  0.0519607849419117)
(X_619  0.0519607849419117)
(X_620  0.05588235333561897)
(X_621  0.15980392694473267)
(X_622  0.15980392694473267)
(X_623  0.12656083703041077)
(X_624  0.13235294818878174)
(X_625  0.136274516582489)
(X_626  0.1401960849761963)
(X_627  0.14803922176361084)
(X_628  0.08128230273723602)
(X_629  0.0519607849419117)
(X_630  0.0519607849419117)
(X_631  0.07736073434352875)
(X_632  0.16372549533843994)
(X_633  0.16372549533843994)
(X_634  0.1715686321258545)
(X_635  0.07549020648002625)
(X_636  0.05980392172932625)
(X_637  0.1401960849761963)
(X_638  0.15196079015731812)
(X_639  0.17549020051956177)
(X_640  0.13615836203098297)
(X_641  0.16764706373214722)
(X_642  0.15980392694473267)
(X_643  0.1558823585510254)
(X_644  0.14803922176361084)
(X_645  0.04019607976078987)
(X_646  0.12843137979507446)
(X_647  0.12843137979507446)
(X_648  0.06776321679353714)
(X_649  0.136274516582489)
(X_650  0.136274516582489)
(X_651  0.136274516582489)
(X_652  0.15980392694473267)
(X_653  0.04411764815449715)
(X_654  0.036274511367082596)
(X_655  0.04019607976078987)
(X_656  0.0519607849419117)
(X_657  0.05588235333561897)
(X_658  0.0519607849419117)
(X_659  0.04019607976078987)
(X_660  0.16372549533843994)
(X_661  0.1558823585510254)
(X_662  0.1558823585510254)
(X_663  0.06372549384832382)
(X_664  0.05588235333561897)
(X_665  0.04019607976078987)
(X_666  0.07560635358095169)
(X_667  0.0519607849419117)
(X_668  0.09521419554948807)
(X_669  0.0519607849419117)
(X_670  0.04803921654820442)
(X_671  0.04803921654820442)
(X_672  0.12843137979507446)
(X_673  0.03235294297337532)
(X_674  0.036274511367082596)
(X_675  0.136274516582489)
(X_676  0.09302110970020294)
(X_677  0.12843137979507446)
(X_678  0.13235294818878174)
(X_679  0.1401960849761963)
(X_680  0.136274516582489)
(X_681  0.136274516582489)
(X_682  0.06167445704340935)
(X_683  0.028431374579668045)
(X_684  0.12843137979507446)
(X_685  0.03235294297337532)
(X_686  0.036274511367082596)
(X_687  0.036274511367082596)
(X_688  0.14411765336990356)
(X_689  0.14803922176361084)
(X_690  0.04803921654820442)
(X_691  0.04803921654820442)
(X_692  0.14803922176361084)
(X_693  0.14411765336990356)
(X_694  0.10478581488132477)
(X_695  0.136274516582489)
(X_696  0.1401960849761963)
(X_697  0.1401960849761963)
(X_698  0.14411765336990356)
(X_699  0.14411765336990356)
(X_700  0.12450980395078659)
(X_701  0.028431374579668045)
(X_702  0.136274516582489)
(X_703  0.13235294818878174)
(X_704  0.028431374579668045)
(X_705  0.02450980618596077)
(X_706  0.028431374579668045)
(X_707  0.036274511367082596)
(X_708  0.03235294297337532)
(X_709  0.03235294297337532)
(X_710  0.028431374579668045)
(X_711  0.028431374579668045)
(X_712  0.06384164839982986)
(X_713  0.028431374579668045)
(X_714  0.03235294297337532)
(X_715  0.03235294297337532)
(X_716  0.036274511367082596)
(X_717  0.04019607976078987)
(X_718  0.04019607976078987)
(X_719  0.04019607976078987)
(X_720  0.04019607976078987)
(X_721  0.07168478518724442)
(X_722  0.10303143411874771)
(X_723  0.12843137979507446)
(X_724  0.136274516582489)
(X_725  0.136274516582489)
(X_726  0.1401960849761963)
(X_727  0.1401960849761963)
(X_728  0.12058823555707932)
(X_729  0.05775288864970207)
(X_730  0.13235294818878174)
(X_731  0.12843137979507446)
(X_732  0.12058823555707932)
(X_733  0.12058823555707932)
(X_734  0.12450980395078659)
(X_735  0.12843137979507446)
(X_736  0.12843137979507446)
(X_737  0.12450980395078659)
(X_738  0.02450980618596077)
(X_739  0.020588237792253494)
(X_740  0.020588237792253494)
(X_741  0.02450980618596077)
(X_742  0.02450980618596077)
(X_743  0.028431374579668045)
(X_744  0.028431374579668045)
(X_745  0.028431374579668045)
(X_746  0.03235294297337532)
(X_747  0.03235294297337532)
(X_748  0.13235294818878174)
(X_749  0.12843137979507446)
(X_750  0.12450980395078659)
(X_751  0.12058823555707932)
(X_752  0.13235294818878174)
(X_753  0.13235294818878174)
(X_754  0.136274516582489)
(X_755  0.136274516582489)
(X_756  0.12058823555707932)
(X_757  0.02450980618596077)
(X_758  0.12843137979507446)
(X_759  0.12450980395078659)
(X_760  0.01666666939854622)
(X_761  0.11274509876966476)
(X_762  0.11666666716337204)
(X_763  0.12450980395078659)
(X_764  0.12450980395078659)
(X_765  0.12058823555707932)
(X_766  0.020588237792253494)
(X_767  0.01666666939854622)
(X_768  0.01666666939854622)
(X_769  0.020588237792253494)
(X_770  0.020588237792253494)
(X_771  0.02450980618596077)
(X_772  0.028431374579668045)
(X_773  0.028431374579668045)
(X_774  0.028431374579668045)
(X_775  0.028431374579668045)
(X_776  0.028431374579668045)
(X_777  0.12450980395078659)
(X_778  0.020588237792253494)
(X_779  0.09126672148704529)
(X_780  0.028431374579668045)
(X_781  0.028431374579668045)
(X_782  0.028431374579668045)
(X_783  0.03235294297337532)
(Y_0 -24.498130798339844)
(Y_1 52.92373275756836)
(Y_2 -23.90508460998535)
(Y_3 -3.0070714950561523))