((X_0  0.16372549533843994)
(X_1  0.114705890417099)
(X_2  0.114705890417099)
(X_3  0.06372549384832382)
(X_4  0.16372549533843994)
(X_5  0.23039215803146362)
(X_6  0.15392157435417175)
(X_7  0.12254902720451355)
(X_8  0.22254902124404907)
(X_9  0.22254902124404907)
(X_10  0.19901961088180542)
(X_11  0.16764706373214722)
(X_12  0.1715686321258545)
(X_13  0.19901961088180542)
(X_14  0.20686274766921997)
(X_15  0.19117647409439087)
(X_16  0.0833333432674408)
(X_17  0.08725491166114807)
(X_18  0.0833333432674408)
(X_19  0.07549020648002625)
(X_20  0.1715686321258545)
(X_21  0.17941176891326904)
(X_22  0.0833333432674408)
(X_23  0.07549020648002625)
(X_24  0.14411765336990356)
(X_25  0.15980392694473267)
(X_26  0.18333333730697632)
(X_27  0.2029411792755127)
(X_28  0.2186274528503418)
(X_29  0.16764706373214722)
(X_30  0.16372549533843994)
(X_31  0.12254902720451355)
(X_32  0.15000000596046448)
(X_33  0.12647059559822083)
(X_34  0.22647058963775635)
(X_35  0.25784313678741455)
(X_36  0.2656862735748291)
(X_37  0.16568627953529358)
(X_38  0.16568627953529358)
(X_39  0.1460784375667572)
(X_40  0.0990196168422699)
(X_41  0.05588235333561897)
(X_42  0.06372549384832382)
(X_43  0.09509804844856262)
(X_44  0.0833333432674408)
(X_45  0.0833333432674408)
(X_46  0.17941176891326904)
(X_47  0.07156863063573837)
(X_48  0.07549020648002625)
(X_49  0.08725491166114807)
(X_50  0.0990196168422699)
(X_51  0.0990196168422699)
(X_52  0.2029411792755127)
(X_53  0.19901961088180542)
(X_54  0.19117647409439087)
(X_55  0.18333333730697632)
(X_56  0.1872549057006836)
(X_57  0.07156863063573837)
(X_58  0.10686275362968445)
(X_59  0.16960784792900085)
(X_60  0.1617647111415863)
(X_61  0.10294118523597717)
(X_62  0.09117648005485535)
(X_63  0.13431373238563538)
(X_64  0.21078431606292725)
(X_65  0.12647059559822083)
(X_66  0.18137255311012268)
(X_67  0.24411766231060028)
(X_68  0.2245098203420639)
(X_69  0.14215686917304993)
(X_70  0.08725491166114807)
(X_71  0.0833333432674408)
(X_72  0.07549020648002625)
(X_73  0.07941177487373352)
(X_74  0.0833333432674408)
(X_75  0.09117648005485535)
(X_76  0.1872549057006836)
(X_77  0.17549020051956177)
(X_78  0.16764706373214722)
(X_79  0.15980392694473267)
(X_80  0.16764706373214722)
(X_81  0.16764706373214722)
(X_82  0.07156863063573837)
(X_83  0.17549020051956177)
(X_84  0.1558823585510254)
(X_85  0.18921568989753723)
(X_86  0.3598039448261261)
(X_87  0.2852941155433655)
(X_88  0.19509804248809814)
(X_89  0.17941176891326904)
(X_90  0.1872549057006836)
(X_91  0.17549020051956177)
(X_92  0.0676470622420311)
(X_93  0.07156863063573837)
(X_94  0.114705890417099)
(X_95  0.2088235467672348)
(X_96  0.29901960492134094)
(X_97  0.3186274468898773)
(X_98  0.36764708161354065)
(X_99  0.3088235557079315)
(X_100  0.2539215683937073)
(X_101  0.23039215803146362)
(X_102  0.2029411792755127)
(X_103  0.19117647409439087)
(X_104  0.17549020051956177)
(X_105  0.06372549384832382)
(X_106  0.0676470622420311)
(X_107  0.0833333432674408)
(X_108  0.07549020648002625)
(X_109  0.07941177487373352)
(X_110  0.0833333432674408)
(X_111  0.1872549057006836)
(X_112  0.1931372582912445)
(X_113  0.3225490152835846)
(X_114  0.4264706075191498)
(X_115  0.2617647051811218)
(X_116  0.14411765336990356)
(X_117  0.1715686321258545)
(X_118  0.0990196168422699)
(X_119  0.05980392172932625)
(X_120  0.09509804844856262)
(X_121  0.09117648005485535)
(X_122  0.06372549384832382)
(X_123  0.07549020648002625)
(X_124  0.2088235467672348)
(X_125  0.3813725411891937)
(X_126  0.44019606709480286)
(X_127  0.3970588147640228)
(X_128  0.5245097875595093)
(X_129  0.46176472306251526)
(X_130  0.38333335518836975)
(X_131  0.32058826088905334)
(X_132  0.25784313678741455)
(X_133  0.20686274766921997)
(X_134  0.19509804248809814)
(X_135  0.21078431606292725)
(X_136  0.07549020648002625)
(X_137  0.06372549384832382)
(X_138  0.15196079015731812)
(X_139  0.15196079015731812)
(X_140  0.46568629145622253)
(X_141  0.4264706075191498)
(X_142  0.32058826088905334)
(X_143  0.19901961088180542)
(X_144  0.04019607976078987)
(X_145  0.0519607849419117)
(X_146  0.07156863063573837)
(X_147  0.16764706373214722)
(X_148  0.1558823585510254)
(X_149  0.2029411792755127)
(X_150  0.17941176891326904)
(X_151  0.12450980395078659)
(X_152  0.20686274766921997)
(X_153  0.39901962876319885)
(X_154  0.5009803771972656)
(X_155  0.47745099663734436)
(X_156  0.40882351994514465)
(X_157  0.5049019455909729)
(X_158  0.5245097875595093)
(X_159  0.551960825920105)
(X_160  0.5245097875595093)
(X_161  0.3499999940395355)
(X_162  0.2911764681339264)
(X_163  0.3754902184009552)
(X_164  0.18921568989753723)
(X_165  0.15000000596046448)
(X_166  0.09509804844856262)
(X_167  0.16372549533843994)
(X_168  0.3735294044017792)
(X_169  0.25196078419685364)
(X_170  0.23039215803146362)
(X_171  0.17549020051956177)
(X_172  0.15980392694473267)
(X_173  0.04803921654820442)
(X_174  0.0519607849419117)
(X_175  0.1715686321258545)
(X_176  0.12450980395078659)
(X_177  0.17941176891326904)
(X_178  0.0833333432674408)
(X_179  0.05980392172932625)
(X_180  0.11862745881080627)
(X_181  0.24411766231060028)
(X_182  0.29509803652763367)
(X_183  0.2598039209842682)
(X_184  0.21078431606292725)
(X_185  0.2656862735748291)
(X_186  0.387254923582077)
(X_187  0.5362744927406311)
(X_188  0.5107843279838562)
(X_189  0.4990196228027344)
(X_190  0.5794118046760559)
(X_191  0.5833333730697632)
(X_192  0.5323529243469238)
(X_193  0.37745097279548645)
(X_194  0.29901960492134094)
(X_195  0.240196093916893)
(X_196  0.27156862616539)
(X_197  0.3127451241016388)
(X_198  0.24607843160629272)
(X_199  0.10686275362968445)
(X_200  0.0833333432674408)
(X_201  0.1715686321258545)
(X_202  0.0676470622420311)
(X_203  0.07549020648002625)
(X_204  0.09509804844856262)
(X_205  0.07941177487373352)
(X_206  0.15196079015731812)
(X_207  0.16764706373214722)
(X_208  0.1617647111415863)
(X_209  0.26372548937797546)
(X_210  0.28333333134651184)
(X_211  0.240196093916893)
(X_212  0.21078431606292725)
(X_213  0.2029411792755127)
(X_214  0.24215686321258545)
(X_215  0.3245098292827606)
(X_216  0.3794117867946625)
(X_217  0.39901962876319885)
(X_218  0.4382353127002716)
(X_219  0.4892157018184662)
(X_220  0.5558823943138123)
(X_221  0.4362744987010956)
(X_222  0.4205882251262665)
(X_223  0.520588219165802)
(X_224  0.240196093916893)
(X_225  0.21274511516094208)
(X_226  0.2774509787559509)
(X_227  0.25)
(X_228  0.22647058963775635)
(X_229  0.10294118523597717)
(X_230  0.0833333432674408)
(X_231  0.07549020648002625)
(X_232  0.19117647409439087)
(X_233  0.114705890417099)
(X_234  0.13431373238563538)
(X_235  0.15392157435417175)
(X_236  0.2088235467672348)
(X_237  0.2754901945590973)
(X_238  0.3068627417087555)
(X_239  0.29901960492134094)
(X_240  0.2088235467672348)
(X_241  0.2813725471496582)
(X_242  0.2343137264251709)
(X_243  0.27352941036224365)
(X_244  0.40294119715690613)
(X_245  0.4696078598499298)
(X_246  0.46176472306251526)
(X_247  0.457843154668808)
(X_248  0.49705883860588074)
(X_249  0.4852941334247589)
(X_250  0.3735294044017792)
(X_251  0.3656862676143646)
(X_252  0.240196093916893)
(X_253  0.22843138873577118)
(X_254  0.2245098203420639)
(X_255  0.22843138873577118)
(X_256  0.3127451241016388)
(X_257  0.30490198731422424)
(X_258  0.33235296607017517)
(X_259  0.3754902184009552)
(X_260  0.3068627417087555)
(X_261  0.3343137204647064)
(X_262  0.36176469922065735)
(X_263  0.3696078360080719)
(X_264  0.3696078360080719)
(X_265  0.3656862676143646)
(X_266  0.4735294282436371)
(X_267  0.48137256503105164)
(X_268  0.42843136191368103)
(X_269  0.49313727021217346)
(X_270  0.41862747073173523)
(X_271  0.3950980603694916)
(X_272  0.4382353127002716)
(X_273  0.45000001788139343)
(X_274  0.4264706075191498)
(X_275  0.3343137204647064)
(X_276  0.5323529243469238)
(X_277  0.520588219165802)
(X_278  0.39313724637031555)
(X_279  0.36176469922065735)
(X_280  0.3892156779766083)
(X_281  0.43039217591285706)
(X_282  0.4264706075191498)
(X_283  0.41274508833885193)
(X_284  0.479411780834198)
(X_285  0.5558823943138123)
(X_286  0.4892157018184662)
(X_287  0.44607844948768616)
(X_288  0.44411763548851013)
(X_289  0.4637255072593689)
(X_290  0.4990196228027344)
(X_291  0.5147058963775635)
(X_292  0.47156864404678345)
(X_293  0.40882351994514465)
(X_294  0.4009803831577301)
(X_295  0.4362744987010956)
(X_296  0.5676470994949341)
(X_297  0.4754902124404907)
(X_298  0.4362744987010956)
(X_299  0.40882351994514465)
(X_300  0.5166666507720947)
(X_301  0.49705883860588074)
(X_302  0.4735294282436371)
(X_303  0.3892156779766083)
(X_304  0.3382352888584137)
(X_305  0.4049019515514374)
(X_306  0.4950980544090271)
(X_307  0.5617647171020508)
(X_308  0.5872549414634705)
(X_309  0.5009803771972656)
(X_310  0.4892157018184662)
(X_311  0.5029411911964417)
(X_312  0.593137264251709)
(X_313  0.5539215803146362)
(X_314  0.45196080207824707)
(X_315  0.37745097279548645)
(X_316  0.551960825920105)
(X_317  0.5323529243469238)
(X_318  0.5480391979217529)
(X_319  0.5637255311012268)
(X_320  0.5049019455909729)
(X_321  0.31470587849617004)
(X_322  0.3029411733150482)
(X_323  0.3578431308269501)
(X_324  0.3186274468898773)
(X_325  0.3656862676143646)
(X_326  0.4892157018184662)
(X_327  0.5049019455909729)
(X_328  0.42450979351997375)
(X_329  0.3970588147640228)
(X_330  0.457843154668808)
(X_331  0.46176472306251526)
(X_332  0.3715686500072479)
(X_333  0.4696078598499298)
(X_334  0.5068627595901489)
(X_335  0.6009804010391235)
(X_336  0.3735294044017792)
(X_337  0.43431374430656433)
(X_338  0.43431374430656433)
(X_339  0.4892157018184662)
(X_340  0.520588219165802)
(X_341  0.40882351994514465)
(X_342  0.4205882251262665)
(X_343  0.45588237047195435)
(X_344  0.5049019455909729)
(X_345  0.4382353127002716)
(X_346  0.3068627417087555)
(X_347  0.31078431010246277)
(X_348  0.2598039209842682)
(X_349  0.16960784792900085)
(X_350  0.15392157435417175)
(X_351  0.30098041892051697)
(X_352  0.3127451241016388)
(X_353  0.3598039448261261)
(X_354  0.2754901945590973)
(X_355  0.29901960492134094)
(X_356  0.32647058367729187)
(X_357  0.3950980603694916)
(X_358  0.33627453446388245)
(X_359  0.3245098292827606)
(X_360  0.3401961028575897)
(X_361  0.4068627655506134)
(X_362  0.3813725411891937)
(X_363  0.4166666567325592)
(X_364  0.25196078419685364)
(X_365  0.33627453446388245)
(X_366  0.3401961028575897)
(X_367  0.3754902184009552)
(X_368  0.4107843339443207)
(X_369  0.4225490391254425)
(X_370  0.3343137204647064)
(X_371  0.34607842564582825)
(X_372  0.27156862616539)
(X_373  0.19705882668495178)
(X_374  0.15392157435417175)
(X_375  0.2656862735748291)
(X_376  0.24607843160629272)
(X_377  0.09509804844856262)
(X_378  0.0833333432674408)
(X_379  0.11862745881080627)
(X_380  0.25)
(X_381  0.2774509787559509)
(X_382  0.2774509787559509)
(X_383  0.29313725233078003)
(X_384  0.240196093916893)
(X_385  0.23235295712947845)
(X_386  0.20098040997982025)
(X_387  0.20490197837352753)
(X_388  0.2774509787559509)
(X_389  0.33627453446388245)
(X_390  0.4107843339443207)
(X_391  0.3539215624332428)
(X_392  0.30490198731422424)
(X_393  0.2970588207244873)
(X_394  0.29313725233078003)
(X_395  0.32058826088905334)
(X_396  0.3715686500072479)
(X_397  0.387254923582077)
(X_398  0.3284313976764679)
(X_399  0.15392157435417175)
(X_400  0.13431373238563538)
(X_401  0.09117648005485535)
(X_402  0.07549020648002625)
(X_403  0.19901961088180542)
(X_404  0.20686274766921997)
(X_405  0.0833333432674408)
(X_406  0.07549020648002625)
(X_407  0.19509804248809814)
(X_408  0.1872549057006836)
(X_409  0.22254902124404907)
(X_410  0.22647058963775635)
(X_411  0.24607843160629272)
(X_412  0.29313725233078003)
(X_413  0.2970588207244873)
(X_414  0.2852941155433655)
(X_415  0.3088235557079315)
(X_416  0.15000000596046448)
(X_417  0.20490197837352753)
(X_418  0.2754901945590973)
(X_419  0.31470587849617004)
(X_420  0.14215686917304993)
(X_421  0.18137255311012268)
(X_422  0.28921568393707275)
(X_423  0.15784314274787903)
(X_424  0.1460784375667572)
(X_425  0.16568627953529358)
(X_426  0.1617647111415863)
(X_427  0.22647058963775635)
(X_428  0.10294118523597717)
(X_429  0.09117648005485535)
(X_430  0.09509804844856262)
(X_431  0.114705890417099)
(X_432  0.11078432202339172)
(X_433  0.0833333432674408)
(X_434  0.0676470622420311)
(X_435  0.0676470622420311)
(X_436  0.16764706373214722)
(X_437  0.21470588445663452)
(X_438  0.23039215803146362)
(X_439  0.2343137264251709)
(X_440  0.24607843160629272)
(X_441  0.11862745881080627)
(X_442  0.08725491166114807)
(X_443  0.10294118523597717)
(X_444  0.1303921639919281)
(X_445  0.15392157435417175)
(X_446  0.18529412150382996)
(X_447  0.2970588207244873)
(X_448  0.21470588445663452)
(X_449  0.11862745881080627)
(X_450  0.12647059559822083)
(X_451  0.23039215803146362)
(X_452  0.22647058963775635)
(X_453  0.21470588445663452)
(X_454  0.19901961088180542)
(X_455  0.19117647409439087)
(X_456  0.1715686321258545)
(X_457  0.17941176891326904)
(X_458  0.18333333730697632)
(X_459  0.1872549057006836)
(X_460  0.17941176891326904)
(X_461  0.06372549384832382)
(X_462  0.0519607849419117)
(X_463  0.04019607976078987)
(X_464  0.07941177487373352)
(X_465  0.0833333432674408)
(X_466  0.09509804844856262)
(X_467  0.10686275362968445)
(X_468  0.21078431606292725)
(X_469  0.21078431606292725)
(X_470  0.20686274766921997)
(X_471  0.2029411792755127)
(X_472  0.1872549057006836)
(X_473  0.2029411792755127)
(X_474  0.22647058963775635)
(X_475  0.25)
(X_476  0.08725491166114807)
(X_477  0.19117647409439087)
(X_478  0.19901961088180542)
(X_479  0.2029411792755127)
(X_480  0.19901961088180542)
(X_481  0.09117648005485535)
(X_482  0.07941177487373352)
(X_483  0.1715686321258545)
(X_484  0.16764706373214722)
(X_485  0.16764706373214722)
(X_486  0.1715686321258545)
(X_487  0.1715686321258545)
(X_488  0.16764706373214722)
(X_489  0.15980392694473267)
(X_490  0.14803922176361084)
(X_491  0.04411764815449715)
(X_492  0.04411764815449715)
(X_493  0.15196079015731812)
(X_494  0.15980392694473267)
(X_495  0.16764706373214722)
(X_496  0.1715686321258545)
(X_497  0.16764706373214722)
(X_498  0.16372549533843994)
(X_499  0.05980392172932625)
(X_500  0.16764706373214722)
(X_501  0.17549020051956177)
(X_502  0.0833333432674408)
(X_503  0.19509804248809814)
(X_504  0.14803922176361084)
(X_505  0.1558823585510254)
(X_506  0.16372549533843994)
(X_507  0.16764706373214722)
(X_508  0.0676470622420311)
(X_509  0.06372549384832382)
(X_510  0.0519607849419117)
(X_511  0.04803921654820442)
(X_512  0.05588235333561897)
(X_513  0.05588235333561897)
(X_514  0.0519607849419117)
(X_515  0.0519607849419117)
(X_516  0.0519607849419117)
(X_517  0.04803921654820442)
(X_518  0.04803921654820442)
(X_519  0.04411764815449715)
(X_520  0.04411764815449715)
(X_521  0.04803921654820442)
(X_522  0.0519607849419117)
(X_523  0.05588235333561897)
(X_524  0.05588235333561897)
(X_525  0.15196079015731812)
(X_526  0.14803922176361084)
(X_527  0.14411765336990356)
(X_528  0.16372549533843994)
(X_529  0.06372549384832382)
(X_530  0.0676470622420311)
(X_531  0.0676470622420311)
(X_532  0.12450980395078659)
(X_533  0.13235294818878174)
(X_534  0.1401960849761963)
(X_535  0.14411765336990356)
(X_536  0.04803921654820442)
(X_537  0.04411764815449715)
(X_538  0.04019607976078987)
(X_539  0.136274516582489)
(X_540  0.04019607976078987)
(X_541  0.04019607976078987)
(X_542  0.136274516582489)
(X_543  0.13235294818878174)
(X_544  0.13235294818878174)
(X_545  0.036274511367082596)
(X_546  0.04019607976078987)
(X_547  0.04411764815449715)
(X_548  0.14803922176361084)
(X_549  0.14803922176361084)
(X_550  0.15196079015731812)
(X_551  0.15196079015731812)
(X_552  0.15196079015731812)
(X_553  0.14803922176361084)
(X_554  0.1401960849761963)
(X_555  0.036274511367082596)
(X_556  0.15980392694473267)
(X_557  0.05980392172932625)
(X_558  0.15980392694473267)
(X_559  0.15980392694473267)
(X_560  0.11666666716337204)
(X_561  0.02450980618596077)
(X_562  0.028431374579668045)
(X_563  0.036274511367082596)
(X_564  0.036274511367082596)
(X_565  0.036274511367082596)
(X_566  0.036274511367082596)
(X_567  0.03235294297337532)
(X_568  0.03235294297337532)
(X_569  0.12843137979507446)
(X_570  0.12058823555707932)
(X_571  0.01666666939854622)
(X_572  0.020588237792253494)
(X_573  0.02450980618596077)
(X_574  0.03235294297337532)
(X_575  0.036274511367082596)
(X_576  0.028431374579668045)
(X_577  0.028431374579668045)
(X_578  0.028431374579668045)
(X_579  0.12843137979507446)
(X_580  0.12450980395078659)
(X_581  0.12058823555707932)
(X_582  0.11666666716337204)
(X_583  0.11666666716337204)
(X_584  0.13235294818878174)
(X_585  0.03235294297337532)
(X_586  0.03235294297337532)
(X_587  0.03235294297337532)
(X_588  0.11666666716337204)
(X_589  0.020588237792253494)
(X_590  0.12450980395078659)
(X_591  0.12843137979507446)
(X_592  0.13235294818878174)
(X_593  0.03235294297337532)
(X_594  0.028431374579668045)
(X_595  0.028431374579668045)
(X_596  0.12450980395078659)
(X_597  0.12058823555707932)
(X_598  0.11666666716337204)
(X_599  0.11274509876966476)
(X_600  0.012745101936161518)
(X_601  0.01666666939854622)
(X_602  0.020588237792253494)
(X_603  0.02450980618596077)
(X_604  0.12058823555707932)
(X_605  0.12058823555707932)
(X_606  0.11666666716337204)
(X_607  0.11666666716337204)
(X_608  0.11274509876966476)
(X_609  0.11274509876966476)
(X_610  0.10882353037595749)
(X_611  0.10882353037595749)
(X_612  0.020588237792253494)
(X_613  0.020588237792253494)
(X_614  0.01666666939854622)
(X_615  0.11666666716337204)
(X_616  0.11274509876966476)
(X_617  0.01666666939854622)
(X_618  0.01666666939854622)
(X_619  0.01666666939854622)
(X_620  0.12058823555707932)
(X_621  0.12058823555707932)
(X_622  0.020588237792253494)
(X_623  0.11666666716337204)
(X_624  0.01666666939854622)
(X_625  0.11666666716337204)
(X_626  0.11274509876966476)
(X_627  0.11274509876966476)
(X_628  0.11274509876966476)
(X_629  0.012745101936161518)
(X_630  0.012745101936161518)
(X_631  0.11274509876966476)
(X_632  0.020588237792253494)
(X_633  0.020588237792253494)
(X_634  0.01666666939854622)
(X_635  0.01666666939854622)
(X_636  0.01666666939854622)
(X_637  0.11666666716337204)
(X_638  0.11666666716337204)
(X_639  0.11666666716337204)
(X_640  0.020588237792253494)
(X_641  0.020588237792253494)
(X_642  0.12058823555707932)
(X_643  0.12058823555707932)
(X_644  0.008823529817163944)
(X_645  0.008823529817163944)
(X_646  0.10882353037595749)
(X_647  0.10882353037595749)
(X_648  0.10882353037595749)
(X_649  0.10882353037595749)
(X_650  0.10882353037595749)
(X_651  0.10882353037595749)
(X_652  0.11666666716337204)
(X_653  0.11666666716337204)
(X_654  0.11666666716337204)
(X_655  0.11274509876966476)
(X_656  0.012745101936161518)
(X_657  0.008823529817163944)
(X_658  0.008823529817163944)
(X_659  0.008823529817163944)
(X_660  0.10882353037595749)
(X_661  0.10882353037595749)
(X_662  0.10490196198225021)
(X_663  0.004901961423456669)
(X_664  0.004901961423456669)
(X_665  0.008823529817163944)
(X_666  0.008823529817163944)
(X_667  0.012745101936161518)
(X_668  0.004901961423456669)
(X_669  0.008823529817163944)
(X_670  0.11274509876966476)
(X_671  0.01666666939854622)
(X_672  0.11666666716337204)
(X_673  0.01666666939854622)
(X_674  0.01666666939854622)
(X_675  0.012745101936161518)
(X_676  0.012745101936161518)
(X_677  0.012745101936161518)
(X_678  0.10882353037595749)
(X_679  0.10882353037595749)
(X_680  0.12058823555707932)
(X_681  0.11666666716337204)
(X_682  0.11666666716337204)
(X_683  0.11274509876966476)
(X_684  0.10882353037595749)
(X_685  0.10490196198225021)
(X_686  0.0009803927969187498)
(X_687  0.0009803927969187498)
(X_688  0.11666666716337204)
(X_689  0.11666666716337204)
(X_690  0.012745101936161518)
(X_691  0.012745101936161518)
(X_692  0.008823529817163944)
(X_693  0.008823529817163944)
(X_694  0.004901961423456669)
(X_695  0.004901961423456669)
(X_696  0.10490196198225021)
(X_697  0.10490196198225021)
(X_698  0.10882353037595749)
(X_699  0.020588237792253494)
(X_700  0.522549033164978)
(X_701  0.5029411911964417)
(X_702  0.5715686678886414)
(X_703  0.5245097875595093)
(X_704  0.3735294044017792)
(X_705  0.43039217591285706)
(X_706  0.29509803652763367)
(X_707  0.2754901945590973)
(X_708  0.22843138873577118)
(X_709  0.21666668355464935)
(X_710  0.29313725233078003)
(X_711  0.2656862735748291)
(X_712  0.2343137264251709)
(X_713  0.10294118523597717)
(X_714  0.0833333432674408)
(X_715  0.07156863063573837)
(X_716  0.1401960849761963)
(X_717  0.136274516582489)
(X_718  0.036274511367082596)
(X_719  0.028431374579668045)
(X_720  0.02450980618596077)
(X_721  0.020588237792253494)
(X_722  0.11666666716337204)
(X_723  0.11274509876966476)
(X_724  0.12450980395078659)
(X_725  0.11274509876966476)
(X_726  0.10490196198225021)
(X_727  0.10098039358854294)
(X_728  1.0499999523162842)
(X_729  1.0499999523162842)
(X_730  1.0460784435272217)
(X_731  1.0382353067398071)
(X_732  0.9343137145042419)
(X_733  0.9264705777168274)
(X_734  0.9225490093231201)
(X_735  1.022549033164978)
(X_736  1.0107842683792114)
(X_737  1.0029411315917969)
(X_738  0.9833333492279053)
(X_739  0.8598039150238037)
(X_740  0.936274528503418)
(X_741  0.908823549747467)
(X_742  0.79313725233078)
(X_743  0.7813725471496582)
(X_744  0.7303921580314636)
(X_745  0.8068627715110779)
(X_746  0.7637255191802979)
(X_747  0.6049019694328308)
(X_748  0.5421568751335144)
(X_749  0.4833333492279053)
(X_750  0.44019606709480286)
(X_751  0.4166666567325592)
(X_752  0.4421568810939789)
(X_753  0.41862747073173523)
(X_754  0.3950980603694916)
(X_755  0.3794117867946625)
(X_756  1.034313678741455)
(X_757  0.9382352828979492)
(X_758  1.0421568155288696)
(X_759  0.949999988079071)
(X_760  0.949999988079071)
(X_761  0.949999988079071)
(X_762  1.0499999523162842)
(X_763  1.0499999523162842)
(X_764  0.9460784196853638)
(X_765  1.0460784435272217)
(X_766  0.9421568512916565)
(X_767  0.9421568512916565)
(X_768  0.9382352828979492)
(X_769  0.9343137145042419)
(X_770  0.9343137145042419)
(X_771  0.9343137145042419)
(X_772  0.9343137145042419)
(X_773  0.9382352828979492)
(X_774  0.9460784196853638)
(X_775  0.949999988079071)
(X_776  0.949999988079071)
(X_777  1.0499999523162842)
(X_778  0.949999988079071)
(X_779  0.949999988079071)
(X_780  0.949999988079071)
(X_781  0.949999988079071)
(X_782  0.9225490093231201)
(X_783  0.906862735748291)
(Y_0 -24.772235870361328)
(Y_1 15.363262176513672)
(Y_2 -13.762552261352539)
(Y_3 24.436580657958984))