((X_0  0.42352941632270813)
(X_1  0.4470588266849518)
(X_2  0.46666666865348816)
(X_3  0.6078431606292725)
(X_4  0.5764706134796143)
(X_5  0.501960813999176)
(X_6  0.47058823704719543)
(X_7  0.47843137383461)
(X_8  0.42352941632270813)
(X_9  0.4274509847164154)
(X_10  0.501960813999176)
(X_11  0.5058823823928833)
(X_12  0.4627451002597809)
(X_13  0.4000000059604645)
(X_14  0.4313725531101227)
(X_15  0.4627451002597809)
(X_16  0.43921568989753723)
(X_17  0.43921568989753723)
(X_18  0.43529412150382996)
(X_19  0.4470588266849518)
(X_20  0.43921568989753723)
(X_21  0.4117647111415863)
(X_22  0.38823530077934265)
(X_23  0.3686274588108063)
(X_24  0.37254902720451355)
(X_25  0.3843137323856354)
(X_26  0.3686274588108063)
(X_27  0.3529411852359772)
(X_28  0.4000000059604645)
(X_29  0.3803921639919281)
(X_30  0.33725491166114807)
(X_31  0.41960784792900085)
(X_32  0.5254902243614197)
(X_33  0.5058823823928833)
(X_34  0.43529412150382996)
(X_35  0.40784314274787903)
(X_36  0.34117648005485535)
(X_37  0.3490196168422699)
(X_38  0.5137255191802979)
(X_39  0.545098066329956)
(X_40  0.5098039507865906)
(X_41  0.4156862795352936)
(X_42  0.38823530077934265)
(X_43  0.40784314274787903)
(X_44  0.40784314274787903)
(X_45  0.46666666865348816)
(X_46  0.4470588266849518)
(X_47  0.43529412150382996)
(X_48  0.4156862795352936)
(X_49  0.3686274588108063)
(X_50  0.3686274588108063)
(X_51  0.4431372582912445)
(X_52  0.4901960790157318)
(X_53  0.38823530077934265)
(X_54  0.33725491166114807)
(X_55  0.3921568691730499)
(X_56  0.43529412150382996)
(X_57  0.364705890417099)
(X_58  0.32549020648002625)
(X_59  0.33725491166114807)
(X_60  0.45098039507865906)
(X_61  0.5137255191802979)
(X_62  0.4000000059604645)
(X_63  0.2980392277240753)
(X_64  0.26274511218070984)
(X_65  0.3019607961177826)
(X_66  0.45490196347236633)
(X_67  0.5254902243614197)
(X_68  0.615686297416687)
(X_69  0.6392157077789307)
(X_70  0.5411764979362488)
(X_71  0.49803921580314636)
(X_72  0.572549045085907)
(X_73  0.6313725709915161)
(X_74  0.5568627715110779)
(X_75  0.48627451062202454)
(X_76  0.4313725531101227)
(X_77  0.40784314274787903)
(X_78  0.49803921580314636)
(X_79  0.4941176474094391)
(X_80  0.40392157435417175)
(X_81  0.3450980484485626)
(X_82  0.42352941632270813)
(X_83  0.3921568691730499)
(X_84  0.5058823823928833)
(X_85  0.4431372582912445)
(X_86  0.364705890417099)
(X_87  0.3137255012989044)
(X_88  0.34117648005485535)
(X_89  0.45098039507865906)
(X_90  0.34117648005485535)
(X_91  0.23529411852359772)
(X_92  0.21176470816135406)
(X_93  0.25882354378700256)
(X_94  0.3803921639919281)
(X_95  0.46666666865348816)
(X_96  0.5568627715110779)
(X_97  0.6352941393852234)
(X_98  0.6627451181411743)
(X_99  0.6666666865348816)
(X_100  0.6627451181411743)
(X_101  0.6431372761726379)
(X_102  0.6196078658103943)
(X_103  0.5647059082984924)
(X_104  0.5490196347236633)
(X_105  0.545098066329956)
(X_106  0.4745098054409027)
(X_107  0.3803921639919281)
(X_108  0.3529411852359772)
(X_109  0.41960784792900085)
(X_110  0.37254902720451355)
(X_111  0.3294117748737335)
(X_112  0.4156862795352936)
(X_113  0.43921568989753723)
(X_114  0.42352941632270813)
(X_115  0.3607843220233917)
(X_116  0.3333333432674408)
(X_117  0.38823530077934265)
(X_118  0.4000000059604645)
(X_119  0.3490196168422699)
(X_120  0.25882354378700256)
(X_121  0.2549019753932953)
(X_122  0.30980393290519714)
(X_123  0.3686274588108063)
(X_124  0.4627451002597809)
(X_125  0.5411764979362488)
(X_126  0.5882353186607361)
(X_127  0.6078431606292725)
(X_128  0.6196078658103943)
(X_129  0.5882353186607361)
(X_130  0.5490196347236633)
(X_131  0.4745098054409027)
(X_132  0.5137255191802979)
(X_133  0.5137255191802979)
(X_134  0.4117647111415863)
(X_135  0.3960784375667572)
(X_136  0.4117647111415863)
(X_137  0.33725491166114807)
(X_138  0.2705882489681244)
(X_139  0.250980406999588)
(X_140  0.3921568691730499)
(X_141  0.3960784375667572)
(X_142  0.4156862795352936)
(X_143  0.35686275362968445)
(X_144  0.27843138575553894)
(X_145  0.32549020648002625)
(X_146  0.3843137323856354)
(X_147  0.40392157435417175)
(X_148  0.30980393290519714)
(X_149  0.24313725531101227)
(X_150  0.24313725531101227)
(X_151  0.27843138575553894)
(X_152  0.33725491166114807)
(X_153  0.3921568691730499)
(X_154  0.4901960790157318)
(X_155  0.529411792755127)
(X_156  0.5137255191802979)
(X_157  0.47058823704719543)
(X_158  0.4117647111415863)
(X_159  0.3607843220233917)
(X_160  0.364705890417099)
(X_161  0.4274509847164154)
(X_162  0.3843137323856354)
(X_163  0.3607843220233917)
(X_164  0.30980393290519714)
(X_165  0.23137255012989044)
(X_166  0.239215686917305)
(X_167  0.21176470816135406)
(X_168  0.3960784375667572)
(X_169  0.4000000059604645)
(X_170  0.3843137323856354)
(X_171  0.3450980484485626)
(X_172  0.29019609093666077)
(X_173  0.27843138575553894)
(X_174  0.2980392277240753)
(X_175  0.30980393290519714)
(X_176  0.239215686917305)
(X_177  0.19607843458652496)
(X_178  0.2078431397676468)
(X_179  0.23137255012989044)
(X_180  0.2823529541492462)
(X_181  0.30980393290519714)
(X_182  0.3529411852359772)
(X_183  0.3803921639919281)
(X_184  0.4117647111415863)
(X_185  0.3921568691730499)
(X_186  0.30588236451148987)
(X_187  0.3333333432674408)
(X_188  0.2862745225429535)
(X_189  0.3450980484485626)
(X_190  0.3137255012989044)
(X_191  0.3333333432674408)
(X_192  0.2862745225429535)
(X_193  0.1921568661928177)
(X_194  0.2078431397676468)
(X_195  0.22745098173618317)
(X_196  0.5411764979362488)
(X_197  0.545098066329956)
(X_198  0.501960813999176)
(X_199  0.47058823704719543)
(X_200  0.3686274588108063)
(X_201  0.24705882370471954)
(X_202  0.21176470816135406)
(X_203  0.1882352977991104)
(X_204  0.14901961386203766)
(X_205  0.1411764770746231)
(X_206  0.15294118225574493)
(X_207  0.2078431397676468)
(X_208  0.2705882489681244)
(X_209  0.27450981736183167)
(X_210  0.26274511218070984)
(X_211  0.2705882489681244)
(X_212  0.29411765933036804)
(X_213  0.3137255012989044)
(X_214  0.24705882370471954)
(X_215  0.30980393290519714)
(X_216  0.2705882489681244)
(X_217  0.23529411852359772)
(X_218  0.23137255012989044)
(X_219  0.239215686917305)
(X_220  0.21176470816135406)
(X_221  0.16470588743686676)
(X_222  0.1411764770746231)
(X_223  0.1764705926179886)
(X_224  0.5803921818733215)
(X_225  0.6313725709915161)
(X_226  0.6078431606292725)
(X_227  0.5254902243614197)
(X_228  0.38823530077934265)
(X_229  0.21568627655506134)
(X_230  0.16470588743686676)
(X_231  0.1411764770746231)
(X_232  0.10588235408067703)
(X_233  0.09803921729326248)
(X_234  0.09019608050584793)
(X_235  0.125490203499794)
(X_236  0.21960784494876862)
(X_237  0.24313725531101227)
(X_238  0.23529411852359772)
(X_239  0.239215686917305)
(X_240  0.20392157137393951)
(X_241  0.20000000298023224)
(X_242  0.16470588743686676)
(X_243  0.18431372940540314)
(X_244  0.1921568661928177)
(X_245  0.1568627506494522)
(X_246  0.14901961386203766)
(X_247  0.16470588743686676)
(X_248  0.12941177189350128)
(X_249  0.09019608050584793)
(X_250  0.09019608050584793)
(X_251  0.13725490868091583)
(X_252  0.3450980484485626)
(X_253  0.46666666865348816)
(X_254  0.5254902243614197)
(X_255  0.4470588266849518)
(X_256  0.3333333432674408)
(X_257  0.18039216101169586)
(X_258  0.08235294371843338)
(X_259  0.06666667014360428)
(X_260  0.03921568766236305)
(X_261  0.027450980618596077)
(X_262  0.0235294122248888)
(X_263  0.05098039284348488)
(X_264  0.10980392247438431)
(X_265  0.14509804546833038)
(X_266  0.14509804546833038)
(X_267  0.14901961386203766)
(X_268  0.13725490868091583)
(X_269  0.10588235408067703)
(X_270  0.06666667014360428)
(X_271  0.08235294371843338)
(X_272  0.13333334028720856)
(X_273  0.12941177189350128)
(X_274  0.11372549086809158)
(X_275  0.10588235408067703)
(X_276  0.0470588244497776)
(X_277  0.0313725508749485)
(X_278  0.0313725508749485)
(X_279  0.05882352963089943)
(X_280  0.32549020648002625)
(X_281  0.40784314274787903)
(X_282  0.4274509847164154)
(X_283  0.3607843220233917)
(X_284  0.23529411852359772)
(X_285  0.125490203499794)
(X_286  0.03921568766236305)
(X_287  0.019607843831181526)
(X_288  0.007843137718737125)
(X_289  0.003921568859368563)
(X_290  0.007843137718737125)
(X_291  0.019607843831181526)
(X_292  0.05098039284348488)
(X_293  0.0784313753247261)
(X_294  0.08627451211214066)
(X_295  0.10980392247438431)
(X_296  0.07450980693101883)
(X_297  0.03529411926865578)
(X_298  0.027450980618596077)
(X_299  0.04313725605607033)
(X_300  0.07450980693101883)
(X_301  0.06666667014360428)
(X_302  0.05098039284348488)
(X_303  0.03921568766236305)
(X_304  0.01568627543747425)
(X_305  0.0117647061124444)
(X_306  0.0117647061124444)
(X_307  0.0313725508749485)
(X_308  0.3843137323856354)
(X_309  0.4117647111415863)
(X_310  0.3176470696926117)
(X_311  0.2666666805744171)
(X_312  0.16470588743686676)
(X_313  0.07058823853731155)
(X_314  0.0117647061124444)
(X_315  0.003921568859368563)
(X_316  0.003921568859368563)
(X_317  0.003921568859368563)
(X_318  0.003921568859368563)
(X_319  0.007843137718737125)
(X_320  0.0235294122248888)
(X_321  0.07058823853731155)
(X_322  0.08235294371843338)
(X_323  0.06666667014360428)
(X_324  0.03529411926865578)
(X_325  0.01568627543747425)
(X_326  0.007843137718737125)
(X_327  0.01568627543747425)
(X_328  0.01568627543747425)
(X_329  0.007843137718737125)
(X_330  0.007843137718737125)
(X_331  0.007843137718737125)
(X_332  0.003921568859368563)
(X_333  0.003921568859368563)
(X_334  0.007843137718737125)
(X_335  0.01568627543747425)
(X_336  0.43921568989753723)
(X_337  0.3607843220233917)
(X_338  0.24705882370471954)
(X_339  0.18039216101169586)
(X_340  0.10196078568696976)
(X_341  0.0313725508749485)
(X_342  0.003921568859368563)
(X_343  0.003921568859368563)
(X_344  0.003921568859368563)
(X_345  0.003921568859368563)
(X_346  0.003921568859368563)
(X_347  0.003921568859368563)
(X_348  0.003921568859368563)
(X_349  0.01568627543747425)
(X_350  0.0235294122248888)
(X_351  0.0235294122248888)
(X_352  0.0117647061124444)
(X_353  0.007843137718737125)
(X_354  0.003921568859368563)
(X_355  0.003921568859368563)
(X_356  0.003921568859368563)
(X_357  0.007843137718737125)
(X_358  0.003921568859368563)
(X_359  0.003921568859368563)
(X_360  0.003921568859368563)
(X_361  0.003921568859368563)
(X_362  0.003921568859368563)
(X_363  0.027450980618596077)
(X_364  0.37254902720451355)
(X_365  0.2823529541492462)
(X_366  0.1921568661928177)
(X_367  0.09019608050584793)
(X_368  0.03529411926865578)
(X_369  0.0117647061124444)
(X_370  0.003921568859368563)
(X_371  0.003921568859368563)
(X_372  0.003921568859368563)
(X_373  0.003921568859368563)
(X_374  0.003921568859368563)
(X_375  0.003921568859368563)
(X_376  0.003921568859368563)
(X_377  0.003921568859368563)
(X_378  0.003921568859368563)
(X_379  0.003921568859368563)
(X_380  0.003921568859368563)
(X_381  0.003921568859368563)
(X_382  0.003921568859368563)
(X_383  0.003921568859368563)
(X_384  0.003921568859368563)
(X_385  0.003921568859368563)
(X_386  0.003921568859368563)
(X_387  0.003921568859368563)
(X_388  0.003921568859368563)
(X_389  0.003921568859368563)
(X_390  0.003921568859368563)
(X_391  0.019607843831181526)
(X_392  0.13725490868091583)
(X_393  0.09803921729326248)
(X_394  0.07058823853731155)
(X_395  0.019607843831181526)
(X_396  0.007843137718737125)
(X_397  0.003921568859368563)
(X_398  0.003921568859368563)
(X_399  0.003921568859368563)
(X_400  0.003921568859368563)
(X_401  0.003921568859368563)
(X_402  0.003921568859368563)
(X_403  0.003921568859368563)
(X_404  0.003921568859368563)
(X_405  0.003921568859368563)
(X_406  0.003921568859368563)
(X_407  0.003921568859368563)
(X_408  0.003921568859368563)
(X_409  0.003921568859368563)
(X_410  0.003921568859368563)
(X_411  0.003921568859368563)
(X_412  0.003921568859368563)
(X_413  0.003921568859368563)
(X_414  0.003921568859368563)
(X_415  0.003921568859368563)
(X_416  0.003921568859368563)
(X_417  0.003921568859368563)
(X_418  0.003921568859368563)
(X_419  0.003921568859368563)
(X_420  0.0941176488995552)
(X_421  0.0470588244497776)
(X_422  0.0117647061124444)
(X_423  0.003921568859368563)
(X_424  0.003921568859368563)
(X_425  0.003921568859368563)
(X_426  0.003921568859368563)
(X_427  0.003921568859368563)
(X_428  0.003921568859368563)
(X_429  0.003921568859368563)
(X_430  0.003921568859368563)
(X_431  0.003921568859368563)
(X_432  0.003921568859368563)
(X_433  0.003921568859368563)
(X_434  0.003921568859368563)
(X_435  0.003921568859368563)
(X_436  0.003921568859368563)
(X_437  0.003921568859368563)
(X_438  0.003921568859368563)
(X_439  0.003921568859368563)
(X_440  0.003921568859368563)
(X_441  0.003921568859368563)
(X_442  0.003921568859368563)
(X_443  0.003921568859368563)
(X_444  0.003921568859368563)
(X_445  0.003921568859368563)
(X_446  0.003921568859368563)
(X_447  0.003921568859368563)
(X_448  0.054901961237192154)
(X_449  0.019607843831181526)
(X_450  0.003921568859368563)
(X_451  0.003921568859368563)
(X_452  0.003921568859368563)
(X_453  0.003921568859368563)
(X_454  0.003921568859368563)
(X_455  0.003921568859368563)
(X_456  0.003921568859368563)
(X_457  0.003921568859368563)
(X_458  0.003921568859368563)
(X_459  0.003921568859368563)
(X_460  0.003921568859368563)
(X_461  0.003921568859368563)
(X_462  0.003921568859368563)
(X_463  0.003921568859368563)
(X_464  0.003921568859368563)
(X_465  0.003921568859368563)
(X_466  0.003921568859368563)
(X_467  0.003921568859368563)
(X_468  0.003921568859368563)
(X_469  0.003921568859368563)
(X_470  0.003921568859368563)
(X_471  0.003921568859368563)
(X_472  0.003921568859368563)
(X_473  0.003921568859368563)
(X_474  0.003921568859368563)
(X_475  0.003921568859368563)
(X_476  0.0313725508749485)
(X_477  0.0117647061124444)
(X_478  0.003921568859368563)
(X_479  0.003921568859368563)
(X_480  0.003921568859368563)
(X_481  0.003921568859368563)
(X_482  0.003921568859368563)
(X_483  0.003921568859368563)
(X_484  0.003921568859368563)
(X_485  0.003921568859368563)
(X_486  0.003921568859368563)
(X_487  0.003921568859368563)
(X_488  0.003921568859368563)
(X_489  0.003921568859368563)
(X_490  0.003921568859368563)
(X_491  0.003921568859368563)
(X_492  0.003921568859368563)
(X_493  0.003921568859368563)
(X_494  0.003921568859368563)
(X_495  0.003921568859368563)
(X_496  0.003921568859368563)
(X_497  0.003921568859368563)
(X_498  0.003921568859368563)
(X_499  0.003921568859368563)
(X_500  0.003921568859368563)
(X_501  0.003921568859368563)
(X_502  0.007843137718737125)
(X_503  0.007843137718737125)
(X_504  0.01568627543747425)
(X_505  0.007843137718737125)
(X_506  0.003921568859368563)
(X_507  0.003921568859368563)
(X_508  0.003921568859368563)
(X_509  0.003921568859368563)
(X_510  0.003921568859368563)
(X_511  0.003921568859368563)
(X_512  0.003921568859368563)
(X_513  0.003921568859368563)
(X_514  0.003921568859368563)
(X_515  0.003921568859368563)
(X_516  0.003921568859368563)
(X_517  0.003921568859368563)
(X_518  0.003921568859368563)
(X_519  0.003921568859368563)
(X_520  0.003921568859368563)
(X_521  0.003921568859368563)
(X_522  0.003921568859368563)
(X_523  0.003921568859368563)
(X_524  0.003921568859368563)
(X_525  0.003921568859368563)
(X_526  0.003921568859368563)
(X_527  0.003921568859368563)
(X_528  0.003921568859368563)
(X_529  0.007843137718737125)
(X_530  0.007843137718737125)
(X_531  0.007843137718737125)
(X_532  0.019607843831181526)
(X_533  0.0117647061124444)
(X_534  0.007843137718737125)
(X_535  0.007843137718737125)
(X_536  0.003921568859368563)
(X_537  0.003921568859368563)
(X_538  0.003921568859368563)
(X_539  0.003921568859368563)
(X_540  0.003921568859368563)
(X_541  0.003921568859368563)
(X_542  0.003921568859368563)
(X_543  0.003921568859368563)
(X_544  0.003921568859368563)
(X_545  0.003921568859368563)
(X_546  0.003921568859368563)
(X_547  0.003921568859368563)
(X_548  0.003921568859368563)
(X_549  0.003921568859368563)
(X_550  0.003921568859368563)
(X_551  0.003921568859368563)
(X_552  0.003921568859368563)
(X_553  0.007843137718737125)
(X_554  0.0117647061124444)
(X_555  0.0117647061124444)
(X_556  0.0117647061124444)
(X_557  0.01568627543747425)
(X_558  0.019607843831181526)
(X_559  0.0235294122248888)
(X_560  0.027450980618596077)
(X_561  0.0235294122248888)
(X_562  0.019607843831181526)
(X_563  0.019607843831181526)
(X_564  0.0117647061124444)
(X_565  0.0117647061124444)
(X_566  0.007843137718737125)
(X_567  0.0117647061124444)
(X_568  0.007843137718737125)
(X_569  0.007843137718737125)
(X_570  0.007843137718737125)
(X_571  0.007843137718737125)
(X_572  0.007843137718737125)
(X_573  0.007843137718737125)
(X_574  0.0117647061124444)
(X_575  0.0117647061124444)
(X_576  0.01568627543747425)
(X_577  0.01568627543747425)
(X_578  0.019607843831181526)
(X_579  0.0117647061124444)
(X_580  0.01568627543747425)
(X_581  0.019607843831181526)
(X_582  0.027450980618596077)
(X_583  0.0235294122248888)
(X_584  0.027450980618596077)
(X_585  0.0313725508749485)
(X_586  0.03529411926865578)
(X_587  0.04313725605607033)
(X_588  0.0470588244497776)
(X_589  0.03529411926865578)
(X_590  0.0313725508749485)
(X_591  0.027450980618596077)
(X_592  0.027450980618596077)
(X_593  0.027450980618596077)
(X_594  0.0235294122248888)
(X_595  0.0235294122248888)
(X_596  0.019607843831181526)
(X_597  0.019607843831181526)
(X_598  0.019607843831181526)
(X_599  0.019607843831181526)
(X_600  0.019607843831181526)
(X_601  0.019607843831181526)
(X_602  0.0235294122248888)
(X_603  0.0235294122248888)
(X_604  0.0313725508749485)
(X_605  0.027450980618596077)
(X_606  0.027450980618596077)
(X_607  0.0235294122248888)
(X_608  0.027450980618596077)
(X_609  0.03529411926865578)
(X_610  0.03921568766236305)
(X_611  0.04313725605607033)
(X_612  0.0470588244497776)
(X_613  0.054901961237192154)
(X_614  0.054901961237192154)
(X_615  0.05882352963089943)
(X_616  0.05882352963089943)
(X_617  0.05882352963089943)
(X_618  0.05098039284348488)
(X_619  0.054901961237192154)
(X_620  0.03921568766236305)
(X_621  0.04313725605607033)
(X_622  0.04313725605607033)
(X_623  0.03921568766236305)
(X_624  0.03921568766236305)
(X_625  0.03921568766236305)
(X_626  0.03529411926865578)
(X_627  0.03529411926865578)
(X_628  0.0313725508749485)
(X_629  0.03921568766236305)
(X_630  0.0470588244497776)
(X_631  0.03921568766236305)
(X_632  0.03921568766236305)
(X_633  0.03921568766236305)
(X_634  0.04313725605607033)
(X_635  0.0470588244497776)
(X_636  0.062745101749897)
(X_637  0.05882352963089943)
(X_638  0.054901961237192154)
(X_639  0.062745101749897)
(X_640  0.062745101749897)
(X_641  0.062745101749897)
(X_642  0.06666667014360428)
(X_643  0.07450980693101883)
(X_644  0.05882352963089943)
(X_645  0.062745101749897)
(X_646  0.05882352963089943)
(X_647  0.05882352963089943)
(X_648  0.05098039284348488)
(X_649  0.0470588244497776)
(X_650  0.054901961237192154)
(X_651  0.0470588244497776)
(X_652  0.04313725605607033)
(X_653  0.0470588244497776)
(X_654  0.05098039284348488)
(X_655  0.0470588244497776)
(X_656  0.05098039284348488)
(X_657  0.0470588244497776)
(X_658  0.054901961237192154)
(X_659  0.054901961237192154)
(X_660  0.05098039284348488)
(X_661  0.05098039284348488)
(X_662  0.054901961237192154)
(X_663  0.062745101749897)
(X_664  0.062745101749897)
(X_665  0.06666667014360428)
(X_666  0.06666667014360428)
(X_667  0.062745101749897)
(X_668  0.06666667014360428)
(X_669  0.07450980693101883)
(X_670  0.07450980693101883)
(X_671  0.07450980693101883)
(X_672  0.05882352963089943)
(X_673  0.0)
(X_674  0.0)
(X_675  0.0)
(X_676  0.0470588244497776)
(X_677  0.05098039284348488)
(X_678  0.05098039284348488)
(X_679  0.05098039284348488)
(X_680  0.04313725605607033)
(X_681  0.0470588244497776)
(X_682  0.054901961237192154)
(X_683  0.05882352963089943)
(X_684  0.054901961237192154)
(X_685  0.05098039284348488)
(X_686  0.05098039284348488)
(X_687  0.05098039284348488)
(X_688  0.054901961237192154)
(X_689  0.054901961237192154)
(X_690  0.054901961237192154)
(X_691  0.054901961237192154)
(X_692  0.054901961237192154)
(X_693  0.062745101749897)
(X_694  0.07058823853731155)
(X_695  0.06666667014360428)
(X_696  0.07450980693101883)
(X_697  0.07058823853731155)
(X_698  0.06666667014360428)
(X_699  0.07450980693101883)
(X_700  0.054901961237192154)
(X_701  0.0)
(X_702  0.0)
(X_703  0.0)
(X_704  0.054901961237192154)
(X_705  0.054901961237192154)
(X_706  0.054901961237192154)
(X_707  0.05098039284348488)
(X_708  0.05098039284348488)
(X_709  0.054901961237192154)
(X_710  0.054901961237192154)
(X_711  0.054901961237192154)
(X_712  0.05882352963089943)
(X_713  0.05098039284348488)
(X_714  0.05098039284348488)
(X_715  0.054901961237192154)
(X_716  0.05098039284348488)
(X_717  0.0470588244497776)
(X_718  0.054901961237192154)
(X_719  0.05882352963089943)
(X_720  0.05882352963089943)
(X_721  0.05882352963089943)
(X_722  0.06666667014360428)
(X_723  0.07058823853731155)
(X_724  0.07450980693101883)
(X_725  0.07450980693101883)
(X_726  0.07450980693101883)
(X_727  0.0784313753247261)
(X_728  0.06666667014360428)
(X_729  0.0)
(X_730  0.0)
(X_731  0.0)
(X_732  0.05098039284348488)
(X_733  0.05098039284348488)
(X_734  0.054901961237192154)
(X_735  0.054901961237192154)
(X_736  0.054901961237192154)
(X_737  0.05098039284348488)
(X_738  0.05098039284348488)
(X_739  0.05098039284348488)
(X_740  0.05882352963089943)
(X_741  0.05098039284348488)
(X_742  0.05098039284348488)
(X_743  0.05882352963089943)
(X_744  0.054901961237192154)
(X_745  0.054901961237192154)
(X_746  0.062745101749897)
(X_747  0.062745101749897)
(X_748  0.06666667014360428)
(X_749  0.05882352963089943)
(X_750  0.062745101749897)
(X_751  0.06666667014360428)
(X_752  0.06666667014360428)
(X_753  0.06666667014360428)
(X_754  0.07058823853731155)
(X_755  0.07450980693101883)
(X_756  0.06666667014360428)
(X_757  0.07058823853731155)
(X_758  0.062745101749897)
(X_759  0.054901961237192154)
(X_760  0.05098039284348488)
(X_761  0.05098039284348488)
(X_762  0.054901961237192154)
(X_763  0.054901961237192154)
(X_764  0.054901961237192154)
(X_765  0.054901961237192154)
(X_766  0.054901961237192154)
(X_767  0.05882352963089943)
(X_768  0.054901961237192154)
(X_769  0.05882352963089943)
(X_770  0.054901961237192154)
(X_771  0.05098039284348488)
(X_772  0.0470588244497776)
(X_773  0.054901961237192154)
(X_774  0.054901961237192154)
(X_775  0.05882352963089943)
(X_776  0.062745101749897)
(X_777  0.05882352963089943)
(X_778  0.062745101749897)
(X_779  0.062745101749897)
(X_780  0.062745101749897)
(X_781  0.062745101749897)
(X_782  0.07058823853731155)
(X_783  0.07450980693101883)
(Y_0 0.008917186409235))