((X_0  0.6031372547149658)
(X_1  0.5992156863212585)
(X_2  0.6070588231086731)
(X_3  0.6737254858016968)
(X_4  0.7443137168884277)
(X_5  0.7364705801010132)
(X_6  0.7286274433135986)
(X_7  0.7756862640380859)
(X_8  0.8031372427940369)
(X_9  0.9066666960716248)
(X_10  0.910588264465332)
(X_11  0.8909804224967957)
(X_12  0.8752941489219666)
(X_13  0.867451012134552)
(X_14  0.8596078753471375)
(X_15  0.8478431701660156)
(X_16  0.8517647385597229)
(X_17  0.8752941489219666)
(X_18  0.8596078753471375)
(X_19  0.8439216017723083)
(X_20  0.8439216017723083)
(X_21  0.7129411697387695)
(X_22  0.6541176438331604)
(X_23  0.6462745070457458)
(X_24  0.6266666650772095)
(X_25  0.634509801864624)
(X_26  0.7301961183547974)
(X_27  0.7498039603233337)
(X_28  0.6596078872680664)
(X_29  0.6792157292366028)
(X_30  0.6109803915023804)
(X_31  0.6580392122268677)
(X_32  0.7286274433135986)
(X_33  0.7521568536758423)
(X_34  0.7678431272506714)
(X_35  0.8149019479751587)
(X_36  0.7952941060066223)
(X_37  0.8149019479751587)
(X_38  0.9027451276779175)
(X_39  0.8909804224967957)
(X_40  0.8831372857093811)
(X_41  0.8909804224967957)
(X_42  0.8949019908905029)
(X_43  0.8909804224967957)
(X_44  0.8635294437408447)
(X_45  0.8713725805282593)
(X_46  0.8478431701660156)
(X_47  0.7560784220695496)
(X_48  0.7717646956443787)
(X_49  0.7403921484947205)
(X_50  0.6854901909828186)
(X_51  0.677647054195404)
(X_52  0.6188235282897949)
(X_53  0.6149019598960876)
(X_54  0.6909804344177246)
(X_55  0.6909804344177246)
(X_56  0.6792157292366028)
(X_57  0.6423529386520386)
(X_58  0.6462745070457458)
(X_59  0.6501960754394531)
(X_60  0.7011764645576477)
(X_61  0.7403921484947205)
(X_62  0.7599999904632568)
(X_63  0.791372537612915)
(X_64  0.7560784220695496)
(X_65  0.7835294008255005)
(X_66  0.8752941489219666)
(X_67  0.867451012134552)
(X_68  0.8635294437408447)
(X_69  0.8792157173156738)
(X_70  0.8949019908905029)
(X_71  0.8988235592842102)
(X_72  0.7717646956443787)
(X_73  0.8517647385597229)
(X_74  0.8203921914100647)
(X_75  0.8203921914100647)
(X_76  0.7756862640380859)
(X_77  0.7560784220695496)
(X_78  0.6933333277702332)
(X_79  0.6737254858016968)
(X_80  0.6972548961639404)
(X_81  0.7576470971107483)
(X_82  0.7262745499610901)
(X_83  0.7066667079925537)
(X_84  0.6870588660240173)
(X_85  0.6815686225891113)
(X_86  0.6894117593765259)
(X_87  0.661960780620575)
(X_88  0.7733333706855774)
(X_89  0.7325490117073059)
(X_90  0.7403921484947205)
(X_91  0.8282353281974792)
(X_92  0.7929412126541138)
(X_93  0.8282353281974792)
(X_94  0.8596078753471375)
(X_95  0.7796078324317932)
(X_96  0.7756862640380859)
(X_97  0.7874509692192078)
(X_98  0.7992156744003296)
(X_99  0.8031372427940369)
(X_100  0.8517647385597229)
(X_101  0.8439216017723083)
(X_102  0.8007843494415283)
(X_103  0.8007843494415283)
(X_104  0.8478431701660156)
(X_105  0.8360784649848938)
(X_106  0.7772549390792847)
(X_107  0.7576470971107483)
(X_108  0.7207843065261841)
(X_109  0.7615686655044556)
(X_110  0.7145098447799683)
(X_111  0.6792157292366028)
(X_112  0.6792157292366028)
(X_113  0.7733333706855774)
(X_114  0.7207843065261841)
(X_115  0.6972548961639404)
(X_116  0.7286274433135986)
(X_117  0.8400000333786011)
(X_118  0.824313759803772)
(X_119  0.8086274862289429)
(X_120  0.7458823919296265)
(X_121  0.8007843494415283)
(X_122  0.8556863069534302)
(X_123  0.791372537612915)
(X_124  0.791372537612915)
(X_125  0.7992156744003296)
(X_126  0.8070588111877441)
(X_127  0.8070588111877441)
(X_128  0.8752941489219666)
(X_129  0.8439216017723083)
(X_130  0.7694118022918701)
(X_131  0.7419608235359192)
(X_132  0.7850980758666992)
(X_133  0.8086274862289429)
(X_134  0.8047059178352356)
(X_135  0.824313759803772)
(X_136  0.7443137168884277)
(X_137  0.7733333706855774)
(X_138  0.710588276386261)
(X_139  0.667451024055481)
(X_140  0.6462745070457458)
(X_141  0.8125490546226501)
(X_142  0.8400000333786011)
(X_143  0.7443137168884277)
(X_144  0.7639215588569641)
(X_145  0.8321568965911865)
(X_146  0.7772549390792847)
(X_147  0.7380392551422119)
(X_148  0.6831372976303101)
(X_149  0.753725528717041)
(X_150  0.8282353281974792)
(X_151  0.7835294008255005)
(X_152  0.791372537612915)
(X_153  0.8031372427940369)
(X_154  0.8949019908905029)
(X_155  0.8949019908905029)
(X_156  0.867451012134552)
(X_157  0.824313759803772)
(X_158  0.7184314131736755)
(X_159  0.6478431820869446)
(X_160  0.6752941608428955)
(X_161  0.7301961183547974)
(X_162  0.8007843494415283)
(X_163  0.8792157173156738)
(X_164  0.8752941489219666)
(X_165  0.8203921914100647)
(X_166  0.7458823919296265)
(X_167  0.6949020028114319)
(X_168  0.7733333706855774)
(X_169  0.8360784649848938)
(X_170  0.8517647385597229)
(X_171  0.8439216017723083)
(X_172  0.8439216017723083)
(X_173  0.7929412126541138)
(X_174  0.7027451395988464)
(X_175  0.6556863188743591)
(X_176  0.6635294556617737)
(X_177  0.6580392122268677)
(X_178  0.7325490117073059)
(X_179  0.7678431272506714)
(X_180  0.7796078324317932)
(X_181  0.7952941060066223)
(X_182  0.8109803795814514)
(X_183  0.8988235592842102)
(X_184  0.8478431701660156)
(X_185  0.8203921914100647)
(X_186  0.7184314131736755)
(X_187  0.6243137717247009)
(X_188  0.6203922033309937)
(X_189  0.6635294556617737)
(X_190  0.7576470971107483)
(X_191  0.8635294437408447)
(X_192  0.8556863069534302)
(X_193  0.796862781047821)
(X_194  0.7262745499610901)
(X_195  0.6792157292366028)
(X_196  0.7576470971107483)
(X_197  0.8007843494415283)
(X_198  0.8164706230163574)
(X_199  0.824313759803772)
(X_200  0.8360784649848938)
(X_201  0.7733333706855774)
(X_202  0.6752941608428955)
(X_203  0.6321569085121155)
(X_204  0.6949020028114319)
(X_205  0.6854901909828186)
(X_206  0.7560784220695496)
(X_207  0.7796078324317932)
(X_208  0.7874509692192078)
(X_209  0.8831372857093811)
(X_210  0.9027451276779175)
(X_211  0.9145098328590393)
(X_212  0.7717646956443787)
(X_213  0.8517647385597229)
(X_214  0.7733333706855774)
(X_215  0.6831372976303101)
(X_216  0.6478431820869446)
(X_217  0.6556863188743591)
(X_218  0.7262745499610901)
(X_219  0.8282353281974792)
(X_220  0.8517647385597229)
(X_221  0.8007843494415283)
(X_222  0.7341176867485046)
(X_223  0.6988235712051392)
(X_224  0.7223529815673828)
(X_225  0.796862781047821)
(X_226  0.8439216017723083)
(X_227  0.8517647385597229)
(X_228  0.8125490546226501)
(X_229  0.7066667079925537)
(X_230  0.548235297203064)
(X_231  0.5521568655967712)
(X_232  0.6031372547149658)
(X_233  0.7011764645576477)
(X_234  0.7599999904632568)
(X_235  0.7835294008255005)
(X_236  0.8070588111877441)
(X_237  0.8831372857093811)
(X_238  0.8752941489219666)
(X_239  0.8149019479751587)
(X_240  0.7796078324317932)
(X_241  0.7717646956443787)
(X_242  0.6972548961639404)
(X_243  0.5835294127464294)
(X_244  0.6007843613624573)
(X_245  0.6243137717247009)
(X_246  0.6713725924491882)
(X_247  0.6949020028114319)
(X_248  0.7890196442604065)
(X_249  0.8635294437408447)
(X_250  0.796862781047821)
(X_251  0.6949020028114319)
(X_252  0.8086274862289429)
(X_253  0.8125490546226501)
(X_254  0.7890196442604065)
(X_255  0.7772549390792847)
(X_256  0.7615686655044556)
(X_257  0.6870588660240173)
(X_258  0.6086274981498718)
(X_259  0.5168627500534058)
(X_260  0.6501960754394531)
(X_261  0.7247058749198914)
(X_262  0.7639215588569641)
(X_263  0.7756862640380859)
(X_264  0.8031372427940369)
(X_265  0.8870588541030884)
(X_266  0.8792157173156738)
(X_267  0.8227450847625732)
(X_268  0.8031372427940369)
(X_269  0.8031372427940369)
(X_270  0.7521568536758423)
(X_271  0.6462745070457458)
(X_272  0.5560784339904785)
(X_273  0.6125490665435791)
(X_274  0.6478431820869446)
(X_275  0.6870588660240173)
(X_276  0.7890196442604065)
(X_277  0.8596078753471375)
(X_278  0.8203921914100647)
(X_279  0.7419608235359192)
(X_280  0.6658823490142822)
(X_281  0.7168627381324768)
(X_282  0.8007843494415283)
(X_283  0.7576470971107483)
(X_284  0.6988235712051392)
(X_285  0.6282353401184082)
(X_286  0.5443137288093567)
(X_287  0.6149019598960876)
(X_288  0.7011764645576477)
(X_289  0.7560784220695496)
(X_290  0.7639215588569641)
(X_291  0.7678431272506714)
(X_292  0.8031372427940369)
(X_293  0.8949019908905029)
(X_294  0.8870588541030884)
(X_295  0.8227450847625732)
(X_296  0.7952941060066223)
(X_297  0.7992156744003296)
(X_298  0.7756862640380859)
(X_299  0.7011764645576477)
(X_300  0.5874509811401367)
(X_301  0.5129411816596985)
(X_302  0.6007843613624573)
(X_303  0.6439216136932373)
(X_304  0.710588276386261)
(X_305  0.7929412126541138)
(X_306  0.8007843494415283)
(X_307  0.7694118022918701)
(X_308  0.6658823490142822)
(X_309  0.7443137168884277)
(X_310  0.8439216017723083)
(X_311  0.7733333706855774)
(X_312  0.6635294556617737)
(X_313  0.48549023270606995)
(X_314  0.5011764764785767)
(X_315  0.5992156863212585)
(X_316  0.7247058749198914)
(X_317  0.7639215588569641)
(X_318  0.7599999904632568)
(X_319  0.7639215588569641)
(X_320  0.8070588111877441)
(X_321  0.9027451276779175)
(X_322  0.8109803795814514)
(X_323  0.8227450847625732)
(X_324  0.7874509692192078)
(X_325  0.7796078324317932)
(X_326  0.7717646956443787)
(X_327  0.7364705801010132)
(X_328  0.634509801864624)
(X_329  0.5247058868408203)
(X_330  0.5694118142127991)
(X_331  0.5929412245750427)
(X_332  0.6164706349372864)
(X_333  0.710588276386261)
(X_334  0.7850980758666992)
(X_335  0.8007843494415283)
(X_336  0.6658823490142822)
(X_337  0.6815686225891113)
(X_338  0.7262745499610901)
(X_339  0.6752941608428955)
(X_340  0.64000004529953)
(X_341  0.5090196132659912)
(X_342  0.5168627500534058)
(X_343  0.5796078443527222)
(X_344  0.7129411697387695)
(X_345  0.7560784220695496)
(X_346  0.7560784220695496)
(X_347  0.7639215588569641)
(X_348  0.8149019479751587)
(X_349  0.910588264465332)
(X_350  0.8949019908905029)
(X_351  0.8949019908905029)
(X_352  0.818823516368866)
(X_353  0.791372537612915)
(X_354  0.7756862640380859)
(X_355  0.7639215588569641)
(X_356  0.6933333277702332)
(X_357  0.5796078443527222)
(X_358  0.4972549378871918)
(X_359  0.5498039722442627)
(X_360  0.5890196561813354)
(X_361  0.6831372976303101)
(X_362  0.8007843494415283)
(X_363  0.8478431701660156)
(X_364  0.6580392122268677)
(X_365  0.7262745499610901)
(X_366  0.6596078872680664)
(X_367  0.5772549510002136)
(X_368  0.45803922414779663)
(X_369  0.4501960873603821)
(X_370  0.5168627500534058)
(X_371  0.6266666650772095)
(X_372  0.705098032951355)
(X_373  0.7521568536758423)
(X_374  0.7599999904632568)
(X_375  0.7678431272506714)
(X_376  0.818823516368866)
(X_377  0.9145098328590393)
(X_378  0.8949019908905029)
(X_379  0.8988235592842102)
(X_380  0.910588264465332)
(X_381  0.7992156744003296)
(X_382  0.7756862640380859)
(X_383  0.7639215588569641)
(X_384  0.7247058749198914)
(X_385  0.634509801864624)
(X_386  0.520784318447113)
(X_387  0.4462745189666748)
(X_388  0.5890196561813354)
(X_389  0.6478431820869446)
(X_390  0.7733333706855774)
(X_391  0.8439216017723083)
(X_392  0.7443137168884277)
(X_393  0.8007843494415283)
(X_394  0.6949020028114319)
(X_395  0.4776470959186554)
(X_396  0.39137256145477295)
(X_397  0.3717647194862366)
(X_398  0.46588239073753357)
(X_399  0.6070588231086731)
(X_400  0.7129411697387695)
(X_401  0.7639215588569641)
(X_402  0.7678431272506714)
(X_403  0.7717646956443787)
(X_404  0.8909804224967957)
(X_405  0.9066666960716248)
(X_406  0.8949019908905029)
(X_407  0.9066666960716248)
(X_408  0.8109803795814514)
(X_409  0.7952941060066223)
(X_410  0.7756862640380859)
(X_411  0.7639215588569641)
(X_412  0.748235285282135)
(X_413  0.6933333277702332)
(X_414  0.5835294127464294)
(X_415  0.4894118010997772)
(X_416  0.4776470959186554)
(X_417  0.5615686774253845)
(X_418  0.6713725924491882)
(X_419  0.7694118022918701)
(X_420  0.7325490117073059)
(X_421  0.7380392551422119)
(X_422  0.6047059297561646)
(X_423  0.4462745189666748)
(X_424  0.4619608223438263)
(X_425  0.5011764764785767)
(X_426  0.5756862759590149)
(X_427  0.6698039174079895)
(X_428  0.7286274433135986)
(X_429  0.7756862640380859)
(X_430  0.7796078324317932)
(X_431  0.7717646956443787)
(X_432  0.8031372427940369)
(X_433  0.8988235592842102)
(X_434  0.8949019908905029)
(X_435  0.9184314012527466)
(X_436  0.8713725805282593)
(X_437  0.8031372427940369)
(X_438  0.7952941060066223)
(X_439  0.7835294008255005)
(X_440  0.7835294008255005)
(X_441  0.8400000333786011)
(X_442  0.6698039174079895)
(X_443  0.5678431391716003)
(X_444  0.44235295057296753)
(X_445  0.4870588183403015)
(X_446  0.5811765193939209)
(X_447  0.7027451395988464)
(X_448  0.6188235282897949)
(X_449  0.6713725924491882)
(X_450  0.6478431820869446)
(X_451  0.5443137288093567)
(X_452  0.4933333694934845)
(X_453  0.45411765575408936)
(X_454  0.4972549378871918)
(X_455  0.5717647075653076)
(X_456  0.6972548961639404)
(X_457  0.7247058749198914)
(X_458  0.748235285282135)
(X_459  0.7639215588569641)
(X_460  0.867451012134552)
(X_461  0.8988235592842102)
(X_462  0.9066666960716248)
(X_463  0.8227450847625732)
(X_464  0.8423529267311096)
(X_465  0.7952941060066223)
(X_466  0.7874509692192078)
(X_467  0.7874509692192078)
(X_468  0.748235285282135)
(X_469  0.7168627381324768)
(X_470  0.6658823490142822)
(X_471  0.591372549533844)
(X_472  0.5090196132659912)
(X_473  0.55372554063797)
(X_474  0.6086274981498718)
(X_475  0.6988235712051392)
(X_476  0.6698039174079895)
(X_477  0.6439216136932373)
(X_478  0.4501960873603821)
(X_479  0.3952941298484802)
(X_480  0.39137256145477295)
(X_481  0.4305882453918457)
(X_482  0.5286274552345276)
(X_483  0.6188235282897949)
(X_484  0.661960780620575)
(X_485  0.7011764645576477)
(X_486  0.748235285282135)
(X_487  0.7756862640380859)
(X_488  0.8070588111877441)
(X_489  0.9223529696464539)
(X_490  0.938039243221283)
(X_491  0.938039243221283)
(X_492  0.8870588541030884)
(X_493  0.7639215588569641)
(X_494  0.7639215588569641)
(X_495  0.7717646956443787)
(X_496  0.748235285282135)
(X_497  0.7325490117073059)
(X_498  0.6972548961639404)
(X_499  0.634509801864624)
(X_500  0.4305882453918457)
(X_501  0.40705883502960205)
(X_502  0.5694118142127991)
(X_503  0.6909804344177246)
(X_504  0.710588276386261)
(X_505  0.6243137717247009)
(X_506  0.48156866431236267)
(X_507  0.4933333694934845)
(X_508  0.5247058868408203)
(X_509  0.5286274552345276)
(X_510  0.5168627500534058)
(X_511  0.5129411816596985)
(X_512  0.677647054195404)
(X_513  0.7286274433135986)
(X_514  0.7756862640380859)
(X_515  0.791372537612915)
(X_516  0.7952941060066223)
(X_517  0.8870588541030884)
(X_518  0.8909804224967957)
(X_519  0.8870588541030884)
(X_520  0.8541176319122314)
(X_521  0.8070588111877441)
(X_522  0.7992156744003296)
(X_523  0.7992156744003296)
(X_524  0.7717646956443787)
(X_525  0.7560784220695496)
(X_526  0.7247058749198914)
(X_527  0.661960780620575)
(X_528  0.591372549533844)
(X_529  0.46980395913124084)
(X_530  0.4870588183403015)
(X_531  0.4909803867340088)
(X_532  0.6870588660240173)
(X_533  0.5850980877876282)
(X_534  0.49490195512771606)
(X_535  0.4109804034233093)
(X_536  0.4501960873603821)
(X_537  0.4737255275249481)
(X_538  0.46980395913124084)
(X_539  0.4619608223438263)
(X_540  0.5796078443527222)
(X_541  0.6501960754394531)
(X_542  0.7247058749198914)
(X_543  0.7678431272506714)
(X_544  0.791372537612915)
(X_545  0.9027451276779175)
(X_546  0.9262745380401611)
(X_547  0.938039243221283)
(X_548  0.8462744951248169)
(X_549  0.7952941060066223)
(X_550  0.7756862640380859)
(X_551  0.7678431272506714)
(X_552  0.7364705801010132)
(X_553  0.7168627381324768)
(X_554  0.6894117593765259)
(X_555  0.6266666650772095)
(X_556  0.6031372547149658)
(X_557  0.48549023270606995)
(X_558  0.5145097970962524)
(X_559  0.5458824038505554)
(X_560  0.5929412245750427)
(X_561  0.5184313654899597)
(X_562  0.3678431510925293)
(X_563  0.35607844591140747)
(X_564  0.4031372666358948)
(X_565  0.4619608223438263)
(X_566  0.5090196132659912)
(X_567  0.5364705920219421)
(X_568  0.5717647075653076)
(X_569  0.6423529386520386)
(X_570  0.7207843065261841)
(X_571  0.7599999904632568)
(X_572  0.7874509692192078)
(X_573  0.8988235592842102)
(X_574  0.9262745380401611)
(X_575  0.9419608116149902)
(X_576  0.8384313583374023)
(X_577  0.7874509692192078)
(X_578  0.7717646956443787)
(X_579  0.7678431272506714)
(X_580  0.7403921484947205)
(X_581  0.7325490117073059)
(X_582  0.7090196013450623)
(X_583  0.6501960754394531)
(X_584  0.520784318447113)
(X_585  0.3874509930610657)
(X_586  0.40078431367874146)
(X_587  0.4125490188598633)
(X_588  0.45176470279693604)
(X_589  0.48313724994659424)
(X_590  0.4619608223438263)
(X_591  0.6047059297561646)
(X_592  0.6596078872680664)
(X_593  0.6909804344177246)
(X_594  0.710588276386261)
(X_595  0.7223529815673828)
(X_596  0.7694118022918701)
(X_597  0.7325490117073059)
(X_598  0.7756862640380859)
(X_599  0.7874509692192078)
(X_600  0.7874509692192078)
(X_601  0.8792157173156738)
(X_602  0.8909804224967957)
(X_603  0.8909804224967957)
(X_604  0.861960768699646)
(X_605  0.8109803795814514)
(X_606  0.791372537612915)
(X_607  0.7796078324317932)
(X_608  0.748235285282135)
(X_609  0.7286274433135986)
(X_610  0.6972548961639404)
(X_611  0.634509801864624)
(X_612  0.7458823919296265)
(X_613  0.5811765193939209)
(X_614  0.46352940797805786)
(X_615  0.4282352924346924)
(X_616  0.5066666603088379)
(X_617  0.5615686774253845)
(X_618  0.6360784769058228)
(X_619  0.6909804344177246)
(X_620  0.7301961183547974)
(X_621  0.7694118022918701)
(X_622  0.8125490546226501)
(X_623  0.8400000333786011)
(X_624  0.7207843065261841)
(X_625  0.8321568965911865)
(X_626  0.7796078324317932)
(X_627  0.7952941060066223)
(X_628  0.8149019479751587)
(X_629  0.9262745380401611)
(X_630  0.8658823370933533)
(X_631  0.8698039054870605)
(X_632  0.8305882215499878)
(X_633  0.7756862640380859)
(X_634  0.7560784220695496)
(X_635  0.7403921484947205)
(X_636  0.6972548961639404)
(X_637  0.6698039174079895)
(X_638  0.6305882334709167)
(X_639  0.5639215707778931)
(X_640  0.5811765193939209)
(X_641  0.49490195512771606)
(X_642  0.4909803867340088)
(X_643  0.55372554063797)
(X_644  0.6203922033309937)
(X_645  0.6949020028114319)
(X_646  0.7811765074729919)
(X_647  0.8282353281974792)
(X_648  0.8439216017723083)
(X_649  0.8478431701660156)
(X_650  0.8556863069534302)
(X_651  0.7835294008255005)
(X_652  0.8070588111877441)
(X_653  0.818823516368866)
(X_654  0.818823516368866)
(X_655  0.8909804224967957)
(X_656  0.8949019908905029)
(X_657  0.9145098328590393)
(X_658  0.9223529696464539)
(X_659  0.9145098328590393)
(X_660  0.8305882215499878)
(X_661  0.7835294008255005)
(X_662  0.7717646956443787)
(X_663  0.7717646956443787)
(X_664  0.8203921914100647)
(X_665  0.7247058749198914)
(X_666  0.6894117593765259)
(X_667  0.6266666650772095)
(X_668  0.48549023270606995)
(X_669  0.37568628787994385)
(X_670  0.4125490188598633)
(X_671  0.43215686082839966)
(X_672  0.7301961183547974)
(X_673  0.7733333706855774)
(X_674  0.8321568965911865)
(X_675  0.867451012134552)
(X_676  0.8752941489219666)
(X_677  0.7952941060066223)
(X_678  0.8831372857093811)
(X_679  0.8909804224967957)
(X_680  0.8831372857093811)
(X_681  0.8831372857093811)
(X_682  0.8031372427940369)
(X_683  0.8949019908905029)
(X_684  0.910588264465332)
(X_685  0.9262745380401611)
(X_686  0.9301961064338684)
(X_687  0.9301961064338684)
(X_688  0.8423529267311096)
(X_689  0.8266666531562805)
(X_690  0.8031372427940369)
(X_691  0.8635294437408447)
(X_692  0.7717646956443787)
(X_693  0.7639215588569641)
(X_694  0.7560784220695496)
(X_695  0.748235285282135)
(X_696  0.7168627381324768)
(X_697  0.6384313702583313)
(X_698  0.520784318447113)
(X_699  0.4188235402107239)
(X_700  0.8047059178352356)
(X_701  0.8321568965911865)
(X_702  0.867451012134552)
(X_703  0.8870588541030884)
(X_704  0.8870588541030884)
(X_705  0.8870588541030884)
(X_706  0.8949019908905029)
(X_707  0.8227450847625732)
(X_708  0.9027451276779175)
(X_709  0.8988235592842102)
(X_710  0.8988235592842102)
(X_711  0.9066666960716248)
(X_712  0.9223529696464539)
(X_713  0.9341176748275757)
(X_714  0.938039243221283)
(X_715  0.938039243221283)
(X_716  0.8462744951248169)
(X_717  0.8345097899436951)
(X_718  0.8949019908905029)
(X_719  0.8831372857093811)
(X_720  0.8713725805282593)
(X_721  0.7835294008255005)
(X_722  0.7678431272506714)
(X_723  0.7560784220695496)
(X_724  0.7678431272506714)
(X_725  0.7403921484947205)
(X_726  0.6972548961639404)
(X_727  0.6658823490142822)
(X_728  0.7796078324317932)
(X_729  0.7952941060066223)
(X_730  0.8109803795814514)
(X_731  0.8949019908905029)
(X_732  0.8949019908905029)
(X_733  0.8988235592842102)
(X_734  0.9145098328590393)
(X_735  0.9262745380401611)
(X_736  0.9223529696464539)
(X_737  0.9184314012527466)
(X_738  0.9145098328590393)
(X_739  0.9223529696464539)
(X_740  0.9341176748275757)
(X_741  0.9458823800086975)
(X_742  0.9498039484024048)
(X_743  0.9458823800086975)
(X_744  0.938039243221283)
(X_745  0.9301961064338684)
(X_746  0.9145098328590393)
(X_747  0.8988235592842102)
(X_748  0.8831372857093811)
(X_749  0.8596078753471375)
(X_750  0.748235285282135)
(X_751  0.8086274862289429)
(X_752  0.6541176438331604)
(X_753  0.661960780620575)
(X_754  0.753725528717041)
(X_755  0.6894117593765259)
(X_756  0.7717646956443787)
(X_757  0.7835294008255005)
(X_758  0.8792157173156738)
(X_759  0.8909804224967957)
(X_760  0.8949019908905029)
(X_761  0.9066666960716248)
(X_762  0.9262745380401611)
(X_763  0.9419608116149902)
(X_764  0.9341176748275757)
(X_765  0.9301961064338684)
(X_766  0.9262745380401611)
(X_767  0.9301961064338684)
(X_768  0.9419608116149902)
(X_769  0.9498039484024048)
(X_770  0.9498039484024048)
(X_771  0.8698039054870605)
(X_772  0.9498039484024048)
(X_773  0.9419608116149902)
(X_774  0.9262745380401611)
(X_775  0.9066666960716248)
(X_776  0.8752941489219666)
(X_777  0.8321568965911865)
(X_778  0.7850980758666992)
(X_779  0.753725528717041)
(X_780  0.6988235712051392)
(X_781  0.6949020028114319)
(X_782  0.6149019598960876)
(X_783  0.7027451395988464)
(Y_0 -0.6925565004348755))