((X_0  0.06745097786188126)
(X_1  0.09490196406841278)
(X_2  0.06745097786188126)
(X_3  0.03999999910593033)
(X_4  0.14196078479290009)
(X_5  0.051764704287052155)
(X_6  0.10274510085582733)
(X_7  0.27529412508010864)
(X_8  0.55372554063797)
(X_9  0.6188235282897949)
(X_10  0.677647054195404)
(X_11  0.7207843065261841)
(X_12  0.7521568536758423)
(X_13  0.7835294008255005)
(X_14  0.8070588111877441)
(X_15  0.7247058749198914)
(X_16  0.6854901909828186)
(X_17  0.5992156863212585)
(X_18  0.45411765575408936)
(X_19  0.1482352912425995)
(X_20  -0.03215686231851578)
(X_21  0.0909803956747055)
(X_22  0.0909803956747055)
(X_23  0.051764704287052155)
(X_24  0.07137255370616913)
(X_25  0.0752941220998764)
(X_26  -0.000784311443567276)
(X_27  0.0031372569501399994)
(X_28  -0.03215686231851578)
(X_29  0.0031372569501399994)
(X_30  0.05568627640604973)
(X_31  0.03999999910593033)
(X_32  0.07921569049358368)
(X_33  0.03999999910593033)
(X_34  0.06352940946817398)
(X_35  0.17725491523742676)
(X_36  0.4556862711906433)
(X_37  0.6909804344177246)
(X_38  0.7835294008255005)
(X_39  0.8698039054870605)
(X_40  0.8658823370933533)
(X_41  0.8462744951248169)
(X_42  0.8737254738807678)
(X_43  0.8227450847625732)
(X_44  0.7286274433135986)
(X_45  0.5286274552345276)
(X_46  0.34431374073028564)
(X_47  0.19294118881225586)
(X_48  0.04784313589334488)
(X_49  0.04784313589334488)
(X_50  0.059607844799757004)
(X_51  0.0909803956747055)
(X_52  0.07137255370616913)
(X_53  0.07137255370616913)
(X_54  -0.004705879837274551)
(X_55  -0.000784311443567276)
(X_56  -0.020392153412103653)
(X_57  0.0909803956747055)
(X_58  0.0909803956747055)
(X_59  0.1066666692495346)
(X_60  0.0752941220998764)
(X_61  0.08705882728099823)
(X_62  0.10274510085582733)
(X_63  0.16549021005630493)
(X_64  0.3615686297416687)
(X_65  0.5694118142127991)
(X_66  0.6658823490142822)
(X_67  0.8149019479751587)
(X_68  0.8580392003059387)
(X_69  0.8345097899436951)
(X_70  0.8227450847625732)
(X_71  0.7403921484947205)
(X_72  0.6752941608428955)
(X_73  0.4109804034233093)
(X_74  0.28156864643096924)
(X_75  0.13254901766777039)
(X_76  0.11058823764324188)
(X_77  0.09490196406841278)
(X_78  0.059607844799757004)
(X_79  0.06352940946817398)
(X_80  0.07921569049358368)
(X_81  -0.000784311443567276)
(X_82  -0.004705879837274551)
(X_83  -0.004705879837274551)
(X_84  -0.016470586881041527)
(X_85  0.07137255370616913)
(X_86  0.10274510085582733)
(X_87  0.18901962041854858)
(X_88  -0.008627448230981827)
(X_89  0.08705882728099823)
(X_90  0.11843137443065643)
(X_91  0.10509804636240005)
(X_92  0.2737255096435547)
(X_93  0.40705883502960205)
(X_94  0.5129411816596985)
(X_95  0.7262745499610901)
(X_96  0.7811765074729919)
(X_97  0.7654902338981628)
(X_98  0.7694118022918701)
(X_99  0.710588276386261)
(X_100  0.4894118010997772)
(X_101  0.40705883502960205)
(X_102  0.35607844591140747)
(X_103  0.20705881714820862)
(X_104  0.10509804636240005)
(X_105  0.0972549095749855)
(X_106  0.022745102643966675)
(X_107  -0.03999999910593033)
(X_108  0.07921569049358368)
(X_109  -0.004705879837274551)
(X_110  -0.008627448230981827)
(X_111  -0.012549019418656826)
(X_112  0.02666667103767395)
(X_113  -0.004705879837274551)
(X_114  0.14196078479290009)
(X_115  0.27137255668640137)
(X_116  0.13411764800548553)
(X_117  0.05411764979362488)
(X_118  0.11686275154352188)
(X_119  0.2227451056241989)
(X_120  0.3796078562736511)
(X_121  0.48549023270606995)
(X_122  0.5600000023841858)
(X_123  0.710588276386261)
(X_124  0.6870588660240173)
(X_125  0.6439216136932373)
(X_126  0.7145098447799683)
(X_127  0.7498039603233337)
(X_128  0.5835294127464294)
(X_129  0.5090196132659912)
(X_130  0.4776470959186554)
(X_131  0.3521568775177002)
(X_132  0.2227451056241989)
(X_133  0.17568626999855042)
(X_134  0.10117647796869278)
(X_135  0.06196078658103943)
(X_136  0.11843137443065643)
(X_137  0.0345098078250885)
(X_138  0.02666667103767395)
(X_139  0.0188235305249691)
(X_140  0.043921567499637604)
(X_141  -0.03999999910593033)
(X_142  0.0188235305249691)
(X_143  0.22431373596191406)
(X_144  0.17333334684371948)
(X_145  0.12078431993722916)
(X_146  0.23843137919902802)
(X_147  0.34431374073028564)
(X_148  0.5050980448722839)
(X_149  0.548235297203064)
(X_150  0.5717647075653076)
(X_151  0.7341176867485046)
(X_152  0.7419608235359192)
(X_153  0.6949020028114319)
(X_154  0.6737254858016968)
(X_155  0.7011764645576477)
(X_156  0.6462745070457458)
(X_157  0.5050980448722839)
(X_158  0.520784318447113)
(X_159  0.5403921604156494)
(X_160  0.4619608223438263)
(X_161  0.34039217233657837)
(X_162  0.23843137919902802)
(X_163  0.26196080446243286)
(X_164  0.1952941119670868)
(X_165  0.18745097517967224)
(X_166  0.17568626999855042)
(X_167  0.1639215648174286)
(X_168  0.1443137228488922)
(X_169  0.13254901766777039)
(X_170  0.19921568036079407)
(X_171  0.2423529475927353)
(X_172  0.31294119358062744)
(X_173  0.3952941298484802)
(X_174  0.5325490236282349)
(X_175  0.5796078443527222)
(X_176  0.4933333694934845)
(X_177  0.5576471090316772)
(X_178  0.5615686774253845)
(X_179  0.710588276386261)
(X_180  0.796862781047821)
(X_181  0.7733333706855774)
(X_182  0.8007843494415283)
(X_183  0.7168627381324768)
(X_184  0.6149019598960876)
(X_185  0.434509813785553)
(X_186  0.4619608223438263)
(X_187  0.5796078443527222)
(X_188  0.6109803915023804)
(X_189  0.5403921604156494)
(X_190  0.42274510860443115)
(X_191  0.4149019718170166)
(X_192  0.3952941298484802)
(X_193  0.3835294246673584)
(X_194  0.3717647194862366)
(X_195  0.35607844591140747)
(X_196  0.25019609928131104)
(X_197  0.25019609928131104)
(X_198  0.2737255096435547)
(X_199  0.2109804004430771)
(X_200  0.34039217233657837)
(X_201  0.4462745189666748)
(X_202  0.5678431391716003)
(X_203  0.5403921604156494)
(X_204  0.3796078562736511)
(X_205  0.4870588183403015)
(X_206  0.5419608354568481)
(X_207  0.7066667079925537)
(X_208  0.7772549390792847)
(X_209  0.6737254858016968)
(X_210  0.748235285282135)
(X_211  0.8031372427940369)
(X_212  0.7027451395988464)
(X_213  0.4305882453918457)
(X_214  0.3874509930610657)
(X_215  0.45411765575408936)
(X_216  0.5678431391716003)
(X_217  0.6384313702583313)
(X_218  0.5521568655967712)
(X_219  0.48549023270606995)
(X_220  0.5129411816596985)
(X_221  0.5011764764785767)
(X_222  0.48549023270606995)
(X_223  0.46980395913124084)
(X_224  0.4149019718170166)
(X_225  0.4305882453918457)
(X_226  0.4501960873603821)
(X_227  0.42274510860443115)
(X_228  0.42274510860443115)
(X_229  0.6305882334709167)
(X_230  0.5929412245750427)
(X_231  0.4870588183403015)
(X_232  0.38509804010391235)
(X_233  0.3929411768913269)
(X_234  0.49490195512771606)
(X_235  0.5811765193939209)
(X_236  0.7184314131736755)
(X_237  0.7717646956443787)
(X_238  0.7678431272506714)
(X_239  0.8517647385597229)
(X_240  0.5890196561813354)
(X_241  0.43215686082839966)
(X_242  0.4596078395843506)
(X_243  0.46745097637176514)
(X_244  0.4188235402107239)
(X_245  0.6423529386520386)
(X_246  0.748235285282135)
(X_247  0.6737254858016968)
(X_248  0.6894117593765259)
(X_249  0.6854901909828186)
(X_250  0.6031372547149658)
(X_251  0.520784318447113)
(X_252  0.5090196132659912)
(X_253  0.5678431391716003)
(X_254  0.6423529386520386)
(X_255  0.6266666650772095)
(X_256  0.6384313702583313)
(X_257  0.6815686225891113)
(X_258  0.46588239073753357)
(X_259  0.3929411768913269)
(X_260  0.3615686297416687)
(X_261  0.3929411768913269)
(X_262  0.5145097970962524)
(X_263  0.6086274981498718)
(X_264  0.7458823919296265)
(X_265  0.7992156744003296)
(X_266  0.7992156744003296)
(X_267  0.8831372857093811)
(X_268  0.6517647504806519)
(X_269  0.4243137240409851)
(X_270  0.3968627452850342)
(X_271  0.408627450466156)
(X_272  0.4596078395843506)
(X_273  0.6031372547149658)
(X_274  0.7403921484947205)
(X_275  0.7247058749198914)
(X_276  0.7403921484947205)
(X_277  0.748235285282135)
(X_278  0.6815686225891113)
(X_279  0.6070588231086731)
(X_280  0.6713725924491882)
(X_281  0.7341176867485046)
(X_282  0.7207843065261841)
(X_283  0.6815686225891113)
(X_284  0.7403921484947205)
(X_285  0.6501960754394531)
(X_286  0.5105882287025452)
(X_287  0.3929411768913269)
(X_288  0.3341176509857178)
(X_289  0.3968627452850342)
(X_290  0.5458824038505554)
(X_291  0.6321569085121155)
(X_292  0.7576470971107483)
(X_293  0.8070588111877441)
(X_294  0.7992156744003296)
(X_295  0.8792157173156738)
(X_296  0.6517647504806519)
(X_297  0.4243137240409851)
(X_298  0.41647058725357056)
(X_299  0.4556862711906433)
(X_300  0.4752941131591797)
(X_301  0.6203922033309937)
(X_302  0.6737254858016968)
(X_303  0.7403921484947205)
(X_304  0.748235285282135)
(X_305  0.7639215588569641)
(X_306  0.705098032951355)
(X_307  0.634509801864624)
(X_308  0.6831372976303101)
(X_309  0.7419608235359192)
(X_310  0.6972548961639404)
(X_311  0.6423529386520386)
(X_312  0.7247058749198914)
(X_313  0.6282353401184082)
(X_314  0.4556862711906433)
(X_315  0.40470588207244873)
(X_316  0.3458823561668396)
(X_317  0.45176470279693604)
(X_318  0.6164706349372864)
(X_319  0.6831372976303101)
(X_320  0.7772549390792847)
(X_321  0.8109803795814514)
(X_322  0.8752941489219666)
(X_323  0.8635294437408447)
(X_324  0.6713725924491882)
(X_325  0.4752941131591797)
(X_326  0.48313724994659424)
(X_327  0.5145097970962524)
(X_328  0.4752941131591797)
(X_329  0.5341176390647888)
(X_330  0.6070588231086731)
(X_331  0.7717646956443787)
(X_332  0.7364705801010132)
(X_333  0.748235285282135)
(X_334  0.6815686225891113)
(X_335  0.5992156863212585)
(X_336  0.667451024055481)
(X_337  0.7576470971107483)
(X_338  0.7286274433135986)
(X_339  0.705098032951355)
(X_340  0.7403921484947205)
(X_341  0.5694118142127991)
(X_342  0.40470588207244873)
(X_343  0.365490198135376)
(X_344  0.3929411768913269)
(X_345  0.5301960706710815)
(X_346  0.7145098447799683)
(X_347  0.753725528717041)
(X_348  0.8164706230163574)
(X_349  0.8384313583374023)
(X_350  0.8227450847625732)
(X_351  0.8070588111877441)
(X_352  0.7654902338981628)
(X_353  0.5458824038505554)
(X_354  0.4909803867340088)
(X_355  0.48313724994659424)
(X_356  0.4439215660095215)
(X_357  0.5027450919151306)
(X_358  0.667451024055481)
(X_359  0.791372537612915)
(X_360  0.7678431272506714)
(X_361  0.7678431272506714)
(X_362  0.677647054195404)
(X_363  0.5796078443527222)
(X_364  0.6478431820869446)
(X_365  0.6854901909828186)
(X_366  0.7364705801010132)
(X_367  0.7560784220695496)
(X_368  0.7890196442604065)
(X_369  0.5498039722442627)
(X_370  0.43607842922210693)
(X_371  0.4125490188598633)
(X_372  0.40470588207244873)
(X_373  0.5733333826065063)
(X_374  0.7694118022918701)
(X_375  0.7890196442604065)
(X_376  0.8282353281974792)
(X_377  0.8541176319122314)
(X_378  0.8501960635185242)
(X_379  0.8384313583374023)
(X_380  0.7247058749198914)
(X_381  0.5929412245750427)
(X_382  0.5105882287025452)
(X_383  0.48313724994659424)
(X_384  0.4870588183403015)
(X_385  0.5458824038505554)
(X_386  0.6360784769058228)
(X_387  0.7733333706855774)
(X_388  0.7992156744003296)
(X_389  0.7717646956443787)
(X_390  0.6580392122268677)
(X_391  0.5443137288093567)
(X_392  0.6086274981498718)
(X_393  0.661960780620575)
(X_394  0.705098032951355)
(X_395  0.8400000333786011)
(X_396  0.7027451395988464)
(X_397  0.5262745022773743)
(X_398  0.48313724994659424)
(X_399  0.4752941131591797)
(X_400  0.41647058725357056)
(X_401  0.6047059297561646)
(X_402  0.8047059178352356)
(X_403  0.8047059178352356)
(X_404  0.7443137168884277)
(X_405  0.8501960635185242)
(X_406  0.8580392003059387)
(X_407  0.8541176319122314)
(X_408  0.8086274862289429)
(X_409  0.6792157292366028)
(X_410  0.6125490665435791)
(X_411  0.5419608354568481)
(X_412  0.5184313654899597)
(X_413  0.55372554063797)
(X_414  0.5890196561813354)
(X_415  0.6792157292366028)
(X_416  0.867451012134552)
(X_417  0.7325490117073059)
(X_418  0.5835294127464294)
(X_419  0.45803922414779663)
(X_420  0.5654902458190918)
(X_421  0.6501960754394531)
(X_422  0.7090196013450623)
(X_423  0.8870588541030884)
(X_424  0.6713725924491882)
(X_425  0.5105882287025452)
(X_426  0.46745097637176514)
(X_427  0.43607842922210693)
(X_428  0.45176470279693604)
(X_429  0.6478431820869446)
(X_430  0.8478431701660156)
(X_431  0.8282353281974792)
(X_432  0.8321568965911865)
(X_433  0.8580392003059387)
(X_434  0.8737254738807678)
(X_435  0.8658823370933533)
(X_436  0.7756862640380859)
(X_437  0.7890196442604065)
(X_438  0.7184314131736755)
(X_439  0.5576471090316772)
(X_440  0.4596078395843506)
(X_441  0.4109804034233093)
(X_442  0.5694118142127991)
(X_443  0.7027451395988464)
(X_444  0.8439216017723083)
(X_445  0.6933333277702332)
(X_446  0.520784318447113)
(X_447  0.3796078562736511)
(X_448  0.48313724994659424)
(X_449  0.5717647075653076)
(X_450  0.7090196013450623)
(X_451  0.8203921914100647)
(X_452  0.6792157292366028)
(X_453  0.49882352352142334)
(X_454  0.45176470279693604)
(X_455  0.4282352924346924)
(X_456  0.5184313654899597)
(X_457  0.7498039603233337)
(X_458  0.8439216017723083)
(X_459  0.8086274862289429)
(X_460  0.7796078324317932)
(X_461  0.8580392003059387)
(X_462  0.8854901790618896)
(X_463  0.9850980639457703)
(X_464  0.8870588541030884)
(X_465  0.8047059178352356)
(X_466  0.7654902338981628)
(X_467  0.6360784769058228)
(X_468  0.522352933883667)
(X_469  0.5419608354568481)
(X_470  0.5850980877876282)
(X_471  0.6478431820869446)
(X_472  0.7654902338981628)
(X_473  0.6815686225891113)
(X_474  0.4149019718170166)
(X_475  0.3482353091239929)
(X_476  0.4282352924346924)
(X_477  0.4894118010997772)
(X_478  0.7654902338981628)
(X_479  0.7890196442604065)
(X_480  0.6517647504806519)
(X_481  0.5419608354568481)
(X_482  0.49882352352142334)
(X_483  0.49490195512771606)
(X_484  0.5380392074584961)
(X_485  0.7576470971107483)
(X_486  0.8556863069534302)
(X_487  0.8321568965911865)
(X_488  0.8752941489219666)
(X_489  0.8698039054870605)
(X_490  0.8854901790618896)
(X_491  0.8972548842430115)
(X_492  0.8345097899436951)
(X_493  0.8556863069534302)
(X_494  0.8400000333786011)
(X_495  0.6988235712051392)
(X_496  0.5458824038505554)
(X_497  0.522352933883667)
(X_498  0.5380392074584961)
(X_499  0.5929412245750427)
(X_500  0.7576470971107483)
(X_501  0.7772549390792847)
(X_502  0.42274510860443115)
(X_503  0.30901962518692017)
(X_504  0.2737255096435547)
(X_505  0.3992156982421875)
(X_506  0.7615686655044556)
(X_507  0.7615686655044556)
(X_508  0.6047059297561646)
(X_509  0.5576471090316772)
(X_510  0.5066666603088379)
(X_511  0.5184313654899597)
(X_512  0.522352933883667)
(X_513  0.7145098447799683)
(X_514  0.824313759803772)
(X_515  0.824313759803772)
(X_516  0.8752941489219666)
(X_517  0.8698039054870605)
(X_518  0.8972548842430115)
(X_519  0.8972548842430115)
(X_520  0.8517647385597229)
(X_521  0.8360784649848938)
(X_522  0.8752941489219666)
(X_523  0.7654902338981628)
(X_524  0.59686279296875)
(X_525  0.5341176390647888)
(X_526  0.5027450919151306)
(X_527  0.5341176390647888)
(X_528  0.6870588660240173)
(X_529  0.7694118022918701)
(X_530  0.434509813785553)
(X_531  0.26588237285614014)
(X_532  0.23058824241161346)
(X_533  0.363921582698822)
(X_534  0.7090196013450623)
(X_535  0.7341176867485046)
(X_536  0.5458824038505554)
(X_537  0.5419608354568481)
(X_538  0.47921568155288696)
(X_539  0.5105882287025452)
(X_540  0.5105882287025452)
(X_541  0.6596078872680664)
(X_542  0.7654902338981628)
(X_543  0.7890196442604065)
(X_544  0.8439216017723083)
(X_545  0.8580392003059387)
(X_546  0.9090195894241333)
(X_547  0.9090195894241333)
(X_548  0.8831372857093811)
(X_549  0.824313759803772)
(X_550  0.8086274862289429)
(X_551  0.6713725924491882)
(X_552  0.5262745022773743)
(X_553  0.5027450919151306)
(X_554  0.5105882287025452)
(X_555  0.5615686774253845)
(X_556  0.6164706349372864)
(X_557  0.7615686655044556)
(X_558  0.48549023270606995)
(X_559  0.26196080446243286)
(X_560  0.2227451056241989)
(X_561  0.3874509930610657)
(X_562  0.7850980758666992)
(X_563  0.6909804344177246)
(X_564  0.5184313654899597)
(X_565  0.5576471090316772)
(X_566  0.5341176390647888)
(X_567  0.6047059297561646)
(X_568  0.6086274981498718)
(X_569  0.6909804344177246)
(X_570  0.7654902338981628)
(X_571  0.7890196442604065)
(X_572  0.824313759803772)
(X_573  0.8384313583374023)
(X_574  0.9090195894241333)
(X_575  0.905098021030426)
(X_576  0.867451012134552)
(X_577  0.8086274862289429)
(X_578  0.8164706230163574)
(X_579  0.7262745499610901)
(X_580  0.6125490665435791)
(X_581  0.5615686774253845)
(X_582  0.49490195512771606)
(X_583  0.4752941131591797)
(X_584  0.5576471090316772)
(X_585  0.7380392551422119)
(X_586  0.5403921604156494)
(X_587  0.2737255096435547)
(X_588  0.21490196883678436)
(X_589  0.4305882453918457)
(X_590  0.7380392551422119)
(X_591  0.5600000023841858)
(X_592  0.4894118010997772)
(X_593  0.5756862759590149)
(X_594  0.6070588231086731)
(X_595  0.7011764645576477)
(X_596  0.6972548961639404)
(X_597  0.796862781047821)
(X_598  0.8360784649848938)
(X_599  0.8360784649848938)
(X_600  0.8360784649848938)
(X_601  0.8345097899436951)
(X_602  0.905098021030426)
(X_603  0.8933333158493042)
(X_604  0.867451012134552)
(X_605  0.8125490546226501)
(X_606  0.8478431701660156)
(X_607  0.8086274862289429)
(X_608  0.7341176867485046)
(X_609  0.6831372976303101)
(X_610  0.5654902458190918)
(X_611  0.49490195512771606)
(X_612  0.40705883502960205)
(X_613  0.5639215707778931)
(X_614  0.5286274552345276)
(X_615  0.2698039412498474)
(X_616  0.18352940678596497)
(X_617  0.46588239073753357)
(X_618  0.6031372547149658)
(X_619  0.5600000023841858)
(X_620  0.6149019598960876)
(X_621  0.7129411697387695)
(X_622  0.748235285282135)
(X_623  0.8031372427940369)
(X_624  0.8870588541030884)
(X_625  0.7835294008255005)
(X_626  0.8870588541030884)
(X_627  0.8831372857093811)
(X_628  0.8635294437408447)
(X_629  0.8501960635185242)
(X_630  1.0007842779159546)
(X_631  0.9733333587646484)
(X_632  0.9694117903709412)
(X_633  0.8360784649848938)
(X_634  0.7654902338981628)
(X_635  0.6635294556617737)
(X_636  0.6125490665435791)
(X_637  0.6439216136932373)
(X_638  0.6282353401184082)
(X_639  0.6282353401184082)
(X_640  0.4109804034233093)
(X_641  0.4933333694934845)
(X_642  0.5090196132659912)
(X_643  0.26196080446243286)
(X_644  0.1482352912425995)
(X_645  0.48549023270606995)
(X_646  0.5796078443527222)
(X_647  0.591372549533844)
(X_648  0.7325490117073059)
(X_649  0.8070588111877441)
(X_650  0.8031372427940369)
(X_651  0.8831372857093811)
(X_652  0.9027451276779175)
(X_653  0.8596078753471375)
(X_654  0.8870588541030884)
(X_655  0.818823516368866)
(X_656  0.7992156744003296)
(X_657  0.8658823370933533)
(X_658  0.9403921365737915)
(X_659  0.9129411578178406)
(X_660  0.8870588541030884)
(X_661  0.7694118022918701)
(X_662  0.7223529815673828)
(X_663  0.6282353401184082)
(X_664  0.4776470959186554)
(X_665  0.5576471090316772)
(X_666  0.5105882287025452)
(X_667  0.4870588183403015)
(X_668  0.5811765193939209)
(X_669  0.5890196561813354)
(X_670  0.520784318447113)
(X_671  0.2737255096435547)
(X_672  0.1286274492740631)
(X_673  0.43843138217926025)
(X_674  0.5992156863212585)
(X_675  0.677647054195404)
(X_676  0.7443137168884277)
(X_677  0.8439216017723083)
(X_678  0.8070588111877441)
(X_679  0.8227450847625732)
(X_680  0.8462744951248169)
(X_681  0.8541176319122314)
(X_682  0.9145098328590393)
(X_683  0.8070588111877441)
(X_684  0.8266666531562805)
(X_685  0.8815686106681824)
(X_686  0.9129411578178406)
(X_687  0.9090195894241333)
(X_688  0.8792157173156738)
(X_689  0.7811765074729919)
(X_690  0.7223529815673828)
(X_691  0.6149019598960876)
(X_692  0.6517647504806519)
(X_693  0.6282353401184082)
(X_694  0.6203922033309937)
(X_695  0.5929412245750427)
(X_696  0.6870588660240173)
(X_697  0.6439216136932373)
(X_698  0.5772549510002136)
(X_699  0.35372549295425415)
(X_700  0.09333334118127823)
(X_701  0.4109804034233093)
(X_702  0.5952941179275513)
(X_703  0.6933333277702332)
(X_704  0.7756862640380859)
(X_705  0.7992156744003296)
(X_706  0.8384313583374023)
(X_707  0.9262745380401611)
(X_708  0.8776470422744751)
(X_709  0.8894117474555969)
(X_710  0.8815686106681824)
(X_711  0.8580392003059387)
(X_712  0.8737254738807678)
(X_713  0.9168627262115479)
(X_714  0.932548999786377)
(X_715  0.9168627262115479)
(X_716  0.9929412007331848)
(X_717  0.9223529696464539)
(X_718  0.818823516368866)
(X_719  0.8266666531562805)
(X_720  0.8109803795814514)
(X_721  0.8831372857093811)
(X_722  0.8752941489219666)
(X_723  0.8478431701660156)
(X_724  0.7929412126541138)
(X_725  0.7184314131736755)
(X_726  0.6125490665435791)
(X_727  0.3498039245605469)
(X_728  0.13019607961177826)
(X_729  0.46352940797805786)
(X_730  0.6635294556617737)
(X_731  0.7011764645576477)
(X_732  0.7952941060066223)
(X_733  0.8149019479751587)
(X_734  0.8462744951248169)
(X_735  0.8423529267311096)
(X_736  0.8541176319122314)
(X_737  0.8737254738807678)
(X_738  0.8698039054870605)
(X_739  0.8541176319122314)
(X_740  0.861960768699646)
(X_741  0.8894117474555969)
(X_742  0.8894117474555969)
(X_743  0.861960768699646)
(X_744  0.8972548842430115)
(X_745  0.8423529267311096)
(X_746  0.8423529267311096)
(X_747  0.861960768699646)
(X_748  0.8462744951248169)
(X_749  0.8305882215499878)
(X_750  0.8909804224967957)
(X_751  0.7639215588569641)
(X_752  0.7890196442604065)
(X_753  0.7066667079925537)
(X_754  0.5011764764785767)
(X_755  0.30666667222976685)
(X_756  0.11843137443065643)
(X_757  0.44784313440322876)
(X_758  0.5678431391716003)
(X_759  0.6854901909828186)
(X_760  0.7796078324317932)
(X_761  0.7992156744003296)
(X_762  0.818823516368866)
(X_763  0.8109803795814514)
(X_764  0.8109803795814514)
(X_765  0.8266666531562805)
(X_766  0.8227450847625732)
(X_767  0.7992156744003296)
(X_768  0.8031372427940369)
(X_769  0.8227450847625732)
(X_770  0.8149019479751587)
(X_771  0.8635294437408447)
(X_772  0.7756862640380859)
(X_773  0.7286274433135986)
(X_774  0.7286274433135986)
(X_775  0.7364705801010132)
(X_776  0.7129411697387695)
(X_777  0.6933333277702332)
(X_778  0.6580392122268677)
(X_779  0.5952941179275513)
(X_780  0.5992156863212585)
(X_781  0.5325490236282349)
(X_782  0.5145097970962524)
(X_783  0.1796078383922577)
(Y_0 0.4810284674167633))