((X_0  0.4384126365184784)
(X_1  0.40619078278541565)
(X_2  0.37682443857192993)
(X_3  0.45916748046875)
(X_4  0.43091899156570435)
(X_5  0.49287813901901245)
(X_6  0.5265178084373474)
(X_7  0.572475790977478)
(X_8  0.6095011830329895)
(X_9  0.6179544925689697)
(X_10  0.781379759311676)
(X_11  0.8391796946525574)
(X_12  0.7557451725006104)
(X_13  0.7924225926399231)
(X_14  0.755039632320404)
(X_15  0.7551764249801636)
(X_16  0.7476063370704651)
(X_17  0.6934536099433899)
(X_18  0.6224128603935242)
(X_19  0.5954586863517761)
(X_20  0.5466327667236328)
(X_21  0.47787415981292725)
(X_22  0.4474688470363617)
(X_23  0.552803099155426)
(X_24  0.42354685068130493)
(X_25  0.5056566596031189)
(X_26  0.4289781451225281)
(X_27  0.48618918657302856)
(X_28  0.43964672088623047)
(X_29  0.45524781942367554)
(X_30  0.47000181674957275)
(X_31  0.44243350625038147)
(X_32  0.52061927318573)
(X_33  0.5336484313011169)
(X_34  0.5807963609695435)
(X_35  0.5484725832939148)
(X_36  0.580782949924469)
(X_37  0.6053730249404907)
(X_38  0.6687951683998108)
(X_39  0.7400311231613159)
(X_40  0.6829015016555786)
(X_41  0.7017773389816284)
(X_42  0.749308168888092)
(X_43  0.7475214600563049)
(X_44  0.7235075831413269)
(X_45  0.6113818287849426)
(X_46  0.5960941314697266)
(X_47  0.5770971179008484)
(X_48  0.6328465938568115)
(X_49  0.5372990369796753)
(X_50  0.5195499062538147)
(X_51  0.5377838611602783)
(X_52  0.4817517399787903)
(X_53  0.4752538800239563)
(X_54  0.43207716941833496)
(X_55  0.39380067586898804)
(X_56  0.45566344261169434)
(X_57  0.42772144079208374)
(X_58  0.5055762529373169)
(X_59  0.5273507833480835)
(X_60  0.5102361440658569)
(X_61  0.591132402420044)
(X_62  0.5868772268295288)
(X_63  0.6142950654029846)
(X_64  0.6003187298774719)
(X_65  0.6139160990715027)
(X_66  0.6386310458183289)
(X_67  0.6949073076248169)
(X_68  0.6798924207687378)
(X_69  0.6697291731834412)
(X_70  0.7124426960945129)
(X_71  0.7013903856277466)
(X_72  0.6199331283569336)
(X_73  0.6494407653808594)
(X_74  0.6213310956954956)
(X_75  0.6628699898719788)
(X_76  0.6401553153991699)
(X_77  0.5729408860206604)
(X_78  0.485940158367157)
(X_79  0.5058589577674866)
(X_80  0.5195978879928589)
(X_81  0.5636820793151855)
(X_82  0.5006029009819031)
(X_83  0.38954681158065796)
(X_84  0.4009822607040405)
(X_85  0.4936583340167999)
(X_86  0.5678897500038147)
(X_87  0.5089215636253357)
(X_88  0.4419764280319214)
(X_89  0.4986385405063629)
(X_90  0.6338913440704346)
(X_91  0.6266154646873474)
(X_92  0.5671012997627258)
(X_93  0.5443012118339539)
(X_94  0.5628304481506348)
(X_95  0.6023102402687073)
(X_96  0.6243427395820618)
(X_97  0.622214138507843)
(X_98  0.670457124710083)
(X_99  0.6739116907119751)
(X_100  0.6467216610908508)
(X_101  0.6162792444229126)
(X_102  0.639639675617218)
(X_103  0.62418133020401)
(X_104  0.5998108983039856)
(X_105  0.5444833636283875)
(X_106  0.49148130416870117)
(X_107  0.5139548778533936)
(X_108  0.5786564350128174)
(X_109  0.6406373381614685)
(X_110  0.5277984142303467)
(X_111  0.47859397530555725)
(X_112  0.46764662861824036)
(X_113  0.588150143623352)
(X_114  0.5823008418083191)
(X_115  0.48131605982780457)
(X_116  0.5057547092437744)
(X_117  0.5007671117782593)
(X_118  0.5962896347045898)
(X_119  0.5910901427268982)
(X_120  0.41770732402801514)
(X_121  0.4949275851249695)
(X_122  0.5166023373603821)
(X_123  0.6037510633468628)
(X_124  0.5749871730804443)
(X_125  0.5558767914772034)
(X_126  0.6680907011032104)
(X_127  0.6811659932136536)
(X_128  0.5943232178688049)
(X_129  0.4204387962818146)
(X_130  0.4124471843242645)
(X_131  0.5056174993515015)
(X_132  0.6097240447998047)
(X_133  0.600003719329834)
(X_134  0.5968284010887146)
(X_135  0.5370157361030579)
(X_136  0.5869560837745667)
(X_137  0.6436079740524292)
(X_138  0.6099202632904053)
(X_139  0.5262107849121094)
(X_140  0.5353255867958069)
(X_141  0.5945971608161926)
(X_142  0.5623916387557983)
(X_143  0.5865461230278015)
(X_144  0.5921860933303833)
(X_145  0.5837082862854004)
(X_146  0.544160008430481)
(X_147  0.4663298428058624)
(X_148  0.35237500071525574)
(X_149  0.40697240829467773)
(X_150  0.471066415309906)
(X_151  0.5942714214324951)
(X_152  0.540488064289093)
(X_153  0.5745012760162354)
(X_154  0.6074978113174438)
(X_155  0.6265931129455566)
(X_156  0.5512241721153259)
(X_157  0.38968944549560547)
(X_158  0.3178437054157257)
(X_159  0.43030187487602234)
(X_160  0.4865144193172455)
(X_161  0.5479570627212524)
(X_162  0.6043748259544373)
(X_163  0.5921652317047119)
(X_164  0.5835570096969604)
(X_165  0.5961318016052246)
(X_166  0.5863547325134277)
(X_167  0.4600825607776642)
(X_168  0.5555331110954285)
(X_169  0.5454891324043274)
(X_170  0.5694460868835449)
(X_171  0.5693380236625671)
(X_172  0.6275749206542969)
(X_173  0.5355951189994812)
(X_174  0.4865071177482605)
(X_175  0.39163801074028015)
(X_176  0.3576560616493225)
(X_177  0.3964860141277313)
(X_178  0.45427846908569336)
(X_179  0.6006373763084412)
(X_180  0.5504825115203857)
(X_181  0.5946017503738403)
(X_182  0.5911299586296082)
(X_183  0.6194393038749695)
(X_184  0.5889400243759155)
(X_185  0.34956249594688416)
(X_186  0.2962627410888672)
(X_187  0.3689553439617157)
(X_188  0.38259634375572205)
(X_189  0.4227941036224365)
(X_190  0.5823277831077576)
(X_191  0.6734206676483154)
(X_192  0.6024826765060425)
(X_193  0.6232996582984924)
(X_194  0.5399438738822937)
(X_195  0.4603734016418457)
(X_196  0.543815016746521)
(X_197  0.5449778437614441)
(X_198  0.6382575035095215)
(X_199  0.60948646068573)
(X_200  0.5810809135437012)
(X_201  0.43107685446739197)
(X_202  0.3352375626564026)
(X_203  0.2828829288482666)
(X_204  0.37039682269096375)
(X_205  0.3555634021759033)
(X_206  0.4481565058231354)
(X_207  0.5404013395309448)
(X_208  0.6317324042320251)
(X_209  0.6432064175605774)
(X_210  0.6400402188301086)
(X_211  0.6403269171714783)
(X_212  0.5209603309631348)
(X_213  0.277324914932251)
(X_214  0.32546478509902954)
(X_215  0.3758658170700073)
(X_216  0.3855992257595062)
(X_217  0.4126465320587158)
(X_218  0.5206798315048218)
(X_219  0.44977691769599915)
(X_220  0.6360581517219543)
(X_221  0.6194244027137756)
(X_222  0.5501434803009033)
(X_223  0.49669328331947327)
(X_224  0.495741069316864)
(X_225  0.6177189946174622)
(X_226  0.6388108730316162)
(X_227  0.5165371298789978)
(X_228  0.37861332297325134)
(X_229  0.44323432445526123)
(X_230  0.3855113685131073)
(X_231  0.407480388879776)
(X_232  0.33732345700263977)
(X_233  0.29684320092201233)
(X_234  0.4785307049751282)
(X_235  0.6125529408454895)
(X_236  0.5847159028053284)
(X_237  0.6270321011543274)
(X_238  0.6291435956954956)
(X_239  0.5988560318946838)
(X_240  0.5651816129684448)
(X_241  0.38687705993652344)
(X_242  0.2444671094417572)
(X_243  0.37995854020118713)
(X_244  0.4374256134033203)
(X_245  0.3323558568954468)
(X_246  0.3981838822364807)
(X_247  0.5296159982681274)
(X_248  0.5604236125946045)
(X_249  0.6155705451965332)
(X_250  0.6095131039619446)
(X_251  0.6006748676300049)
(X_252  0.5464325547218323)
(X_253  0.5403962135314941)
(X_254  0.5540587306022644)
(X_255  0.48625847697257996)
(X_256  0.4648124873638153)
(X_257  0.3978773057460785)
(X_258  0.3208940923213959)
(X_259  0.3029916286468506)
(X_260  0.31304696202278137)
(X_261  0.380344420671463)
(X_262  0.5217063426971436)
(X_263  0.5722453594207764)
(X_264  0.5684780478477478)
(X_265  0.6232390403747559)
(X_266  0.6281095147132874)
(X_267  0.6554207801818848)
(X_268  0.6461347341537476)
(X_269  0.40668973326683044)
(X_270  0.26644816994667053)
(X_271  0.3672371804714203)
(X_272  0.39552319049835205)
(X_273  0.41924381256103516)
(X_274  0.3382205367088318)
(X_275  0.3911254405975342)
(X_276  0.3958880603313446)
(X_277  0.5616503953933716)
(X_278  0.639094889163971)
(X_279  0.6227043867111206)
(X_280  0.7027418613433838)
(X_281  0.6234884262084961)
(X_282  0.5318626165390015)
(X_283  0.40816962718963623)
(X_284  0.3793513774871826)
(X_285  0.37623804807662964)
(X_286  0.3595302999019623)
(X_287  0.40165987610816956)
(X_288  0.38059473037719727)
(X_289  0.4136613607406616)
(X_290  0.4731033742427826)
(X_291  0.5386817455291748)
(X_292  0.6196370720863342)
(X_293  0.6959690451622009)
(X_294  0.6881205439567566)
(X_295  0.6668304800987244)
(X_296  0.6654289960861206)
(X_297  0.5583354234695435)
(X_298  0.39068806171417236)
(X_299  0.3730026185512543)
(X_300  0.39928871393203735)
(X_301  0.40082159638404846)
(X_302  0.4045338034629822)
(X_303  0.3326451778411865)
(X_304  0.4126701056957245)
(X_305  0.46755146980285645)
(X_306  0.5905213356018066)
(X_307  0.6546726226806641)
(X_308  0.5745038390159607)
(X_309  0.5392975807189941)
(X_310  0.4916927218437195)
(X_311  0.4020503759384155)
(X_312  0.3367398679256439)
(X_313  0.3685692548751831)
(X_314  0.36826539039611816)
(X_315  0.34017443656921387)
(X_316  0.31861814856529236)
(X_317  0.4677363336086273)
(X_318  0.5179251432418823)
(X_319  0.5614864230155945)
(X_320  0.620899498462677)
(X_321  0.7232725024223328)
(X_322  0.6746324300765991)
(X_323  0.6350905895233154)
(X_324  0.6408454775810242)
(X_325  0.5685490369796753)
(X_326  0.4930223822593689)
(X_327  0.3838239312171936)
(X_328  0.3517019748687744)
(X_329  0.36439821124076843)
(X_330  0.33800163865089417)
(X_331  0.37663209438323975)
(X_332  0.3657516837120056)
(X_333  0.3920586407184601)
(X_334  0.4711177349090576)
(X_335  0.525794506072998)
(X_336  0.5572668313980103)
(X_337  0.4851367473602295)
(X_338  0.39859020709991455)
(X_339  0.40967074036598206)
(X_340  0.3265072703361511)
(X_341  0.34994184970855713)
(X_342  0.3109709918498993)
(X_343  0.3755006492137909)
(X_344  0.3436267673969269)
(X_345  0.5241301655769348)
(X_346  0.5455023050308228)
(X_347  0.4998268485069275)
(X_348  0.6391779780387878)
(X_349  0.7259407043457031)
(X_350  0.6604750156402588)
(X_351  0.6816650629043579)
(X_352  0.5872641801834106)
(X_353  0.6248661279678345)
(X_354  0.5820196866989136)
(X_355  0.47707879543304443)
(X_356  0.3626565635204315)
(X_357  0.3220522999763489)
(X_358  0.3613807260990143)
(X_359  0.43691784143447876)
(X_360  0.4262552857398987)
(X_361  0.35806623101234436)
(X_362  0.393815279006958)
(X_363  0.4760844111442566)
(X_364  0.47397369146347046)
(X_365  0.4399566054344177)
(X_366  0.4195859134197235)
(X_367  0.41501837968826294)
(X_368  0.4031292200088501)
(X_369  0.3879397511482239)
(X_370  0.2845515012741089)
(X_371  0.23113128542900085)
(X_372  0.36430075764656067)
(X_373  0.5151718854904175)
(X_374  0.5640190243721008)
(X_375  0.507239580154419)
(X_376  0.6469640731811523)
(X_377  0.7094753980636597)
(X_378  0.6578953862190247)
(X_379  0.7370643019676208)
(X_380  0.6817303895950317)
(X_381  0.6307429671287537)
(X_382  0.5806719064712524)
(X_383  0.5723086595535278)
(X_384  0.5093158483505249)
(X_385  0.3744462728500366)
(X_386  0.3295801877975464)
(X_387  0.37683552503585815)
(X_388  0.28344622254371643)
(X_389  0.29731863737106323)
(X_390  0.3924856185913086)
(X_391  0.4514000117778778)
(X_392  0.4752379059791565)
(X_393  0.4246596097946167)
(X_394  0.2892991602420807)
(X_395  0.26554951071739197)
(X_396  0.2657677233219147)
(X_397  0.3123263120651245)
(X_398  0.30256175994873047)
(X_399  0.33970487117767334)
(X_400  0.44617971777915955)
(X_401  0.5269073843955994)
(X_402  0.5693889260292053)
(X_403  0.5214734673500061)
(X_404  0.6876792907714844)
(X_405  0.665127694606781)
(X_406  0.6854603290557861)
(X_407  0.6928699612617493)
(X_408  0.6796318292617798)
(X_409  0.6408268809318542)
(X_410  0.6003910899162292)
(X_411  0.611250638961792)
(X_412  0.6084216833114624)
(X_413  0.48398882150650024)
(X_414  0.39090844988822937)
(X_415  0.33164915442466736)
(X_416  0.37904083728790283)
(X_417  0.3728548288345337)
(X_418  0.4160305857658386)
(X_419  0.3761255145072937)
(X_420  0.40929296612739563)
(X_421  0.3562404215335846)
(X_422  0.33651506900787354)
(X_423  0.4033472537994385)
(X_424  0.3779143989086151)
(X_425  0.33690518140792847)
(X_426  0.33406978845596313)
(X_427  0.4209999442100525)
(X_428  0.4946463704109192)
(X_429  0.505341112613678)
(X_430  0.4936922788619995)
(X_431  0.5471369624137878)
(X_432  0.6138883829116821)
(X_433  0.7280287742614746)
(X_434  0.6616941094398499)
(X_435  0.7403852939605713)
(X_436  0.6633753180503845)
(X_437  0.6517128944396973)
(X_438  0.548535943031311)
(X_439  0.52766352891922)
(X_440  0.5506758093833923)
(X_441  0.5424294471740723)
(X_442  0.42886507511138916)
(X_443  0.3370051681995392)
(X_444  0.32363948225975037)
(X_445  0.26364684104919434)
(X_446  0.276211142539978)
(X_447  0.2756044864654541)
(X_448  0.3711498975753784)
(X_449  0.34391236305236816)
(X_450  0.38199087977409363)
(X_451  0.36435309052467346)
(X_452  0.2994747757911682)
(X_453  0.2717963755130768)
(X_454  0.32950684428215027)
(X_455  0.4044710695743561)
(X_456  0.3337697982788086)
(X_457  0.4044904112815857)
(X_458  0.5033692717552185)
(X_459  0.5416550636291504)
(X_460  0.6007773876190186)
(X_461  0.6522977352142334)
(X_462  0.6919306516647339)
(X_463  0.6938596367835999)
(X_464  0.6787182688713074)
(X_465  0.6561425924301147)
(X_466  0.6180199384689331)
(X_467  0.6588566899299622)
(X_468  0.6565763354301453)
(X_469  0.5778756141662598)
(X_470  0.5993324518203735)
(X_471  0.5685026049613953)
(X_472  0.3967655301094055)
(X_473  0.29626986384391785)
(X_474  0.3286489248275757)
(X_475  0.35097527503967285)
(X_476  0.3552452623844147)
(X_477  0.2436874806880951)
(X_478  0.20014560222625732)
(X_479  0.2637518048286438)
(X_480  0.3066053092479706)
(X_481  0.3431641161441803)
(X_482  0.3777207136154175)
(X_483  0.4023365080356598)
(X_484  0.41996514797210693)
(X_485  0.4903847575187683)
(X_486  0.516724169254303)
(X_487  0.5779786705970764)
(X_488  0.6184682846069336)
(X_489  0.6612215638160706)
(X_490  0.7136572003364563)
(X_491  0.6730015277862549)
(X_492  0.698321521282196)
(X_493  0.621565043926239)
(X_494  0.6241929531097412)
(X_495  0.5994396209716797)
(X_496  0.5898799896240234)
(X_497  0.5302647948265076)
(X_498  0.4770590364933014)
(X_499  0.44683128595352173)
(X_500  0.3604813814163208)
(X_501  0.3046366274356842)
(X_502  0.2711006700992584)
(X_503  0.34389808773994446)
(X_504  0.30010977387428284)
(X_505  0.24302509427070618)
(X_506  0.27347758412361145)
(X_507  0.3023240566253662)
(X_508  0.3666028678417206)
(X_509  0.3354259729385376)
(X_510  0.2936927378177643)
(X_511  0.3052296042442322)
(X_512  0.354638010263443)
(X_513  0.37486064434051514)
(X_514  0.4972115457057953)
(X_515  0.570321798324585)
(X_516  0.616123378276825)
(X_517  0.6986037492752075)
(X_518  0.7496942281723022)
(X_519  0.731281042098999)
(X_520  0.6716348528862)
(X_521  0.5916378498077393)
(X_522  0.5489091277122498)
(X_523  0.58033287525177)
(X_524  0.5891211032867432)
(X_525  0.5940637588500977)
(X_526  0.5292693972587585)
(X_527  0.519361674785614)
(X_528  0.30276572704315186)
(X_529  0.2335238754749298)
(X_530  0.2126215100288391)
(X_531  0.28011253476142883)
(X_532  0.36917516589164734)
(X_533  0.3128596544265747)
(X_534  0.33896851539611816)
(X_535  0.3122324049472809)
(X_536  0.21712836623191833)
(X_537  0.28082025051116943)
(X_538  0.27893659472465515)
(X_539  0.3068513572216034)
(X_540  0.3514399826526642)
(X_541  0.39400312304496765)
(X_542  0.39491477608680725)
(X_543  0.46502435207366943)
(X_544  0.5965557098388672)
(X_545  0.7017938494682312)
(X_546  0.7076190114021301)
(X_547  0.7209637761116028)
(X_548  0.7554556131362915)
(X_549  0.6631231307983398)
(X_550  0.5623154640197754)
(X_551  0.539260983467102)
(X_552  0.6205816268920898)
(X_553  0.5541744232177734)
(X_554  0.5076650381088257)
(X_555  0.5072342753410339)
(X_556  0.3891541361808777)
(X_557  0.30445632338523865)
(X_558  0.27251142263412476)
(X_559  0.3258463442325592)
(X_560  0.1906702220439911)
(X_561  0.24862007796764374)
(X_562  0.25609368085861206)
(X_563  0.2570052146911621)
(X_564  0.19114738702774048)
(X_565  0.2596375644207001)
(X_566  0.3081628680229187)
(X_567  0.3486040532588959)
(X_568  0.3175813555717468)
(X_569  0.2931857705116272)
(X_570  0.38505321741104126)
(X_571  0.5123384594917297)
(X_572  0.5564720034599304)
(X_573  0.6469242572784424)
(X_574  0.7587010860443115)
(X_575  0.7544622421264648)
(X_576  0.7325825691223145)
(X_577  0.6221960783004761)
(X_578  0.5312151312828064)
(X_579  0.4873116612434387)
(X_580  0.5654736757278442)
(X_581  0.521803617477417)
(X_582  0.4480407238006592)
(X_583  0.3943767547607422)
(X_584  0.2200838327407837)
(X_585  0.16294044256210327)
(X_586  0.19335880875587463)
(X_587  0.15529465675354004)
(X_588  0.12135918438434601)
(X_589  0.14929206669330597)
(X_590  0.2307698130607605)
(X_591  0.2977112829685211)
(X_592  0.34786465764045715)
(X_593  0.3279314339160919)
(X_594  0.29842785000801086)
(X_595  0.30458059906959534)
(X_596  0.4054282009601593)
(X_597  0.4040446877479553)
(X_598  0.48097410798072815)
(X_599  0.5311737656593323)
(X_600  0.6154501438140869)
(X_601  0.7298502326011658)
(X_602  0.7561939358711243)
(X_603  0.7093930840492249)
(X_604  0.7198303937911987)
(X_605  0.6211634278297424)
(X_606  0.5408558249473572)
(X_607  0.5358330011367798)
(X_608  0.5677618384361267)
(X_609  0.5066361427307129)
(X_610  0.4211568832397461)
(X_611  0.43635502457618713)
(X_612  0.38036152720451355)
(X_613  0.3126486837863922)
(X_614  0.30861759185791016)
(X_615  0.30027028918266296)
(X_616  0.22894632816314697)
(X_617  0.2438596934080124)
(X_618  0.27897948026657104)
(X_619  0.2969992458820343)
(X_620  0.3573002815246582)
(X_621  0.4158738851547241)
(X_622  0.4569507837295532)
(X_623  0.5665801763534546)
(X_624  0.6256061792373657)
(X_625  0.5620589256286621)
(X_626  0.5757940411567688)
(X_627  0.6202073693275452)
(X_628  0.658668041229248)
(X_629  0.6426079869270325)
(X_630  0.6593194603919983)
(X_631  0.69967120885849)
(X_632  0.7123823761940002)
(X_633  0.6241431832313538)
(X_634  0.5362128019332886)
(X_635  0.5877051949501038)
(X_636  0.5514111518859863)
(X_637  0.5518398880958557)
(X_638  0.5820299386978149)
(X_639  0.5850068926811218)
(X_640  0.5438427329063416)
(X_641  0.5488443374633789)
(X_642  0.537186861038208)
(X_643  0.538855791091919)
(X_644  0.32270169258117676)
(X_645  0.29693204164505005)
(X_646  0.39246219396591187)
(X_647  0.4872576594352722)
(X_648  0.5330778360366821)
(X_649  0.574298083782196)
(X_650  0.6245833039283752)
(X_651  0.6473519802093506)
(X_652  0.6208392977714539)
(X_653  0.6315338015556335)
(X_654  0.6101987361907959)
(X_655  0.5857912302017212)
(X_656  0.6291313171386719)
(X_657  0.7699838876724243)
(X_658  0.7994223833084106)
(X_659  0.7951355576515198)
(X_660  0.7989054322242737)
(X_661  0.6918534636497498)
(X_662  0.6122759580612183)
(X_663  0.6144688129425049)
(X_664  0.5809921622276306)
(X_665  0.6113817691802979)
(X_666  0.5684990882873535)
(X_667  0.672846257686615)
(X_668  0.61762934923172)
(X_669  0.6542649269104004)
(X_670  0.606077253818512)
(X_671  0.6104976534843445)
(X_672  0.3455198109149933)
(X_673  0.48957008123397827)
(X_674  0.5730753540992737)
(X_675  0.624904215335846)
(X_676  0.6218196749687195)
(X_677  0.6111949682235718)
(X_678  0.6313728094100952)
(X_679  0.6449798345565796)
(X_680  0.6110035181045532)
(X_681  0.5847476124763489)
(X_682  0.6128162145614624)
(X_683  0.572131335735321)
(X_684  0.6590677499771118)
(X_685  0.6839642524719238)
(X_686  0.7813653945922852)
(X_687  0.7148286700248718)
(X_688  0.7458417415618896)
(X_689  0.7402408123016357)
(X_690  0.6778404116630554)
(X_691  0.6453119516372681)
(X_692  0.6151039600372314)
(X_693  0.679994523525238)
(X_694  0.6490059494972229)
(X_695  0.6367133855819702)
(X_696  0.6418302655220032)
(X_697  0.6231289505958557)
(X_698  0.6468330025672913)
(X_699  0.5773298740386963)
(X_700  0.4685784578323364)
(X_701  0.5082086324691772)
(X_702  0.61492919921875)
(X_703  0.5840003490447998)
(X_704  0.6741377115249634)
(X_705  0.6068158149719238)
(X_706  0.5933253765106201)
(X_707  0.6512184739112854)
(X_708  0.6170186996459961)
(X_709  0.6482535004615784)
(X_710  0.6111202836036682)
(X_711  0.6328951716423035)
(X_712  0.6870424151420593)
(X_713  0.7566692233085632)
(X_714  0.7497039437294006)
(X_715  0.7185606956481934)
(X_716  0.7482718825340271)
(X_717  0.7152039408683777)
(X_718  0.6608803272247314)
(X_719  0.6606473922729492)
(X_720  0.6389036774635315)
(X_721  0.6454764008522034)
(X_722  0.6745873093605042)
(X_723  0.6937305927276611)
(X_724  0.706392765045166)
(X_725  0.6438706517219543)
(X_726  0.6156865358352661)
(X_727  0.6191343069076538)
(X_728  0.5184381008148193)
(X_729  0.5752403140068054)
(X_730  0.6684483885765076)
(X_731  0.6433529853820801)
(X_732  0.6136810183525085)
(X_733  0.6749650239944458)
(X_734  0.6601566076278687)
(X_735  0.6624703407287598)
(X_736  0.7363161444664001)
(X_737  0.7075947523117065)
(X_738  0.6408582925796509)
(X_739  0.6471239924430847)
(X_740  0.7132460474967957)
(X_741  0.7257652878761292)
(X_742  0.7289760708808899)
(X_743  0.7627907395362854)
(X_744  0.7562567591667175)
(X_745  0.7384462952613831)
(X_746  0.7219697833061218)
(X_747  0.6561911106109619)
(X_748  0.6759001016616821)
(X_749  0.6799154281616211)
(X_750  0.6857750415802002)
(X_751  0.6909265518188477)
(X_752  0.722085177898407)
(X_753  0.736280083656311)
(X_754  0.6502939462661743)
(X_755  0.6745373010635376)
(X_756  0.5629527568817139)
(X_757  0.6092472076416016)
(X_758  0.6829121708869934)
(X_759  0.6118276715278625)
(X_760  0.6862393617630005)
(X_761  0.7144495248794556)
(X_762  0.6649880409240723)
(X_763  0.7038660645484924)
(X_764  0.7176859974861145)
(X_765  0.7106972932815552)
(X_766  0.6821335554122925)
(X_767  0.6439112424850464)
(X_768  0.7131686210632324)
(X_769  0.7080788612365723)
(X_770  0.7541054487228394)
(X_771  0.7098199725151062)
(X_772  0.7348989844322205)
(X_773  0.7273798584938049)
(X_774  0.6947042346000671)
(X_775  0.6936488747596741)
(X_776  0.6467403173446655)
(X_777  0.7068526744842529)
(X_778  0.6682844758033752)
(X_779  0.7171555757522583)
(X_780  0.7327340245246887)
(X_781  0.7009081244468689)
(X_782  0.6906501054763794)
(X_783  0.7274444699287415)
(Y_0 0.016337066888809204))