((X_0  0.24608619511127472)
(X_1  0.32326000928878784)
(X_2  0.2694936692714691)
(X_3  0.114574134349823)
(X_4  0.12202289700508118)
(X_5  0.20857086777687073)
(X_6  0.2693890631198883)
(X_7  0.38535821437835693)
(X_8  0.510920524597168)
(X_9  0.6215644478797913)
(X_10  0.7304067015647888)
(X_11  0.7834122180938721)
(X_12  0.7800623178482056)
(X_13  0.7080084681510925)
(X_14  0.7607973217964172)
(X_15  0.7348777651786804)
(X_16  0.6654768586158752)
(X_17  0.510017991065979)
(X_18  0.4075222313404083)
(X_19  0.3075755536556244)
(X_20  0.17671731114387512)
(X_21  0.14493390917778015)
(X_22  0.135475754737854)
(X_23  0.20980682969093323)
(X_24  0.3407018780708313)
(X_25  0.2963215410709381)
(X_26  0.34800949692726135)
(X_27  0.3404157757759094)
(X_28  0.39107397198677063)
(X_29  0.3628372550010681)
(X_30  0.3296240568161011)
(X_31  0.2937198281288147)
(X_32  0.3104812800884247)
(X_33  0.3344789743423462)
(X_34  0.3830573558807373)
(X_35  0.4334813058376312)
(X_36  0.5380304455757141)
(X_37  0.5324990153312683)
(X_38  0.6270315647125244)
(X_39  0.6794670820236206)
(X_40  0.665650486946106)
(X_41  0.6484984755516052)
(X_42  0.698064386844635)
(X_43  0.7048068046569824)
(X_44  0.5591509342193604)
(X_45  0.5225006937980652)
(X_46  0.4613175690174103)
(X_47  0.39328864216804504)
(X_48  0.26119938492774963)
(X_49  0.19728003442287445)
(X_50  0.2158828228712082)
(X_51  0.2761724889278412)
(X_52  0.30678510665893555)
(X_53  0.360906720161438)
(X_54  0.365397185087204)
(X_55  0.35062375664711)
(X_56  0.47670018672943115)
(X_57  0.4123842120170593)
(X_58  0.43288454413414)
(X_59  0.5453656315803528)
(X_60  0.5217660665512085)
(X_61  0.5119532346725464)
(X_62  0.5618064403533936)
(X_63  0.5473626852035522)
(X_64  0.5917633175849915)
(X_65  0.5622830390930176)
(X_66  0.577766478061676)
(X_67  0.6345803141593933)
(X_68  0.6047685742378235)
(X_69  0.567648708820343)
(X_70  0.6185396909713745)
(X_71  0.61545729637146)
(X_72  0.5406091213226318)
(X_73  0.5641793608665466)
(X_74  0.5771509408950806)
(X_75  0.504088282585144)
(X_76  0.4416608214378357)
(X_77  0.40898483991622925)
(X_78  0.4092308282852173)
(X_79  0.4431295096874237)
(X_80  0.3652949929237366)
(X_81  0.38056421279907227)
(X_82  0.42700424790382385)
(X_83  0.38060662150382996)
(X_84  0.4621521532535553)
(X_85  0.41357260942459106)
(X_86  0.5146941542625427)
(X_87  0.5385746955871582)
(X_88  0.5883095860481262)
(X_89  0.558849036693573)
(X_90  0.6746518015861511)
(X_91  0.6127264499664307)
(X_92  0.594504714012146)
(X_93  0.5860595107078552)
(X_94  0.6156970262527466)
(X_95  0.6548027396202087)
(X_96  0.6531645059585571)
(X_97  0.5921117663383484)
(X_98  0.6719817519187927)
(X_99  0.5724656581878662)
(X_100  0.5821206569671631)
(X_101  0.5860263705253601)
(X_102  0.6112487316131592)
(X_103  0.6130338907241821)
(X_104  0.6485993266105652)
(X_105  0.5421737432479858)
(X_106  0.5250086188316345)
(X_107  0.5519396662712097)
(X_108  0.4278399348258972)
(X_109  0.4674886465072632)
(X_110  0.42588916420936584)
(X_111  0.4376072883605957)
(X_112  0.529869556427002)
(X_113  0.47262537479400635)
(X_114  0.5079699754714966)
(X_115  0.5137792825698853)
(X_116  0.5327584147453308)
(X_117  0.5592373013496399)
(X_118  0.6560019254684448)
(X_119  0.5895794034004211)
(X_120  0.4953686594963074)
(X_121  0.5520179867744446)
(X_122  0.6231205463409424)
(X_123  0.6748819351196289)
(X_124  0.6198375821113586)
(X_125  0.6188874840736389)
(X_126  0.7076830267906189)
(X_127  0.6656402349472046)
(X_128  0.603467583656311)
(X_129  0.5535074472427368)
(X_130  0.5026929974555969)
(X_131  0.5741199254989624)
(X_132  0.6284167170524597)
(X_133  0.5863738059997559)
(X_134  0.5033864974975586)
(X_135  0.5008940696716309)
(X_136  0.5143608450889587)
(X_137  0.4485045075416565)
(X_138  0.45783311128616333)
(X_139  0.37127962708473206)
(X_140  0.5750746130943298)
(X_141  0.5817167162895203)
(X_142  0.5326299071311951)
(X_143  0.4949699938297272)
(X_144  0.5016879439353943)
(X_145  0.5683891177177429)
(X_146  0.6338002681732178)
(X_147  0.5135106444358826)
(X_148  0.38483378291130066)
(X_149  0.5149242877960205)
(X_150  0.5296613574028015)
(X_151  0.6641862988471985)
(X_152  0.6362312436103821)
(X_153  0.5958617329597473)
(X_154  0.7061706781387329)
(X_155  0.6824364066123962)
(X_156  0.577570378780365)
(X_157  0.45261695981025696)
(X_158  0.41738229990005493)
(X_159  0.5330349206924438)
(X_160  0.5604958534240723)
(X_161  0.5902025699615479)
(X_162  0.513731062412262)
(X_163  0.4876929521560669)
(X_164  0.5212520360946655)
(X_165  0.46889230608940125)
(X_166  0.4542517364025116)
(X_167  0.3422827124595642)
(X_168  0.5677510499954224)
(X_169  0.5791528224945068)
(X_170  0.6347845792770386)
(X_171  0.5785985589027405)
(X_172  0.5999829173088074)
(X_173  0.5426807403564453)
(X_174  0.5147293210029602)
(X_175  0.47434571385383606)
(X_176  0.38837599754333496)
(X_177  0.4231434166431427)
(X_178  0.49776309728622437)
(X_179  0.7017893195152283)
(X_180  0.7263887524604797)
(X_181  0.6920204758644104)
(X_182  0.7216744422912598)
(X_183  0.6786656379699707)
(X_184  0.6197163462638855)
(X_185  0.48967692255973816)
(X_186  0.4232344627380371)
(X_187  0.4224427342414856)
(X_188  0.5702222585678101)
(X_189  0.5940220952033997)
(X_190  0.5789642930030823)
(X_191  0.5996986627578735)
(X_192  0.6033605933189392)
(X_193  0.5641419291496277)
(X_194  0.47162142395973206)
(X_195  0.3896116018295288)
(X_196  0.5256728529930115)
(X_197  0.564272940158844)
(X_198  0.6013737320899963)
(X_199  0.6220806241035461)
(X_200  0.590816855430603)
(X_201  0.5239664912223816)
(X_202  0.3782663345336914)
(X_203  0.3222387731075287)
(X_204  0.30005085468292236)
(X_205  0.36833685636520386)
(X_206  0.4556928873062134)
(X_207  0.6326866149902344)
(X_208  0.727304995059967)
(X_209  0.7249151468276978)
(X_210  0.7373754978179932)
(X_211  0.6370774507522583)
(X_212  0.5335286855697632)
(X_213  0.4437653720378876)
(X_214  0.383703351020813)
(X_215  0.3311256468296051)
(X_216  0.41611814498901367)
(X_217  0.5390709638595581)
(X_218  0.6370463371276855)
(X_219  0.557316243648529)
(X_220  0.6038486957550049)
(X_221  0.5086241364479065)
(X_222  0.4010360836982727)
(X_223  0.32214727997779846)
(X_224  0.500531792640686)
(X_225  0.5118361115455627)
(X_226  0.5741612315177917)
(X_227  0.6898313164710999)
(X_228  0.594368577003479)
(X_229  0.46821415424346924)
(X_230  0.413837194442749)
(X_231  0.3568992018699646)
(X_232  0.39386624097824097)
(X_233  0.4487549960613251)
(X_234  0.44779127836227417)
(X_235  0.5805231332778931)
(X_236  0.662172794342041)
(X_237  0.6830481886863708)
(X_238  0.7123249769210815)
(X_239  0.620158851146698)
(X_240  0.6036192178726196)
(X_241  0.48647060990333557)
(X_242  0.362153559923172)
(X_243  0.39732950925827026)
(X_244  0.45838576555252075)
(X_245  0.4665723741054535)
(X_246  0.626324474811554)
(X_247  0.6689751148223877)
(X_248  0.5322900414466858)
(X_249  0.5606433749198914)
(X_250  0.3777366280555725)
(X_251  0.28080201148986816)
(X_252  0.41050904989242554)
(X_253  0.4769124388694763)
(X_254  0.5592632293701172)
(X_255  0.6679680347442627)
(X_256  0.5359228253364563)
(X_257  0.4932480752468109)
(X_258  0.44491392374038696)
(X_259  0.4124647378921509)
(X_260  0.35117197036743164)
(X_261  0.404086709022522)
(X_262  0.4401222765445709)
(X_263  0.5797836184501648)
(X_264  0.6669862270355225)
(X_265  0.7525661587715149)
(X_266  0.7223588824272156)
(X_267  0.6750901937484741)
(X_268  0.6003928184509277)
(X_269  0.44234076142311096)
(X_270  0.41470587253570557)
(X_271  0.44922298192977905)
(X_272  0.44610172510147095)
(X_273  0.5099297165870667)
(X_274  0.607374906539917)
(X_275  0.6137477159500122)
(X_276  0.5039217472076416)
(X_277  0.5069677829742432)
(X_278  0.3776359558105469)
(X_279  0.2970278561115265)
(X_280  0.33360642194747925)
(X_281  0.48948684334754944)
(X_282  0.5885056257247925)
(X_283  0.5709453821182251)
(X_284  0.4796525239944458)
(X_285  0.42018958926200867)
(X_286  0.3731590509414673)
(X_287  0.39965471625328064)
(X_288  0.3980255126953125)
(X_289  0.43872085213661194)
(X_290  0.4969761371612549)
(X_291  0.5800466537475586)
(X_292  0.682683527469635)
(X_293  0.7135254740715027)
(X_294  0.6885073184967041)
(X_295  0.6913719177246094)
(X_296  0.6484465003013611)
(X_297  0.5693101286888123)
(X_298  0.47506803274154663)
(X_299  0.4732828736305237)
(X_300  0.5039058327674866)
(X_301  0.5012266039848328)
(X_302  0.5686441659927368)
(X_303  0.6103932857513428)
(X_304  0.5909186601638794)
(X_305  0.4537040591239929)
(X_306  0.3159313201904297)
(X_307  0.2718781530857086)
(X_308  0.29364731907844543)
(X_309  0.47077250480651855)
(X_310  0.5922113656997681)
(X_311  0.5447168946266174)
(X_312  0.44216424226760864)
(X_313  0.39343172311782837)
(X_314  0.3678078353404999)
(X_315  0.32529953122138977)
(X_316  0.3785362243652344)
(X_317  0.4252634346485138)
(X_318  0.4570569097995758)
(X_319  0.5808203220367432)
(X_320  0.717718243598938)
(X_321  0.7487052083015442)
(X_322  0.7504072785377502)
(X_323  0.7156194448471069)
(X_324  0.7280376553535461)
(X_325  0.5758715867996216)
(X_326  0.5503244400024414)
(X_327  0.5094083547592163)
(X_328  0.5077084302902222)
(X_329  0.4892468750476837)
(X_330  0.5122922658920288)
(X_331  0.5927513837814331)
(X_332  0.6163434982299805)
(X_333  0.4850168824195862)
(X_334  0.3541582524776459)
(X_335  0.30577370524406433)
(X_336  0.3494848310947418)
(X_337  0.509111225605011)
(X_338  0.5830711126327515)
(X_339  0.5086071491241455)
(X_340  0.4557648003101349)
(X_341  0.40732625126838684)
(X_342  0.3812069296836853)
(X_343  0.32450971007347107)
(X_344  0.3362829387187958)
(X_345  0.42032620310783386)
(X_346  0.496927946805954)
(X_347  0.5599300861358643)
(X_348  0.7138662338256836)
(X_349  0.7273756861686707)
(X_350  0.7557793855667114)
(X_351  0.734468400478363)
(X_352  0.6867741346359253)
(X_353  0.646735429763794)
(X_354  0.6021567583084106)
(X_355  0.6135574579238892)
(X_356  0.47046715021133423)
(X_357  0.4115895628929138)
(X_358  0.4760322868824005)
(X_359  0.5898615121841431)
(X_360  0.6433558464050293)
(X_361  0.501234769821167)
(X_362  0.37827634811401367)
(X_363  0.29630282521247864)
(X_364  0.36194881796836853)
(X_365  0.5454170107841492)
(X_366  0.6066309213638306)
(X_367  0.5159838795661926)
(X_368  0.43921729922294617)
(X_369  0.4014846086502075)
(X_370  0.38810983300209045)
(X_371  0.41036731004714966)
(X_372  0.42994922399520874)
(X_373  0.5711643695831299)
(X_374  0.5305257439613342)
(X_375  0.6347649097442627)
(X_376  0.7287445068359375)
(X_377  0.7361552715301514)
(X_378  0.727316677570343)
(X_379  0.7238886952400208)
(X_380  0.6895495653152466)
(X_381  0.714279294013977)
(X_382  0.6901792883872986)
(X_383  0.5960612893104553)
(X_384  0.5189757347106934)
(X_385  0.46043723821640015)
(X_386  0.5458112359046936)
(X_387  0.5474066734313965)
(X_388  0.5977129936218262)
(X_389  0.5579090714454651)
(X_390  0.39326146245002747)
(X_391  0.24108263850212097)
(X_392  0.46684032678604126)
(X_393  0.5946937799453735)
(X_394  0.5531305074691772)
(X_395  0.40114617347717285)
(X_396  0.3956279158592224)
(X_397  0.42004919052124023)
(X_398  0.3844573497772217)
(X_399  0.3432024419307709)
(X_400  0.4081251919269562)
(X_401  0.475680947303772)
(X_402  0.5704649090766907)
(X_403  0.7045363187789917)
(X_404  0.7370463609695435)
(X_405  0.8041800856590271)
(X_406  0.7743487358093262)
(X_407  0.7920928001403809)
(X_408  0.6788679361343384)
(X_409  0.6776931881904602)
(X_410  0.7184291481971741)
(X_411  0.6355720162391663)
(X_412  0.5559892058372498)
(X_413  0.5361872315406799)
(X_414  0.5271896123886108)
(X_415  0.5460663437843323)
(X_416  0.534740149974823)
(X_417  0.6055682897567749)
(X_418  0.4340745806694031)
(X_419  0.23278887569904327)
(X_420  0.5087940096855164)
(X_421  0.554962694644928)
(X_422  0.4795876741409302)
(X_423  0.3280041217803955)
(X_424  0.36717337369918823)
(X_425  0.3990771174430847)
(X_426  0.3226325511932373)
(X_427  0.31466907262802124)
(X_428  0.4314333498477936)
(X_429  0.5343037843704224)
(X_430  0.5771048069000244)
(X_431  0.7177839279174805)
(X_432  0.7640959024429321)
(X_433  0.7489103078842163)
(X_434  0.8018864989280701)
(X_435  0.8024073243141174)
(X_436  0.7044887542724609)
(X_437  0.6837747693061829)
(X_438  0.6713026165962219)
(X_439  0.7099860906600952)
(X_440  0.5974452495574951)
(X_441  0.581700325012207)
(X_442  0.5498107671737671)
(X_443  0.4964686632156372)
(X_444  0.503284752368927)
(X_445  0.6237537264823914)
(X_446  0.5007030367851257)
(X_447  0.28571128845214844)
(X_448  0.5234814882278442)
(X_449  0.5347945690155029)
(X_450  0.46933114528656006)
(X_451  0.3838721811771393)
(X_452  0.3327646255493164)
(X_453  0.3515865206718445)
(X_454  0.44107699394226074)
(X_455  0.3866269588470459)
(X_456  0.49500393867492676)
(X_457  0.586108386516571)
(X_458  0.6506120562553406)
(X_459  0.7164176106452942)
(X_460  0.7812239527702332)
(X_461  0.8182955980300903)
(X_462  0.8266103267669678)
(X_463  0.7858967185020447)
(X_464  0.7785571813583374)
(X_465  0.755207359790802)
(X_466  0.7275232672691345)
(X_467  0.6994012594223022)
(X_468  0.670001745223999)
(X_469  0.5911857485771179)
(X_470  0.5048828721046448)
(X_471  0.4270711839199066)
(X_472  0.5863862633705139)
(X_473  0.5085347294807434)
(X_474  0.5367816686630249)
(X_475  0.29641175270080566)
(X_476  0.5770270824432373)
(X_477  0.4930185377597809)
(X_478  0.45399853587150574)
(X_479  0.4143044650554657)
(X_480  0.37569063901901245)
(X_481  0.3472192883491516)
(X_482  0.35963529348373413)
(X_483  0.4142574369907379)
(X_484  0.5657098889350891)
(X_485  0.5972170829772949)
(X_486  0.6501981019973755)
(X_487  0.6750613451004028)
(X_488  0.792199969291687)
(X_489  0.8150529861450195)
(X_490  0.8222364783287048)
(X_491  0.7882617115974426)
(X_492  0.7795906066894531)
(X_493  0.7252418994903564)
(X_494  0.7733268141746521)
(X_495  0.7060120701789856)
(X_496  0.6916013360023499)
(X_497  0.6809157729148865)
(X_498  0.5459917783737183)
(X_499  0.5001882910728455)
(X_500  0.5113334059715271)
(X_501  0.5088117718696594)
(X_502  0.5326691269874573)
(X_503  0.29049697518348694)
(X_504  0.6163008213043213)
(X_505  0.43314558267593384)
(X_506  0.34770965576171875)
(X_507  0.3762730658054352)
(X_508  0.4449869692325592)
(X_509  0.4325701594352722)
(X_510  0.5547784566879272)
(X_511  0.542155385017395)
(X_512  0.5803657174110413)
(X_513  0.5992862582206726)
(X_514  0.6928331851959229)
(X_515  0.7372646927833557)
(X_516  0.7854600548744202)
(X_517  0.8093929290771484)
(X_518  0.8326728940010071)
(X_519  0.7709813117980957)
(X_520  0.7392549514770508)
(X_521  0.7733229398727417)
(X_522  0.7410756945610046)
(X_523  0.7655289769172668)
(X_524  0.687657356262207)
(X_525  0.6839461922645569)
(X_526  0.5985957980155945)
(X_527  0.502595841884613)
(X_528  0.48415684700012207)
(X_529  0.4958406388759613)
(X_530  0.5594842433929443)
(X_531  0.35496971011161804)
(X_532  0.5423831343650818)
(X_533  0.4279783368110657)
(X_534  0.24946805834770203)
(X_535  0.23363205790519714)
(X_536  0.3760206997394562)
(X_537  0.49697744846343994)
(X_538  0.5671145915985107)
(X_539  0.5083422660827637)
(X_540  0.5921584367752075)
(X_541  0.5694659948348999)
(X_542  0.6402114629745483)
(X_543  0.7009680271148682)
(X_544  0.7535079121589661)
(X_545  0.8129483461380005)
(X_546  0.8262494802474976)
(X_547  0.8079532980918884)
(X_548  0.7994296550750732)
(X_549  0.7177989482879639)
(X_550  0.7424117922782898)
(X_551  0.7335153818130493)
(X_552  0.7557125687599182)
(X_553  0.7117068767547607)
(X_554  0.6590241193771362)
(X_555  0.5650273561477661)
(X_556  0.373037725687027)
(X_557  0.4953254163265228)
(X_558  0.5544425845146179)
(X_559  0.36719322204589844)
(X_560  0.47658681869506836)
(X_561  0.4412963390350342)
(X_562  0.37638208270072937)
(X_563  0.3884054720401764)
(X_564  0.3699842691421509)
(X_565  0.38958361744880676)
(X_566  0.4134671688079834)
(X_567  0.40322649478912354)
(X_568  0.5206978917121887)
(X_569  0.5065757632255554)
(X_570  0.6226837635040283)
(X_571  0.6610724329948425)
(X_572  0.7437924146652222)
(X_573  0.8112347722053528)
(X_574  0.7806307673454285)
(X_575  0.7936732172966003)
(X_576  0.7426462769508362)
(X_577  0.7212620973587036)
(X_578  0.7615376114845276)
(X_579  0.7810216546058655)
(X_580  0.710831344127655)
(X_581  0.7246492505073547)
(X_582  0.6830012202262878)
(X_583  0.6358188986778259)
(X_584  0.421021431684494)
(X_585  0.5412962436676025)
(X_586  0.5727831721305847)
(X_587  0.3991231322288513)
(X_588  0.39641085267066956)
(X_589  0.37356382608413696)
(X_590  0.30657491087913513)
(X_591  0.42600569128990173)
(X_592  0.43374353647232056)
(X_593  0.4228762984275818)
(X_594  0.39680996537208557)
(X_595  0.4351787269115448)
(X_596  0.42403194308280945)
(X_597  0.5043070316314697)
(X_598  0.5289008617401123)
(X_599  0.6585661172866821)
(X_600  0.7466470003128052)
(X_601  0.7868362069129944)
(X_602  0.8218529224395752)
(X_603  0.8384822607040405)
(X_604  0.8045825958251953)
(X_605  0.7567671537399292)
(X_606  0.7361118793487549)
(X_607  0.7673912644386292)
(X_608  0.7530844807624817)
(X_609  0.7690495848655701)
(X_610  0.7634497880935669)
(X_611  0.6891525983810425)
(X_612  0.5912944674491882)
(X_613  0.563377857208252)
(X_614  0.5890259146690369)
(X_615  0.4170050024986267)
(X_616  0.39423003792762756)
(X_617  0.3345252275466919)
(X_618  0.3003304898738861)
(X_619  0.46662503480911255)
(X_620  0.5170750617980957)
(X_621  0.5598043203353882)
(X_622  0.525126576423645)
(X_623  0.5629169344902039)
(X_624  0.5488080978393555)
(X_625  0.5435848236083984)
(X_626  0.6587939858436584)
(X_627  0.7678362727165222)
(X_628  0.8256967067718506)
(X_629  0.7614228129386902)
(X_630  0.8391784429550171)
(X_631  0.8378896713256836)
(X_632  0.7774118185043335)
(X_633  0.7511684894561768)
(X_634  0.8228330612182617)
(X_635  0.7639057040214539)
(X_636  0.7907190918922424)
(X_637  0.7712270021438599)
(X_638  0.7990605235099792)
(X_639  0.7286895513534546)
(X_640  0.6529669761657715)
(X_641  0.5948019027709961)
(X_642  0.6002277135848999)
(X_643  0.4425903260707855)
(X_644  0.4061550498008728)
(X_645  0.5136818289756775)
(X_646  0.5684363842010498)
(X_647  0.7072823643684387)
(X_648  0.6908695697784424)
(X_649  0.6733740568161011)
(X_650  0.659632682800293)
(X_651  0.6653098464012146)
(X_652  0.6968540549278259)
(X_653  0.7100496888160706)
(X_654  0.6722712516784668)
(X_655  0.7809381484985352)
(X_656  0.8044812083244324)
(X_657  0.8379188179969788)
(X_658  0.8428407907485962)
(X_659  0.8304994106292725)
(X_660  0.8045464158058167)
(X_661  0.7996019721031189)
(X_662  0.7965425848960876)
(X_663  0.800949215888977)
(X_664  0.7893816828727722)
(X_665  0.8280965685844421)
(X_666  0.7883594632148743)
(X_667  0.6916146278381348)
(X_668  0.6988783478736877)
(X_669  0.591152548789978)
(X_670  0.6406384110450745)
(X_671  0.5036301016807556)
(X_672  0.6142032742500305)
(X_673  0.7319946885108948)
(X_674  0.7496342658996582)
(X_675  0.7271909117698669)
(X_676  0.7614162564277649)
(X_677  0.8153544068336487)
(X_678  0.808851420879364)
(X_679  0.8098212480545044)
(X_680  0.8012356162071228)
(X_681  0.7308198809623718)
(X_682  0.8078625202178955)
(X_683  0.7976090312004089)
(X_684  0.8550548553466797)
(X_685  0.8676480054855347)
(X_686  0.8324159979820251)
(X_687  0.81640625)
(X_688  0.8041640520095825)
(X_689  0.8707205057144165)
(X_690  0.7999804019927979)
(X_691  0.783161997795105)
(X_692  0.8207846283912659)
(X_693  0.7738147974014282)
(X_694  0.7164607644081116)
(X_695  0.7443414926528931)
(X_696  0.6845785975456238)
(X_697  0.669882595539093)
(X_698  0.6157633662223816)
(X_699  0.6040732264518738)
(X_700  0.640323281288147)
(X_701  0.751257061958313)
(X_702  0.7646450400352478)
(X_703  0.800107479095459)
(X_704  0.8023040294647217)
(X_705  0.7978909611701965)
(X_706  0.8267548680305481)
(X_707  0.8078293800354004)
(X_708  0.8136183023452759)
(X_709  0.7764305472373962)
(X_710  0.7547178268432617)
(X_711  0.8095760345458984)
(X_712  0.8200299143791199)
(X_713  0.8567978143692017)
(X_714  0.8626942038536072)
(X_715  0.8796245455741882)
(X_716  0.8649266362190247)
(X_717  0.8464375734329224)
(X_718  0.8623570799827576)
(X_719  0.7819585800170898)
(X_720  0.7678641080856323)
(X_721  0.7906086444854736)
(X_722  0.7841960191726685)
(X_723  0.7192824482917786)
(X_724  0.721824586391449)
(X_725  0.6829378604888916)
(X_726  0.6734700798988342)
(X_727  0.599585771560669)
(X_728  0.7163726687431335)
(X_729  0.718277096748352)
(X_730  0.7978059649467468)
(X_731  0.7797902822494507)
(X_732  0.8413459658622742)
(X_733  0.8403066396713257)
(X_734  0.8102497458457947)
(X_735  0.8299672603607178)
(X_736  0.8665187954902649)
(X_737  0.8625296950340271)
(X_738  0.8178558945655823)
(X_739  0.8276800513267517)
(X_740  0.8829879760742188)
(X_741  0.8878606557846069)
(X_742  0.8764840364456177)
(X_743  0.8337011933326721)
(X_744  0.8099998831748962)
(X_745  0.8554229736328125)
(X_746  0.8577130436897278)
(X_747  0.8057236671447754)
(X_748  0.7808362245559692)
(X_749  0.7974985241889954)
(X_750  0.7664530873298645)
(X_751  0.7822167873382568)
(X_752  0.7032225728034973)
(X_753  0.6657834649085999)
(X_754  0.6157805919647217)
(X_755  0.6168076992034912)
(X_756  0.7412000298500061)
(X_757  0.785264790058136)
(X_758  0.7814679145812988)
(X_759  0.8040330410003662)
(X_760  0.8400047421455383)
(X_761  0.8571733236312866)
(X_762  0.8450652956962585)
(X_763  0.8557722568511963)
(X_764  0.8467147946357727)
(X_765  0.8196545243263245)
(X_766  0.8292458057403564)
(X_767  0.8239424228668213)
(X_768  0.844355046749115)
(X_769  0.8475988507270813)
(X_770  0.8739228248596191)
(X_771  0.8230437636375427)
(X_772  0.848638117313385)
(X_773  0.8227729201316833)
(X_774  0.8681609630584717)
(X_775  0.8388083577156067)
(X_776  0.8648389577865601)
(X_777  0.8031525015830994)
(X_778  0.7618612051010132)
(X_779  0.7899224162101746)
(X_780  0.7704546451568604)
(X_781  0.6777859926223755)
(X_782  0.6377373933792114)
(X_783  0.6515241861343384)
(Y_0 -0.022371143102645874))