((X_0  0.0972549095749855)
(X_1  0.10901961475610733)
(X_2  0.17176470160484314)
(X_3  0.17176470160484314)
(X_4  0.1286274492740631)
(X_5  0.17176470160484314)
(X_6  0.2109804004430771)
(X_7  0.1482352912425995)
(X_8  0.12470588833093643)
(X_9  0.2321568727493286)
(X_10  0.3968627452850342)
(X_11  0.5380392074584961)
(X_12  0.5733333826065063)
(X_13  0.6831372976303101)
(X_14  0.7772549390792847)
(X_15  0.7341176867485046)
(X_16  0.7458823919296265)
(X_17  0.6831372976303101)
(X_18  0.6949020028114319)
(X_19  0.7458823919296265)
(X_20  0.7341176867485046)
(X_21  0.6305882334709167)
(X_22  0.6305882334709167)
(X_23  0.6188235282897949)
(X_24  0.5992156863212585)
(X_25  0.4266666769981384)
(X_26  0.3458823561668396)
(X_27  0.2988235354423523)
(X_28  0.13019607961177826)
(X_29  0.1537254899740219)
(X_30  0.1129411831498146)
(X_31  0.13647058606147766)
(X_32  0.16784313321113586)
(X_33  0.25019609928131104)
(X_34  0.29333335161209106)
(X_35  0.26196080446243286)
(X_36  0.3050980567932129)
(X_37  0.320784330368042)
(X_38  0.4752941131591797)
(X_39  0.5145097970962524)
(X_40  0.5262745022773743)
(X_41  0.6321569085121155)
(X_42  0.7301961183547974)
(X_43  0.710588276386261)
(X_44  0.7301961183547974)
(X_45  0.710588276386261)
(X_46  0.7419608235359192)
(X_47  0.7011764645576477)
(X_48  0.6815686225891113)
(X_49  0.6501960754394531)
(X_50  0.6384313702583313)
(X_51  0.6266666650772095)
(X_52  0.5600000023841858)
(X_53  0.37568628787994385)
(X_54  0.2792156934738159)
(X_55  0.22431373596191406)
(X_56  0.12235294282436371)
(X_57  0.06196078658103943)
(X_58  0.05411764979362488)
(X_59  0.0815686285495758)
(X_60  0.18745097517967224)
(X_61  0.2737255096435547)
(X_62  0.2854902148246765)
(X_63  0.2737255096435547)
(X_64  0.31294119358062744)
(X_65  0.3678431510925293)
(X_66  0.4713725447654724)
(X_67  0.4439215660095215)
(X_68  0.46745097637176514)
(X_69  0.5654902458190918)
(X_70  0.6360784769058228)
(X_71  0.6360784769058228)
(X_72  0.5992156863212585)
(X_73  0.6909804344177246)
(X_74  0.7145098447799683)
(X_75  0.7301961183547974)
(X_76  0.6462745070457458)
(X_77  0.6462745070457458)
(X_78  0.6580392122268677)
(X_79  0.6698039174079895)
(X_80  0.5129411816596985)
(X_81  0.4125490188598633)
(X_82  0.24000000953674316)
(X_83  0.18901962041854858)
(X_84  0.11843137443065643)
(X_85  0.06196078658103943)
(X_86  0.030588239431381226)
(X_87  0.07372549176216125)
(X_88  0.3105882406234741)
(X_89  0.29725492000579834)
(X_90  0.2541176676750183)
(X_91  0.32235294580459595)
(X_92  0.31843137741088867)
(X_93  0.43215686082839966)
(X_94  0.4596078395843506)
(X_95  0.34039217233657837)
(X_96  0.3796078562736511)
(X_97  0.45803922414779663)
(X_98  0.4776470959186554)
(X_99  0.4619608223438263)
(X_100  0.5733333826065063)
(X_101  0.6243137717247009)
(X_102  0.6556863188743591)
(X_103  0.6752941608428955)
(X_104  0.6909804344177246)
(X_105  0.6831372976303101)
(X_106  0.6596078872680664)
(X_107  0.6596078872680664)
(X_108  0.45803922414779663)
(X_109  0.40078431367874146)
(X_110  0.27137255668640137)
(X_111  0.2360784411430359)
(X_112  0.07137255370616913)
(X_113  0.1066666692495346)
(X_114  0.02666667103767395)
(X_115  0.12470588833093643)
(X_116  0.3168627619743347)
(X_117  0.46745097637176514)
(X_118  0.40470588207244873)
(X_119  0.3772549033164978)
(X_120  0.40470588207244873)
(X_121  0.4909803867340088)
(X_122  0.4870588183403015)
(X_123  0.34431374073028564)
(X_124  0.3717647194862366)
(X_125  0.44235295057296753)
(X_126  0.4501960873603821)
(X_127  0.4266666769981384)
(X_128  0.4870588183403015)
(X_129  0.5694118142127991)
(X_130  0.6203922033309937)
(X_131  0.6556863188743591)
(X_132  0.6792157292366028)
(X_133  0.6047059297561646)
(X_134  0.5066666603088379)
(X_135  0.4909803867340088)
(X_136  0.3717647194862366)
(X_137  0.3772549033164978)
(X_138  0.3105882406234741)
(X_139  0.29098039865493774)
(X_140  -0.03999999910593033)
(X_141  0.06352940946817398)
(X_142  0.11450980603694916)
(X_143  0.17568626999855042)
(X_144  0.36000001430511475)
(X_145  0.5184313654899597)
(X_146  0.4752941131591797)
(X_147  0.4282352924346924)
(X_148  0.48313724994659424)
(X_149  0.48313724994659424)
(X_150  0.43607842922210693)
(X_151  0.2854902148246765)
(X_152  0.29725492000579834)
(X_153  0.3952941298484802)
(X_154  0.5341176390647888)
(X_155  0.5184313654899597)
(X_156  0.4909803867340088)
(X_157  0.5498039722442627)
(X_158  0.5498039722442627)
(X_159  0.5615686774253845)
(X_160  0.5772549510002136)
(X_161  0.4909803867340088)
(X_162  0.42039215564727783)
(X_163  0.4752941131591797)
(X_164  0.3929411768913269)
(X_165  0.365490198135376)
(X_166  0.3419607877731323)
(X_167  0.33803921937942505)
(X_168  0.04784313589334488)
(X_169  0.03999999910593033)
(X_170  0.11843137443065643)
(X_171  0.27529412508010864)
(X_172  0.41647058725357056)
(X_173  0.5066666603088379)
(X_174  0.5105882287025452)
(X_175  0.45176470279693604)
(X_176  0.43215686082839966)
(X_177  0.2854902148246765)
(X_178  0.26196080446243286)
(X_179  0.2423529475927353)
(X_180  0.25019609928131104)
(X_181  0.36000001430511475)
(X_182  0.4462745189666748)
(X_183  0.4909803867340088)
(X_184  0.5145097970962524)
(X_185  0.5498039722442627)
(X_186  0.5066666603088379)
(X_187  0.47921568155288696)
(X_188  0.4596078395843506)
(X_189  0.3419607877731323)
(X_190  0.31843137741088867)
(X_191  0.4596078395843506)
(X_192  0.43215686082839966)
(X_193  0.41647058725357056)
(X_194  0.408627450466156)
(X_195  0.41647058725357056)
(X_196  0.059607844799757004)
(X_197  0.03999999910593033)
(X_198  0.12235294282436371)
(X_199  0.2831372618675232)
(X_200  0.3968627452850342)
(X_201  0.5066666603088379)
(X_202  0.55372554063797)
(X_203  0.49490195512771606)
(X_204  0.3772549033164978)
(X_205  0.21490196883678436)
(X_206  0.2423529475927353)
(X_207  0.2854902148246765)
(X_208  0.2854902148246765)
(X_209  0.45176470279693604)
(X_210  0.5105882287025452)
(X_211  0.43215686082839966)
(X_212  0.42274510860443115)
(X_213  0.5615686774253845)
(X_214  0.5458824038505554)
(X_215  0.5105882287025452)
(X_216  0.43607842922210693)
(X_217  0.22823530435562134)
(X_218  0.1576470583677292)
(X_219  0.3105882406234741)
(X_220  0.5105882287025452)
(X_221  0.4909803867340088)
(X_222  0.48313724994659424)
(X_223  0.5027450919151306)
(X_224  0.03999999910593033)
(X_225  0.03999999910593033)
(X_226  0.1576470583677292)
(X_227  0.3419607877731323)
(X_228  0.4439215660095215)
(X_229  0.5066666603088379)
(X_230  0.4149019718170166)
(X_231  0.30901962518692017)
(X_232  0.30901962518692017)
(X_233  0.2894117832183838)
(X_234  0.2698039412498474)
(X_235  0.27764707803726196)
(X_236  0.31294119358062744)
(X_237  0.43607842922210693)
(X_238  0.4713725447654724)
(X_239  0.40705883502960205)
(X_240  0.5286274552345276)
(X_241  0.5050980448722839)
(X_242  0.5050980448722839)
(X_243  0.4894118010997772)
(X_244  0.4596078395843506)
(X_245  0.3105882406234741)
(X_246  0.24392157793045044)
(X_247  0.25960785150527954)
(X_248  0.33803921937942505)
(X_249  0.6125490665435791)
(X_250  0.6439216136932373)
(X_251  0.5262745022773743)
(X_252  0.05568627640604973)
(X_253  0.05568627640604973)
(X_254  0.2164705991744995)
(X_255  0.43215686082839966)
(X_256  0.5066666603088379)
(X_257  0.4870588183403015)
(X_258  0.4282352924346924)
(X_259  0.26196080446243286)
(X_260  0.2580392360687256)
(X_261  0.2541176676750183)
(X_262  0.2580392360687256)
(X_263  0.28156864643096924)
(X_264  0.32470589876174927)
(X_265  0.4556862711906433)
(X_266  0.49882352352142334)
(X_267  0.44235295057296753)
(X_268  0.48549023270606995)
(X_269  0.46980395913124084)
(X_270  0.46980395913124084)
(X_271  0.46980395913124084)
(X_272  0.4031372666358948)
(X_273  0.3615686297416687)
(X_274  0.2635294198989868)
(X_275  0.22431373596191406)
(X_276  0.3145098090171814)
(X_277  0.5301960706710815)
(X_278  0.5811765193939209)
(X_279  0.49882352352142334)
(X_280  -0.020392153412103653)
(X_281  0.022745102643966675)
(X_282  0.2988235354423523)
(X_283  0.5145097970962524)
(X_284  0.5458824038505554)
(X_285  0.46352940797805786)
(X_286  0.320784330368042)
(X_287  0.2854902148246765)
(X_288  0.2266666740179062)
(X_289  0.2423529475927353)
(X_290  0.2737255096435547)
(X_291  0.30901962518692017)
(X_292  0.35607844591140747)
(X_293  0.4870588183403015)
(X_294  0.5341176390647888)
(X_295  0.48549023270606995)
(X_296  0.5403921604156494)
(X_297  0.5168627500534058)
(X_298  0.4972549378871918)
(X_299  0.4972549378871918)
(X_300  0.4933333694934845)
(X_301  0.43843138217926025)
(X_302  0.4243137240409851)
(X_303  0.3419607877731323)
(X_304  0.365490198135376)
(X_305  0.4909803867340088)
(X_306  0.5772549510002136)
(X_307  0.5654902458190918)
(X_308  -0.03999999910593033)
(X_309  0.08941177278757095)
(X_310  0.3811764717102051)
(X_311  0.5066666603088379)
(X_312  0.46745097637176514)
(X_313  0.2854902148246765)
(X_314  0.25019609928131104)
(X_315  0.26196080446243286)
(X_316  0.23058824241161346)
(X_317  0.26196080446243286)
(X_318  0.30901962518692017)
(X_319  0.3521568775177002)
(X_320  0.3952941298484802)
(X_321  0.5145097970962524)
(X_322  0.48156866431236267)
(X_323  0.5090196132659912)
(X_324  0.5247058868408203)
(X_325  0.4933333694934845)
(X_326  0.44235295057296753)
(X_327  0.4188235402107239)
(X_328  0.4462745189666748)
(X_329  0.46980395913124084)
(X_330  0.5027450919151306)
(X_331  0.43215686082839966)
(X_332  0.3301960825920105)
(X_333  0.3772549033164978)
(X_334  0.49882352352142334)
(X_335  0.5694118142127991)
(X_336  0.038431376218795776)
(X_337  0.26196080446243286)
(X_338  0.5301960706710815)
(X_339  0.5301960706710815)
(X_340  0.42039215564727783)
(X_341  0.24627451598644257)
(X_342  0.2227451056241989)
(X_343  0.2423529475927353)
(X_344  0.23058824241161346)
(X_345  0.2698039412498474)
(X_346  0.32470589876174927)
(X_347  0.3796078562736511)
(X_348  0.42274510860443115)
(X_349  0.5419608354568481)
(X_350  0.5811765193939209)
(X_351  0.6047059297561646)
(X_352  0.5639215707778931)
(X_353  0.5403921604156494)
(X_354  0.48156866431236267)
(X_355  0.43843138217926025)
(X_356  0.45803922414779663)
(X_357  0.5090196132659912)
(X_358  0.4972549378871918)
(X_359  0.5301960706710815)
(X_360  0.3262745141983032)
(X_361  0.32235294580459595)
(X_362  0.4556862711906433)
(X_363  0.5772549510002136)
(X_364  0.04627451300621033)
(X_365  0.3498039245605469)
(X_366  0.46745097637176514)
(X_367  0.40470588207244873)
(X_368  0.23450981080532074)
(X_369  0.1796078383922577)
(X_370  0.15607842803001404)
(X_371  0.16784313321113586)
(X_372  0.21490196883678436)
(X_373  0.2541176676750183)
(X_374  0.3168627619743347)
(X_375  0.3835294246673584)
(X_376  0.44235295057296753)
(X_377  0.5694118142127991)
(X_378  0.6007843613624573)
(X_379  0.6203922033309937)
(X_380  0.5890196561813354)
(X_381  0.4972549378871918)
(X_382  0.45803922414779663)
(X_383  0.4188235402107239)
(X_384  0.4188235402107239)
(X_385  0.44235295057296753)
(X_386  0.4266666769981384)
(X_387  0.39137256145477295)
(X_388  0.5105882287025452)
(X_389  0.4752941131591797)
(X_390  0.5694118142127991)
(X_391  0.6831372976303101)
(X_392  0.23843137919902802)
(X_393  0.4125490188598633)
(X_394  0.40078431367874146)
(X_395  0.25019609928131104)
(X_396  0.25019609928131104)
(X_397  0.2541176676750183)
(X_398  0.23843137919902802)
(X_399  0.2580392360687256)
(X_400  0.21882353723049164)
(X_401  0.25019609928131104)
(X_402  0.30901962518692017)
(X_403  0.3874509930610657)
(X_404  0.5380392074584961)
(X_405  0.5929412245750427)
(X_406  0.6203922033309937)
(X_407  0.6321569085121155)
(X_408  0.5560784339904785)
(X_409  0.5364705920219421)
(X_410  0.5090196132659912)
(X_411  0.4894118010997772)
(X_412  0.48156866431236267)
(X_413  0.4776470959186554)
(X_414  0.4619608223438263)
(X_415  0.43843138217926025)
(X_416  0.35607844591140747)
(X_417  0.3811764717102051)
(X_418  0.40078431367874146)
(X_419  0.4596078395843506)
(X_420  0.32470589876174927)
(X_421  0.3576470613479614)
(X_422  0.20862746238708496)
(X_423  0.05411764979362488)
(X_424  0.12078431993722916)
(X_425  0.15607842803001404)
(X_426  0.1482352912425995)
(X_427  0.18745097517967224)
(X_428  0.24627451598644257)
(X_429  0.2698039412498474)
(X_430  0.320784330368042)
(X_431  0.3952941298484802)
(X_432  0.4737255275249481)
(X_433  0.6086274981498718)
(X_434  0.6282353401184082)
(X_435  0.6321569085121155)
(X_436  0.6282353401184082)
(X_437  0.5050980448722839)
(X_438  0.46588239073753357)
(X_439  0.45803922414779663)
(X_440  0.46588239073753357)
(X_441  0.5419608354568481)
(X_442  0.45411765575408936)
(X_443  0.4501960873603821)
(X_444  0.48156866431236267)
(X_445  0.49882352352142334)
(X_446  0.4556862711906433)
(X_447  0.4596078395843506)
(X_448  0.3678431510925293)
(X_449  0.3615686297416687)
(X_450  0.2635294198989868)
(X_451  0.1443137228488922)
(X_452  0.17176470160484314)
(X_453  0.21490196883678436)
(X_454  0.23058824241161346)
(X_455  0.2227451056241989)
(X_456  0.20705881714820862)
(X_457  0.2266666740179062)
(X_458  0.27764707803726196)
(X_459  0.3717647194862366)
(X_460  0.5576471090316772)
(X_461  0.6282353401184082)
(X_462  0.6360784769058228)
(X_463  0.5325490236282349)
(X_464  0.5678431391716003)
(X_465  0.5403921604156494)
(X_466  0.5090196132659912)
(X_467  0.4933333694934845)
(X_468  0.4933333694934845)
(X_469  0.48156866431236267)
(X_470  0.45411765575408936)
(X_471  0.4305882453918457)
(X_472  0.3835294246673584)
(X_473  0.4596078395843506)
(X_474  0.46745097637176514)
(X_475  0.49882352352142334)
(X_476  0.11686275154352188)
(X_477  0.17333334684371948)
(X_478  0.07372549176216125)
(X_479  0.08549020439386368)
(X_480  0.1286274492740631)
(X_481  0.17176470160484314)
(X_482  0.20313724875450134)
(X_483  0.2109804004430771)
(X_484  0.2854902148246765)
(X_485  0.2894117832183838)
(X_486  0.31294119358062744)
(X_487  0.3835294246673584)
(X_488  0.4776470959186554)
(X_489  0.6243137717247009)
(X_490  0.6439216136932373)
(X_491  0.6321569085121155)
(X_492  0.5850980877876282)
(X_493  0.4776470959186554)
(X_494  0.45803922414779663)
(X_495  0.4619608223438263)
(X_496  0.48549023270606995)
(X_497  0.4933333694934845)
(X_498  0.4737255275249481)
(X_499  0.4501960873603821)
(X_500  0.40705883502960205)
(X_501  0.3796078562736511)
(X_502  0.4243137240409851)
(X_503  0.40078431367874146)
(X_504  0.13019607961177826)
(X_505  0.1694117784500122)
(X_506  0.15215685963630676)
(X_507  0.21490196883678436)
(X_508  0.26588237285614014)
(X_509  0.30901962518692017)
(X_510  0.34431374073028564)
(X_511  0.3678431510925293)
(X_512  0.3678431510925293)
(X_513  0.3678431510925293)
(X_514  0.3874509930610657)
(X_515  0.44235295057296753)
(X_516  0.5129411816596985)
(X_517  0.6360784769058228)
(X_518  0.6439216136932373)
(X_519  0.6360784769058228)
(X_520  0.5678431391716003)
(X_521  0.5247058868408203)
(X_522  0.4776470959186554)
(X_523  0.46980395913124084)
(X_524  0.48156866431236267)
(X_525  0.4776470959186554)
(X_526  0.43843138217926025)
(X_527  0.3992156982421875)
(X_528  0.3952941298484802)
(X_529  0.3678431510925293)
(X_530  0.408627450466156)
(X_531  0.38509804010391235)
(X_532  0.17333334684371948)
(X_533  0.22823530435562134)
(X_534  0.3105882406234741)
(X_535  0.3050980567932129)
(X_536  0.35607844591140747)
(X_537  0.39137256145477295)
(X_538  0.4188235402107239)
(X_539  0.434509813785553)
(X_540  0.42274510860443115)
(X_541  0.4305882453918457)
(X_542  0.4619608223438263)
(X_543  0.520784318447113)
(X_544  0.5678431391716003)
(X_545  0.6517647504806519)
(X_546  0.6360784769058228)
(X_547  0.6203922033309937)
(X_548  0.5247058868408203)
(X_549  0.48156866431236267)
(X_550  0.44235295057296753)
(X_551  0.45411765575408936)
(X_552  0.4894118010997772)
(X_553  0.5011764764785767)
(X_554  0.46980395913124084)
(X_555  0.4305882453918457)
(X_556  0.3874509930610657)
(X_557  0.3482353091239929)
(X_558  0.3772549033164978)
(X_559  0.3341176509857178)
(X_560  0.27137255668640137)
(X_561  0.2988235354423523)
(X_562  0.2698039412498474)
(X_563  0.32470589876174927)
(X_564  0.3717647194862366)
(X_565  0.4031372666358948)
(X_566  0.4149019718170166)
(X_567  0.42274510860443115)
(X_568  0.46588239073753357)
(X_569  0.46588239073753357)
(X_570  0.4933333694934845)
(X_571  0.548235297203064)
(X_572  0.5756862759590149)
(X_573  0.6478431820869446)
(X_574  0.6321569085121155)
(X_575  0.6321569085121155)
(X_576  0.4933333694934845)
(X_577  0.4501960873603821)
(X_578  0.4109804034233093)
(X_579  0.4188235402107239)
(X_580  0.45411765575408936)
(X_581  0.46588239073753357)
(X_582  0.434509813785553)
(X_583  0.39137256145477295)
(X_584  0.3874509930610657)
(X_585  0.34431374073028564)
(X_586  0.3615686297416687)
(X_587  0.30666667222976685)
(X_588  0.42039215564727783)
(X_589  0.4243137240409851)
(X_590  0.363921582698822)
(X_591  0.47921568155288696)
(X_592  0.5184313654899597)
(X_593  0.5458824038505554)
(X_594  0.55372554063797)
(X_595  0.55372554063797)
(X_596  0.5615686774253845)
(X_597  0.4619608223438263)
(X_598  0.46980395913124084)
(X_599  0.5090196132659912)
(X_600  0.5286274552345276)
(X_601  0.6125490665435791)
(X_602  0.6321569085121155)
(X_603  0.667451024055481)
(X_604  0.5286274552345276)
(X_605  0.48549023270606995)
(X_606  0.434509813785553)
(X_607  0.42274510860443115)
(X_608  0.4305882453918457)
(X_609  0.4188235402107239)
(X_610  0.37568628787994385)
(X_611  0.3364706039428711)
(X_612  0.38901960849761963)
(X_613  0.33803921937942505)
(X_614  0.2792156934738159)
(X_615  0.24392157793045044)
(X_616  0.4399999976158142)
(X_617  0.44784313440322876)
(X_618  0.46352940797805786)
(X_619  0.4870588183403015)
(X_620  0.5145097970962524)
(X_621  0.5301960706710815)
(X_622  0.5380392074584961)
(X_623  0.5380392074584961)
(X_624  0.43843138217926025)
(X_625  0.49882352352142334)
(X_626  0.4305882453918457)
(X_627  0.46980395913124084)
(X_628  0.4933333694934845)
(X_629  0.5772549510002136)
(X_630  0.5364705920219421)
(X_631  0.5874509811401367)
(X_632  0.4972549378871918)
(X_633  0.46588239073753357)
(X_634  0.43843138217926025)
(X_635  0.434509813785553)
(X_636  0.4501960873603821)
(X_637  0.45411765575408936)
(X_638  0.4305882453918457)
(X_639  0.4031372666358948)
(X_640  0.3341176509857178)
(X_641  0.2635294198989868)
(X_642  0.1694117784500122)
(X_643  0.11843137443065643)
(X_644  0.38901960849761963)
(X_645  0.408627450466156)
(X_646  0.43607842922210693)
(X_647  0.4596078395843506)
(X_648  0.4713725447654724)
(X_649  0.4752941131591797)
(X_650  0.47921568155288696)
(X_651  0.4031372666358948)
(X_652  0.3796078562736511)
(X_653  0.3717647194862366)
(X_654  0.4031372666358948)
(X_655  0.5419608354568481)
(X_656  0.5654902458190918)
(X_657  0.5654902458190918)
(X_658  0.5929412245750427)
(X_659  0.64000004529953)
(X_660  0.548235297203064)
(X_661  0.5168627500534058)
(X_662  0.48156866431236267)
(X_663  0.45803922414779663)
(X_664  0.5262745022773743)
(X_665  0.4266666769981384)
(X_666  0.3952941298484802)
(X_667  0.3678431510925293)
(X_668  0.32862746715545654)
(X_669  0.2423529475927353)
(X_670  0.22431373596191406)
(X_671  0.17333334684371948)
(X_672  0.40078431367874146)
(X_673  0.44784313440322876)
(X_674  0.47921568155288696)
(X_675  0.46745097637176514)
(X_676  0.44784313440322876)
(X_677  0.3796078562736511)
(X_678  0.49882352352142334)
(X_679  0.522352933883667)
(X_680  0.5105882287025452)
(X_681  0.45176470279693604)
(X_682  0.39137256145477295)
(X_683  0.5380392074584961)
(X_684  0.5380392074584961)
(X_685  0.522352933883667)
(X_686  0.5262745022773743)
(X_687  0.5262745022773743)
(X_688  0.48156866431236267)
(X_689  0.5011764764785767)
(X_690  0.5168627500534058)
(X_691  0.59686279296875)
(X_692  0.5011764764785767)
(X_693  0.4737255275249481)
(X_694  0.43843138217926025)
(X_695  0.40705883502960205)
(X_696  0.3835294246673584)
(X_697  0.31294119358062744)
(X_698  0.2109804004430771)
(X_699  0.13254901766777039)
(X_700  0.4752941131591797)
(X_701  0.49882352352142334)
(X_702  0.49490195512771606)
(X_703  0.4556862711906433)
(X_704  0.42039215564727783)
(X_705  0.4125490188598633)
(X_706  0.4282352924346924)
(X_707  0.43607842922210693)
(X_708  0.4909803867340088)
(X_709  0.4399999976158142)
(X_710  0.4713725447654724)
(X_711  0.5341176390647888)
(X_712  0.5341176390647888)
(X_713  0.5184313654899597)
(X_714  0.5341176390647888)
(X_715  0.5458824038505554)
(X_716  0.46980395913124084)
(X_717  0.46588239073753357)
(X_718  0.5341176390647888)
(X_719  0.522352933883667)
(X_720  0.5262745022773743)
(X_721  0.4619608223438263)
(X_722  0.48156866431236267)
(X_723  0.4894118010997772)
(X_724  0.4305882453918457)
(X_725  0.3796078562736511)
(X_726  0.3050980567932129)
(X_727  0.24627451598644257)
(X_728  0.39137256145477295)
(X_729  0.3952941298484802)
(X_730  0.3796078562736511)
(X_731  0.4243137240409851)
(X_732  0.40470588207244873)
(X_733  0.41647058725357056)
(X_734  0.4282352924346924)
(X_735  0.4282352924346924)
(X_736  0.4870588183403015)
(X_737  0.44784313440322876)
(X_738  0.4870588183403015)
(X_739  0.5380392074584961)
(X_740  0.5145097970962524)
(X_741  0.4909803867340088)
(X_742  0.5184313654899597)
(X_743  0.5419608354568481)
(X_744  0.47921568155288696)
(X_745  0.46352940797805786)
(X_746  0.4439215660095215)
(X_747  0.4399999976158142)
(X_748  0.4556862711906433)
(X_749  0.49490195512771606)
(X_750  0.45803922414779663)
(X_751  0.5654902458190918)
(X_752  0.45411765575408936)
(X_753  0.42274510860443115)
(X_754  0.4596078395843506)
(X_755  0.3482353091239929)
(X_756  0.3521568775177002)
(X_757  0.34431374073028564)
(X_758  0.40470588207244873)
(X_759  0.38901960849761963)
(X_760  0.408627450466156)
(X_761  0.44784313440322876)
(X_762  0.4713725447654724)
(X_763  0.4713725447654724)
(X_764  0.5105882287025452)
(X_765  0.47921568155288696)
(X_766  0.5145097970962524)
(X_767  0.5458824038505554)
(X_768  0.49490195512771606)
(X_769  0.45176470279693604)
(X_770  0.47921568155288696)
(X_771  0.434509813785553)
(X_772  0.4125490188598633)
(X_773  0.40470588207244873)
(X_774  0.408627450466156)
(X_775  0.4243137240409851)
(X_776  0.4399999976158142)
(X_777  0.45176470279693604)
(X_778  0.46745097637176514)
(X_779  0.4870588183403015)
(X_780  0.5105882287025452)
(X_781  0.4870588183403015)
(X_782  0.3796078562736511)
(X_783  0.4439215660095215)
(Y_0 -1.445926547050476))