((X_0  0.3678431510925293)
(X_1  0.3796078562736511)
(X_2  0.39137256145477295)
(X_3  0.3952941298484802)
(X_4  0.4031372666358948)
(X_5  0.4266666769981384)
(X_6  0.46980395913124084)
(X_7  0.5011764764785767)
(X_8  0.5168627500534058)
(X_9  0.6125490665435791)
(X_10  0.6282353401184082)
(X_11  0.6243137717247009)
(X_12  0.6007843613624573)
(X_13  0.5850980877876282)
(X_14  0.6086274981498718)
(X_15  0.64000004529953)
(X_16  0.6517647504806519)
(X_17  0.64000004529953)
(X_18  0.6282353401184082)
(X_19  0.6282353401184082)
(X_20  0.6243137717247009)
(X_21  0.5129411816596985)
(X_22  0.4619608223438263)
(X_23  0.42274510860443115)
(X_24  0.4149019718170166)
(X_25  0.4109804034233093)
(X_26  0.5145097970962524)
(X_27  0.5654902458190918)
(X_28  0.4713725447654724)
(X_29  0.4909803867340088)
(X_30  0.434509813785553)
(X_31  0.45803922414779663)
(X_32  0.4776470959186554)
(X_33  0.4972549378871918)
(X_34  0.520784318447113)
(X_35  0.5364705920219421)
(X_36  0.520784318447113)
(X_37  0.5403921604156494)
(X_38  0.64000004529953)
(X_39  0.6321569085121155)
(X_40  0.6086274981498718)
(X_41  0.59686279296875)
(X_42  0.6164706349372864)
(X_43  0.6439216136932373)
(X_44  0.6439216136932373)
(X_45  0.64000004529953)
(X_46  0.64000004529953)
(X_47  0.5600000023841858)
(X_48  0.5521568655967712)
(X_49  0.5286274552345276)
(X_50  0.48549023270606995)
(X_51  0.45803922414779663)
(X_52  0.4776470959186554)
(X_53  0.43843138217926025)
(X_54  0.4870588183403015)
(X_55  0.4870588183403015)
(X_56  0.5066666603088379)
(X_57  0.45803922414779663)
(X_58  0.5011764764785767)
(X_59  0.5325490236282349)
(X_60  0.5443137288093567)
(X_61  0.5443137288093567)
(X_62  0.5364705920219421)
(X_63  0.5325490236282349)
(X_64  0.5168627500534058)
(X_65  0.5443137288093567)
(X_66  0.6478431820869446)
(X_67  0.64000004529953)
(X_68  0.6203922033309937)
(X_69  0.6164706349372864)
(X_70  0.6360784769058228)
(X_71  0.6556863188743591)
(X_72  0.5796078443527222)
(X_73  0.6556863188743591)
(X_74  0.6517647504806519)
(X_75  0.6439216136932373)
(X_76  0.5560784339904785)
(X_77  0.5403921604156494)
(X_78  0.5286274552345276)
(X_79  0.520784318447113)
(X_80  0.548235297203064)
(X_81  0.5694118142127991)
(X_82  0.5066666603088379)
(X_83  0.4752941131591797)
(X_84  0.5341176390647888)
(X_85  0.5050980448722839)
(X_86  0.5600000023841858)
(X_87  0.5796078443527222)
(X_88  0.6282353401184082)
(X_89  0.5090196132659912)
(X_90  0.48156866431236267)
(X_91  0.55372554063797)
(X_92  0.5694118142127991)
(X_93  0.6086274981498718)
(X_94  0.6439216136932373)
(X_95  0.5639215707778931)
(X_96  0.5521568655967712)
(X_97  0.5600000023841858)
(X_98  0.5796078443527222)
(X_99  0.5952941179275513)
(X_100  0.6792157292366028)
(X_101  0.6635294556617737)
(X_102  0.6321569085121155)
(X_103  0.6047059297561646)
(X_104  0.5929412245750427)
(X_105  0.6047059297561646)
(X_106  0.6360784769058228)
(X_107  0.6596078872680664)
(X_108  0.5678431391716003)
(X_109  0.6007843613624573)
(X_110  0.5458824038505554)
(X_111  0.5184313654899597)
(X_112  0.5419608354568481)
(X_113  0.6086274981498718)
(X_114  0.5874509811401367)
(X_115  0.5796078443527222)
(X_116  0.5090196132659912)
(X_117  0.522352933883667)
(X_118  0.5027450919151306)
(X_119  0.5105882287025452)
(X_120  0.5341176390647888)
(X_121  0.5890196561813354)
(X_122  0.6321569085121155)
(X_123  0.5560784339904785)
(X_124  0.5560784339904785)
(X_125  0.5756862759590149)
(X_126  0.5992156863212585)
(X_127  0.6109803915023804)
(X_128  0.6752941608428955)
(X_129  0.6360784769058228)
(X_130  0.5733333826065063)
(X_131  0.5184313654899597)
(X_132  0.5066666603088379)
(X_133  0.5419608354568481)
(X_134  0.6047059297561646)
(X_135  0.6517647504806519)
(X_136  0.5639215707778931)
(X_137  0.6086274981498718)
(X_138  0.5576471090316772)
(X_139  0.522352933883667)
(X_140  0.46980395913124084)
(X_141  0.6047059297561646)
(X_142  0.6517647504806519)
(X_143  0.548235297203064)
(X_144  0.4737255275249481)
(X_145  0.49490195512771606)
(X_146  0.4909803867340088)
(X_147  0.5145097970962524)
(X_148  0.5105882287025452)
(X_149  0.5772549510002136)
(X_150  0.6282353401184082)
(X_151  0.5521568655967712)
(X_152  0.5600000023841858)
(X_153  0.5874509811401367)
(X_154  0.6909804344177246)
(X_155  0.6949020028114319)
(X_156  0.6596078872680664)
(X_157  0.6047059297561646)
(X_158  0.522352933883667)
(X_159  0.46352940797805786)
(X_160  0.45176470279693604)
(X_161  0.4870588183403015)
(X_162  0.5458824038505554)
(X_163  0.5890196561813354)
(X_164  0.6635294556617737)
(X_165  0.6321569085121155)
(X_166  0.5694118142127991)
(X_167  0.5105882287025452)
(X_168  0.5694118142127991)
(X_169  0.59686279296875)
(X_170  0.6086274981498718)
(X_171  0.5772549510002136)
(X_172  0.5301960706710815)
(X_173  0.49882352352142334)
(X_174  0.5066666603088379)
(X_175  0.5301960706710815)
(X_176  0.5066666603088379)
(X_177  0.5011764764785767)
(X_178  0.5560784339904785)
(X_179  0.5560784339904785)
(X_180  0.5600000023841858)
(X_181  0.5952941179275513)
(X_182  0.6149019598960876)
(X_183  0.6909804344177246)
(X_184  0.6713725924491882)
(X_185  0.6164706349372864)
(X_186  0.5458824038505554)
(X_187  0.49490195512771606)
(X_188  0.48313724994659424)
(X_189  0.5027450919151306)
(X_190  0.5262745022773743)
(X_191  0.5419608354568481)
(X_192  0.6478431820869446)
(X_193  0.6439216136932373)
(X_194  0.6047059297561646)
(X_195  0.5458824038505554)
(X_196  0.59686279296875)
(X_197  0.5890196561813354)
(X_198  0.5694118142127991)
(X_199  0.5419608354568481)
(X_200  0.5145097970962524)
(X_201  0.5066666603088379)
(X_202  0.5184313654899597)
(X_203  0.5301960706710815)
(X_204  0.5145097970962524)
(X_205  0.5090196132659912)
(X_206  0.5639215707778931)
(X_207  0.5639215707778931)
(X_208  0.5639215707778931)
(X_209  0.6752941608428955)
(X_210  0.6949020028114319)
(X_211  0.6831372976303101)
(X_212  0.6188235282897949)
(X_213  0.6517647504806519)
(X_214  0.59686279296875)
(X_215  0.5615686774253845)
(X_216  0.5498039722442627)
(X_217  0.5498039722442627)
(X_218  0.5380392074584961)
(X_219  0.5301960706710815)
(X_220  0.5929412245750427)
(X_221  0.6243137717247009)
(X_222  0.6282353401184082)
(X_223  0.5929412245750427)
(X_224  0.6439216136932373)
(X_225  0.59686279296875)
(X_226  0.5419608354568481)
(X_227  0.5066666603088379)
(X_228  0.5027450919151306)
(X_229  0.5184313654899597)
(X_230  0.45411765575408936)
(X_231  0.45803922414779663)
(X_232  0.4619608223438263)
(X_233  0.5050980448722839)
(X_234  0.548235297203064)
(X_235  0.5639215707778931)
(X_236  0.5796078443527222)
(X_237  0.6831372976303101)
(X_238  0.6949020028114319)
(X_239  0.6149019598960876)
(X_240  0.6149019598960876)
(X_241  0.5992156863212585)
(X_242  0.5717647075653076)
(X_243  0.5403921604156494)
(X_244  0.5929412245750427)
(X_245  0.5654902458190918)
(X_246  0.5498039722442627)
(X_247  0.5419608354568481)
(X_248  0.5498039722442627)
(X_249  0.5772549510002136)
(X_250  0.6047059297561646)
(X_251  0.6047059297561646)
(X_252  0.5850980877876282)
(X_253  0.5576471090316772)
(X_254  0.5262745022773743)
(X_255  0.5027450919151306)
(X_256  0.5027450919151306)
(X_257  0.5145097970962524)
(X_258  0.5341176390647888)
(X_259  0.46980395913124084)
(X_260  0.4776470959186554)
(X_261  0.520784318447113)
(X_262  0.5600000023841858)
(X_263  0.5796078443527222)
(X_264  0.591372549533844)
(X_265  0.6949020028114319)
(X_266  0.7066667079925537)
(X_267  0.6266666650772095)
(X_268  0.6227450966835022)
(X_269  0.6109803915023804)
(X_270  0.591372549533844)
(X_271  0.5678431391716003)
(X_272  0.5443137288093567)
(X_273  0.6086274981498718)
(X_274  0.59686279296875)
(X_275  0.5929412245750427)
(X_276  0.5850980877876282)
(X_277  0.6086274981498718)
(X_278  0.6360784769058228)
(X_279  0.6439216136932373)
(X_280  0.45803922414779663)
(X_281  0.4462745189666748)
(X_282  0.5105882287025452)
(X_283  0.5066666603088379)
(X_284  0.5145097970962524)
(X_285  0.5341176390647888)
(X_286  0.4776470959186554)
(X_287  0.4933333694934845)
(X_288  0.4933333694934845)
(X_289  0.5364705920219421)
(X_290  0.5796078443527222)
(X_291  0.5992156863212585)
(X_292  0.6109803915023804)
(X_293  0.710588276386261)
(X_294  0.7223529815673828)
(X_295  0.6384313702583313)
(X_296  0.6227450966835022)
(X_297  0.6188235282897949)
(X_298  0.6070588231086731)
(X_299  0.591372549533844)
(X_300  0.5796078443527222)
(X_301  0.5678431391716003)
(X_302  0.6439216136932373)
(X_303  0.64000004529953)
(X_304  0.6203922033309937)
(X_305  0.6360784769058228)
(X_306  0.6596078872680664)
(X_307  0.6792157292366028)
(X_308  0.434509813785553)
(X_309  0.4149019718170166)
(X_310  0.4752941131591797)
(X_311  0.47921568155288696)
(X_312  0.5105882287025452)
(X_313  0.46588239073753357)
(X_314  0.48549023270606995)
(X_315  0.4933333694934845)
(X_316  0.5050980448722839)
(X_317  0.5521568655967712)
(X_318  0.5952941179275513)
(X_319  0.6109803915023804)
(X_320  0.6266666650772095)
(X_321  0.7223529815673828)
(X_322  0.6501960754394531)
(X_323  0.6501960754394531)
(X_324  0.6227450966835022)
(X_325  0.6188235282897949)
(X_326  0.6109803915023804)
(X_327  0.6031372547149658)
(X_328  0.5952941179275513)
(X_329  0.591372549533844)
(X_330  0.667451024055481)
(X_331  0.6635294556617737)
(X_332  0.6439216136932373)
(X_333  0.64000004529953)
(X_334  0.6439216136932373)
(X_335  0.6596078872680664)
(X_336  0.4305882453918457)
(X_337  0.3874509930610657)
(X_338  0.43215686082839966)
(X_339  0.4399999976158142)
(X_340  0.49490195512771606)
(X_341  0.4619608223438263)
(X_342  0.4776470959186554)
(X_343  0.4737255275249481)
(X_344  0.5129411816596985)
(X_345  0.5600000023841858)
(X_346  0.6031372547149658)
(X_347  0.6227450966835022)
(X_348  0.634509801864624)
(X_349  0.7301961183547974)
(X_350  0.7380392551422119)
(X_351  0.7301961183547974)
(X_352  0.634509801864624)
(X_353  0.6305882334709167)
(X_354  0.6266666650772095)
(X_355  0.6188235282897949)
(X_356  0.6109803915023804)
(X_357  0.6031372547149658)
(X_358  0.5952941179275513)
(X_359  0.6713725924491882)
(X_360  0.6635294556617737)
(X_361  0.64000004529953)
(X_362  0.6125490665435791)
(X_363  0.6047059297561646)
(X_364  0.43843138217926025)
(X_365  0.4752941131591797)
(X_366  0.43607842922210693)
(X_367  0.4439215660095215)
(X_368  0.4149019718170166)
(X_369  0.46588239073753357)
(X_370  0.48549023270606995)
(X_371  0.48156866431236267)
(X_372  0.520784318447113)
(X_373  0.5678431391716003)
(X_374  0.6149019598960876)
(X_375  0.634509801864624)
(X_376  0.6423529386520386)
(X_377  0.7380392551422119)
(X_378  0.7419608235359192)
(X_379  0.7341176867485046)
(X_380  0.7301961183547974)
(X_381  0.6462745070457458)
(X_382  0.6462745070457458)
(X_383  0.6384313702583313)
(X_384  0.6305882334709167)
(X_385  0.6188235282897949)
(X_386  0.6070588231086731)
(X_387  0.6031372547149658)
(X_388  0.6831372976303101)
(X_389  0.6517647504806519)
(X_390  0.6047059297561646)
(X_391  0.5733333826065063)
(X_392  0.40705883502960205)
(X_393  0.4713725447654724)
(X_394  0.4556862711906433)
(X_395  0.3835294246673584)
(X_396  0.4149019718170166)
(X_397  0.4501960873603821)
(X_398  0.4776470959186554)
(X_399  0.4894118010997772)
(X_400  0.5286274552345276)
(X_401  0.5756862759590149)
(X_402  0.6227450966835022)
(X_403  0.6462745070457458)
(X_404  0.7341176867485046)
(X_405  0.7458823919296265)
(X_406  0.7498039603233337)
(X_407  0.7419608235359192)
(X_408  0.6501960754394531)
(X_409  0.6501960754394531)
(X_410  0.6501960754394531)
(X_411  0.6462745070457458)
(X_412  0.634509801864624)
(X_413  0.6266666650772095)
(X_414  0.6149019598960876)
(X_415  0.6109803915023804)
(X_416  0.6188235282897949)
(X_417  0.6752941608428955)
(X_418  0.64000004529953)
(X_419  0.6125490665435791)
(X_420  0.34431374073028564)
(X_421  0.43607842922210693)
(X_422  0.44784313440322876)
(X_423  0.37568628787994385)
(X_424  0.3835294246673584)
(X_425  0.4031372666358948)
(X_426  0.44235295057296753)
(X_427  0.46980395913124084)
(X_428  0.5364705920219421)
(X_429  0.5835294127464294)
(X_430  0.6305882334709167)
(X_431  0.6541176438331604)
(X_432  0.661960780620575)
(X_433  0.753725528717041)
(X_434  0.753725528717041)
(X_435  0.7458823919296265)
(X_436  0.7184314131736755)
(X_437  0.6423529386520386)
(X_438  0.6423529386520386)
(X_439  0.6384313702583313)
(X_440  0.634509801864624)
(X_441  0.7027451395988464)
(X_442  0.6149019598960876)
(X_443  0.6070588231086731)
(X_444  0.6227450966835022)
(X_445  0.6949020028114319)
(X_446  0.6792157292366028)
(X_447  0.667451024055481)
(X_448  0.3364706039428711)
(X_449  0.42039215564727783)
(X_450  0.43215686082839966)
(X_451  0.363921582698822)
(X_452  0.3835294246673584)
(X_453  0.4188235402107239)
(X_454  0.45411765575408936)
(X_455  0.48156866431236267)
(X_456  0.5050980448722839)
(X_457  0.5678431391716003)
(X_458  0.634509801864624)
(X_459  0.6580392122268677)
(X_460  0.7380392551422119)
(X_461  0.7419608235359192)
(X_462  0.7419608235359192)
(X_463  0.6580392122268677)
(X_464  0.6501960754394531)
(X_465  0.6462745070457458)
(X_466  0.6462745070457458)
(X_467  0.6501960754394531)
(X_468  0.6501960754394531)
(X_469  0.6423529386520386)
(X_470  0.6266666650772095)
(X_471  0.6149019598960876)
(X_472  0.6266666650772095)
(X_473  0.6988235712051392)
(X_474  0.6831372976303101)
(X_475  0.6635294556617737)
(X_476  0.3482353091239929)
(X_477  0.40470588207244873)
(X_478  0.29725492000579834)
(X_479  0.2894117832183838)
(X_480  0.320784330368042)
(X_481  0.3796078562736511)
(X_482  0.44235295057296753)
(X_483  0.48549023270606995)
(X_484  0.5129411816596985)
(X_485  0.5756862759590149)
(X_486  0.6384313702583313)
(X_487  0.6658823490142822)
(X_488  0.6698039174079895)
(X_489  0.7576470971107483)
(X_490  0.7615686655044556)
(X_491  0.7615686655044556)
(X_492  0.7419608235359192)
(X_493  0.661960780620575)
(X_494  0.661960780620575)
(X_495  0.661960780620575)
(X_496  0.6658823490142822)
(X_497  0.6580392122268677)
(X_498  0.6462745070457458)
(X_499  0.634509801864624)
(X_500  0.6227450966835022)
(X_501  0.6149019598960876)
(X_502  0.6792157292366028)
(X_503  0.6635294556617737)
(X_504  0.38509804010391235)
(X_505  0.3733333349227905)
(X_506  0.29333335161209106)
(X_507  0.320784330368042)
(X_508  0.3717647194862366)
(X_509  0.4266666769981384)
(X_510  0.46588239073753357)
(X_511  0.48549023270606995)
(X_512  0.5050980448722839)
(X_513  0.5639215707778931)
(X_514  0.6266666650772095)
(X_515  0.6501960754394531)
(X_516  0.661960780620575)
(X_517  0.753725528717041)
(X_518  0.7615686655044556)
(X_519  0.7576470971107483)
(X_520  0.6541176438331604)
(X_521  0.6501960754394531)
(X_522  0.6501960754394531)
(X_523  0.6541176438331604)
(X_524  0.6580392122268677)
(X_525  0.6541176438331604)
(X_526  0.6423529386520386)
(X_527  0.634509801864624)
(X_528  0.6109803915023804)
(X_529  0.6031372547149658)
(X_530  0.667451024055481)
(X_531  0.6556863188743591)
(X_532  0.3811764717102051)
(X_533  0.3811764717102051)
(X_534  0.3929411768913269)
(X_535  0.36000001430511475)
(X_536  0.42274510860443115)
(X_537  0.46980395913124084)
(X_538  0.4894118010997772)
(X_539  0.4933333694934845)
(X_540  0.5247058868408203)
(X_541  0.5756862759590149)
(X_542  0.6266666650772095)
(X_543  0.6501960754394531)
(X_544  0.6580392122268677)
(X_545  0.7498039603233337)
(X_546  0.753725528717041)
(X_547  0.7498039603233337)
(X_548  0.6541176438331604)
(X_549  0.6501960754394531)
(X_550  0.6462745070457458)
(X_551  0.6501960754394531)
(X_552  0.6541176438331604)
(X_553  0.6541176438331604)
(X_554  0.6423529386520386)
(X_555  0.634509801864624)
(X_556  0.6031372547149658)
(X_557  0.591372549533844)
(X_558  0.6556863188743591)
(X_559  0.6439216136932373)
(X_560  0.42039215564727783)
(X_561  0.40078431367874146)
(X_562  0.30901962518692017)
(X_563  0.3364706039428711)
(X_564  0.3992156982421875)
(X_565  0.46588239073753357)
(X_566  0.5129411816596985)
(X_567  0.5364705920219421)
(X_568  0.5796078443527222)
(X_569  0.6227450966835022)
(X_570  0.661960780620575)
(X_571  0.6737254858016968)
(X_572  0.677647054195404)
(X_573  0.7694118022918701)
(X_574  0.7654902338981628)
(X_575  0.7576470971107483)
(X_576  0.6698039174079895)
(X_577  0.6658823490142822)
(X_578  0.661960780620575)
(X_579  0.661960780620575)
(X_580  0.6658823490142822)
(X_581  0.661960780620575)
(X_582  0.6541176438331604)
(X_583  0.6462745070457458)
(X_584  0.6109803915023804)
(X_585  0.591372549533844)
(X_586  0.6439216136932373)
(X_587  0.6282353401184082)
(X_588  0.38509804010391235)
(X_589  0.3968627452850342)
(X_590  0.3482353091239929)
(X_591  0.4870588183403015)
(X_592  0.5576471090316772)
(X_593  0.6243137717247009)
(X_594  0.667451024055481)
(X_595  0.6870588660240173)
(X_596  0.6988235712051392)
(X_597  0.6501960754394531)
(X_598  0.677647054195404)
(X_599  0.6815686225891113)
(X_600  0.6854901909828186)
(X_601  0.7733333706855774)
(X_602  0.7654902338981628)
(X_603  0.753725528717041)
(X_604  0.6698039174079895)
(X_605  0.661960780620575)
(X_606  0.6541176438331604)
(X_607  0.6541176438331604)
(X_608  0.6541176438331604)
(X_609  0.6501960754394531)
(X_610  0.6423529386520386)
(X_611  0.634509801864624)
(X_612  0.6949020028114319)
(X_613  0.6635294556617737)
(X_614  0.6203922033309937)
(X_615  0.59686279296875)
(X_616  0.4243137240409851)
(X_617  0.4713725447654724)
(X_618  0.5419608354568481)
(X_619  0.6203922033309937)
(X_620  0.6870588660240173)
(X_621  0.7223529815673828)
(X_622  0.7380392551422119)
(X_623  0.7380392551422119)
(X_624  0.6384313702583313)
(X_625  0.7419608235359192)
(X_626  0.6815686225891113)
(X_627  0.6854901909828186)
(X_628  0.6894117593765259)
(X_629  0.7772549390792847)
(X_630  0.6894117593765259)
(X_631  0.6737254858016968)
(X_632  0.6658823490142822)
(X_633  0.6580392122268677)
(X_634  0.6462745070457458)
(X_635  0.6384313702583313)
(X_636  0.6384313702583313)
(X_637  0.634509801864624)
(X_638  0.6266666650772095)
(X_639  0.6188235282897949)
(X_640  0.6713725924491882)
(X_641  0.6282353401184082)
(X_642  0.5733333826065063)
(X_643  0.5380392074584961)
(X_644  0.59686279296875)
(X_645  0.6164706349372864)
(X_646  0.6439216136932373)
(X_647  0.6752941608428955)
(X_648  0.6988235712051392)
(X_649  0.7223529815673828)
(X_650  0.7458823919296265)
(X_651  0.677647054195404)
(X_652  0.661960780620575)
(X_653  0.6854901909828186)
(X_654  0.705098032951355)
(X_655  0.7850980758666992)
(X_656  0.7890196442604065)
(X_657  0.8007843494415283)
(X_658  0.796862781047821)
(X_659  0.7811765074729919)
(X_660  0.6815686225891113)
(X_661  0.6698039174079895)
(X_662  0.6580392122268677)
(X_663  0.6501960754394531)
(X_664  0.7262745499610901)
(X_665  0.6423529386520386)
(X_666  0.6305882334709167)
(X_667  0.6227450966835022)
(X_668  0.5600000023841858)
(X_669  0.5090196132659912)
(X_670  0.5262745022773743)
(X_671  0.48313724994659424)
(X_672  0.6635294556617737)
(X_673  0.6752941608428955)
(X_674  0.6949020028114319)
(X_675  0.7145098447799683)
(X_676  0.7341176867485046)
(X_677  0.6658823490142822)
(X_678  0.753725528717041)
(X_679  0.7576470971107483)
(X_680  0.7694118022918701)
(X_681  0.7733333706855774)
(X_682  0.7011764645576477)
(X_683  0.7890196442604065)
(X_684  0.7890196442604065)
(X_685  0.7890196442604065)
(X_686  0.7850980758666992)
(X_687  0.7850980758666992)
(X_688  0.7011764645576477)
(X_689  0.677647054195404)
(X_690  0.6658823490142822)
(X_691  0.7498039603233337)
(X_692  0.6658823490142822)
(X_693  0.6501960754394531)
(X_694  0.6423529386520386)
(X_695  0.6462745070457458)
(X_696  0.6109803915023804)
(X_697  0.5325490236282349)
(X_698  0.4305882453918457)
(X_699  0.3678431510925293)
(X_700  0.6792157292366028)
(X_701  0.6909804344177246)
(X_702  0.710588276386261)
(X_703  0.7301961183547974)
(X_704  0.7458823919296265)
(X_705  0.753725528717041)
(X_706  0.7615686655044556)
(X_707  0.6815686225891113)
(X_708  0.7694118022918701)
(X_709  0.7733333706855774)
(X_710  0.7811765074729919)
(X_711  0.7890196442604065)
(X_712  0.7929412126541138)
(X_713  0.7890196442604065)
(X_714  0.7890196442604065)
(X_715  0.7850980758666992)
(X_716  0.7011764645576477)
(X_717  0.6815686225891113)
(X_718  0.7498039603233337)
(X_719  0.7576470971107483)
(X_720  0.7576470971107483)
(X_721  0.661960780620575)
(X_722  0.6541176438331604)
(X_723  0.661960780620575)
(X_724  0.661960780620575)
(X_725  0.6070588231086731)
(X_726  0.5325490236282349)
(X_727  0.4894118010997772)
(X_728  0.6227450966835022)
(X_729  0.6305882334709167)
(X_730  0.6501960754394531)
(X_731  0.7458823919296265)
(X_732  0.7576470971107483)
(X_733  0.7654902338981628)
(X_734  0.7654902338981628)
(X_735  0.7654902338981628)
(X_736  0.7576470971107483)
(X_737  0.7615686655044556)
(X_738  0.7694118022918701)
(X_739  0.7772549390792847)
(X_740  0.7811765074729919)
(X_741  0.7772549390792847)
(X_742  0.7772549390792847)
(X_743  0.7733333706855774)
(X_744  0.7811765074729919)
(X_745  0.7615686655044556)
(X_746  0.753725528717041)
(X_747  0.7654902338981628)
(X_748  0.7694118022918701)
(X_749  0.7576470971107483)
(X_750  0.6698039174079895)
(X_751  0.753725528717041)
(X_752  0.6698039174079895)
(X_753  0.6462745070457458)
(X_754  0.6949020028114319)
(X_755  0.5874509811401367)
(X_756  0.634509801864624)
(X_757  0.6462745070457458)
(X_758  0.7419608235359192)
(X_759  0.7576470971107483)
(X_760  0.7694118022918701)
(X_761  0.7694118022918701)
(X_762  0.7654902338981628)
(X_763  0.7654902338981628)
(X_764  0.7380392551422119)
(X_765  0.7419608235359192)
(X_766  0.7498039603233337)
(X_767  0.7576470971107483)
(X_768  0.7576470971107483)
(X_769  0.7576470971107483)
(X_770  0.753725528717041)
(X_771  0.6737254858016968)
(X_772  0.7733333706855774)
(X_773  0.7576470971107483)
(X_774  0.753725528717041)
(X_775  0.7694118022918701)
(X_776  0.7733333706855774)
(X_777  0.7654902338981628)
(X_778  0.7576470971107483)
(X_779  0.7615686655044556)
(X_780  0.7341176867485046)
(X_781  0.7301961183547974)
(X_782  0.6384313702583313)
(X_783  0.7027451395988464)
(Y_0 -0.2741411626338959))