((X_0  0.18264254927635193)
(X_1  0.19946713745594025)
(X_2  0.2061026692390442)
(X_3  0.20595736801624298)
(X_4  0.2641791105270386)
(X_5  0.29567426443099976)
(X_6  0.36921778321266174)
(X_7  0.3451736867427826)
(X_8  0.48831257224082947)
(X_9  0.6014124155044556)
(X_10  0.6278420686721802)
(X_11  0.7417446970939636)
(X_12  0.7331974506378174)
(X_13  0.710608184337616)
(X_14  0.7577165365219116)
(X_15  0.7063201069831848)
(X_16  0.7453997135162354)
(X_17  0.766207218170166)
(X_18  0.7664993405342102)
(X_19  0.7451592087745667)
(X_20  0.6730328798294067)
(X_21  0.699583888053894)
(X_22  0.5854498147964478)
(X_23  0.5175021886825562)
(X_24  0.4315855801105499)
(X_25  0.3321158289909363)
(X_26  0.08248975872993469)
(X_27  0.019178029149770737)
(X_28  0.23704850673675537)
(X_29  0.26706501841545105)
(X_30  0.2733686566352844)
(X_31  0.31597667932510376)
(X_32  0.41268569231033325)
(X_33  0.3751407563686371)
(X_34  0.38951054215431213)
(X_35  0.4154236614704132)
(X_36  0.43490272760391235)
(X_37  0.5529634952545166)
(X_38  0.5886461138725281)
(X_39  0.6366028785705566)
(X_40  0.6513763666152954)
(X_41  0.6866511702537537)
(X_42  0.754909336566925)
(X_43  0.7411336898803711)
(X_44  0.7055678367614746)
(X_45  0.7162886261940002)
(X_46  0.7528262734413147)
(X_47  0.7488094568252563)
(X_48  0.7395637631416321)
(X_49  0.6541926264762878)
(X_50  0.5669130086898804)
(X_51  0.4984157979488373)
(X_52  0.3467371463775635)
(X_53  0.27654990553855896)
(X_54  0.14580205082893372)
(X_55  0.06877174973487854)
(X_56  0.3048953711986542)
(X_57  0.35107168555259705)
(X_58  0.3940446972846985)
(X_59  0.4114733040332794)
(X_60  0.4389110803604126)
(X_61  0.5144649744033813)
(X_62  0.5529224872589111)
(X_63  0.5778890252113342)
(X_64  0.5576253533363342)
(X_65  0.5799689292907715)
(X_66  0.5676430463790894)
(X_67  0.596589207649231)
(X_68  0.6366391181945801)
(X_69  0.6882487535476685)
(X_70  0.7136996388435364)
(X_71  0.6687623262405396)
(X_72  0.6903474926948547)
(X_73  0.7091081142425537)
(X_74  0.7430242896080017)
(X_75  0.6870204210281372)
(X_76  0.6973578333854675)
(X_77  0.5843112468719482)
(X_78  0.5596590042114258)
(X_79  0.41120949387550354)
(X_80  0.3128730356693268)
(X_81  0.31792211532592773)
(X_82  0.1869441419839859)
(X_83  0.1568765938282013)
(X_84  0.381068617105484)
(X_85  0.44836097955703735)
(X_86  0.4451761245727539)
(X_87  0.4252813458442688)
(X_88  0.5089697241783142)
(X_89  0.5151510238647461)
(X_90  0.5826539993286133)
(X_91  0.6206488609313965)
(X_92  0.6733628511428833)
(X_93  0.6670147776603699)
(X_94  0.6831124424934387)
(X_95  0.6872414946556091)
(X_96  0.7016732692718506)
(X_97  0.6432958841323853)
(X_98  0.6937910318374634)
(X_99  0.6308848857879639)
(X_100  0.6496034264564514)
(X_101  0.6577596068382263)
(X_102  0.6667220592498779)
(X_103  0.6240233182907104)
(X_104  0.6058719158172607)
(X_105  0.5376509428024292)
(X_106  0.4808711111545563)
(X_107  0.48038601875305176)
(X_108  0.4386967420578003)
(X_109  0.38965827226638794)
(X_110  0.2765163779258728)
(X_111  0.2447321116924286)
(X_112  0.4554184675216675)
(X_113  0.4819985628128052)
(X_114  0.5142048001289368)
(X_115  0.476010262966156)
(X_116  0.4538857936859131)
(X_117  0.5542484521865845)
(X_118  0.6174647808074951)
(X_119  0.663008451461792)
(X_120  0.6719823479652405)
(X_121  0.6610278487205505)
(X_122  0.660986602306366)
(X_123  0.673964262008667)
(X_124  0.663783609867096)
(X_125  0.6740131974220276)
(X_126  0.7146260142326355)
(X_127  0.6644162535667419)
(X_128  0.6139029264450073)
(X_129  0.6466524004936218)
(X_130  0.6862845420837402)
(X_131  0.6806759834289551)
(X_132  0.6690133810043335)
(X_133  0.6160666942596436)
(X_134  0.5760345458984375)
(X_135  0.5433053970336914)
(X_136  0.5367313027381897)
(X_137  0.5037151575088501)
(X_138  0.44715335965156555)
(X_139  0.40338510274887085)
(X_140  0.4013406038284302)
(X_141  0.5039740800857544)
(X_142  0.6248697638511658)
(X_143  0.6148964166641235)
(X_144  0.5930774807929993)
(X_145  0.6016687750816345)
(X_146  0.6760079264640808)
(X_147  0.7011082172393799)
(X_148  0.6588284373283386)
(X_149  0.640788733959198)
(X_150  0.617462694644928)
(X_151  0.7049314379692078)
(X_152  0.7245582938194275)
(X_153  0.7343490123748779)
(X_154  0.7067599296569824)
(X_155  0.7488943338394165)
(X_156  0.7052205204963684)
(X_157  0.6654353141784668)
(X_158  0.7073299884796143)
(X_159  0.6761517524719238)
(X_160  0.6000422239303589)
(X_161  0.651326060295105)
(X_162  0.6641018390655518)
(X_163  0.6830981969833374)
(X_164  0.5772547125816345)
(X_165  0.5159186124801636)
(X_166  0.5178263187408447)
(X_167  0.43718191981315613)
(X_168  0.44452235102653503)
(X_169  0.5506935119628906)
(X_170  0.607185423374176)
(X_171  0.7044574022293091)
(X_172  0.7098891139030457)
(X_173  0.6829609870910645)
(X_174  0.6582536697387695)
(X_175  0.6132232546806335)
(X_176  0.6304939985275269)
(X_177  0.6172499060630798)
(X_178  0.6737400889396667)
(X_179  0.6850605607032776)
(X_180  0.7260001301765442)
(X_181  0.6977086067199707)
(X_182  0.7014608383178711)
(X_183  0.7185642719268799)
(X_184  0.7152307629585266)
(X_185  0.72980135679245)
(X_186  0.6546210646629333)
(X_187  0.6722348928451538)
(X_188  0.6454487442970276)
(X_189  0.6274114847183228)
(X_190  0.6214450597763062)
(X_191  0.6558735966682434)
(X_192  0.6070013046264648)
(X_193  0.5432925224304199)
(X_194  0.4647696614265442)
(X_195  0.4469260573387146)
(X_196  0.5157938003540039)
(X_197  0.5664914846420288)
(X_198  0.6604887843132019)
(X_199  0.657731294631958)
(X_200  0.6779077053070068)
(X_201  0.7131998538970947)
(X_202  0.612987220287323)
(X_203  0.5783320665359497)
(X_204  0.5572449564933777)
(X_205  0.577400267124176)
(X_206  0.6305333375930786)
(X_207  0.6605969667434692)
(X_208  0.6536991596221924)
(X_209  0.688501238822937)
(X_210  0.740105152130127)
(X_211  0.6995342969894409)
(X_212  0.6894928216934204)
(X_213  0.7223418951034546)
(X_214  0.6233251690864563)
(X_215  0.6353908181190491)
(X_216  0.6000521779060364)
(X_217  0.6364601254463196)
(X_218  0.6400882005691528)
(X_219  0.6916429996490479)
(X_220  0.6323686242103577)
(X_221  0.5626387596130371)
(X_222  0.5768628120422363)
(X_223  0.5239253044128418)
(X_224  0.5100187063217163)
(X_225  0.5810067653656006)
(X_226  0.6699828505516052)
(X_227  0.7086353898048401)
(X_228  0.6739153265953064)
(X_229  0.6567268967628479)
(X_230  0.6056652069091797)
(X_231  0.6123587489128113)
(X_232  0.4952290952205658)
(X_233  0.5632233619689941)
(X_234  0.6128333210945129)
(X_235  0.6918347477912903)
(X_236  0.721207857131958)
(X_237  0.7391679883003235)
(X_238  0.7318156361579895)
(X_239  0.6794674396514893)
(X_240  0.717979371547699)
(X_241  0.6429799795150757)
(X_242  0.6306377649307251)
(X_243  0.6632223129272461)
(X_244  0.6295304298400879)
(X_245  0.5951204299926758)
(X_246  0.6117847561836243)
(X_247  0.63184654712677)
(X_248  0.7028129696846008)
(X_249  0.6350792050361633)
(X_250  0.5844398736953735)
(X_251  0.5847579836845398)
(X_252  0.5370914340019226)
(X_253  0.6738104224205017)
(X_254  0.691529393196106)
(X_255  0.6622150540351868)
(X_256  0.6001222729682922)
(X_257  0.5060796737670898)
(X_258  0.43180274963378906)
(X_259  0.42448773980140686)
(X_260  0.5099266767501831)
(X_261  0.5257036685943604)
(X_262  0.6137118339538574)
(X_263  0.5616403818130493)
(X_264  0.6616984009742737)
(X_265  0.6388293504714966)
(X_266  0.6925395727157593)
(X_267  0.7371482849121094)
(X_268  0.7569770812988281)
(X_269  0.6741613149642944)
(X_270  0.6808096170425415)
(X_271  0.6799086332321167)
(X_272  0.6334109902381897)
(X_273  0.685099184513092)
(X_274  0.646879255771637)
(X_275  0.6034599542617798)
(X_276  0.685335099697113)
(X_277  0.693638801574707)
(X_278  0.6972870230674744)
(X_279  0.6772108674049377)
(X_280  0.5329197645187378)
(X_281  0.6485433578491211)
(X_282  0.7179915904998779)
(X_283  0.6643908619880676)
(X_284  0.6132603287696838)
(X_285  0.49074190855026245)
(X_286  0.39556026458740234)
(X_287  0.37744420766830444)
(X_288  0.504642903804779)
(X_289  0.5694290399551392)
(X_290  0.6163536310195923)
(X_291  0.6157103180885315)
(X_292  0.6371691823005676)
(X_293  0.6980509161949158)
(X_294  0.7270200848579407)
(X_295  0.7385087013244629)
(X_296  0.7706661224365234)
(X_297  0.7322912812232971)
(X_298  0.699256181716919)
(X_299  0.6638479232788086)
(X_300  0.6639862060546875)
(X_301  0.6649416089057922)
(X_302  0.6330545544624329)
(X_303  0.6610075235366821)
(X_304  0.6767611503601074)
(X_305  0.6840831637382507)
(X_306  0.6527770757675171)
(X_307  0.635333240032196)
(X_308  0.6074075698852539)
(X_309  0.6814475059509277)
(X_310  0.7161612510681152)
(X_311  0.6749603748321533)
(X_312  0.5526782870292664)
(X_313  0.4347325265407562)
(X_314  0.4041340947151184)
(X_315  0.41843855381011963)
(X_316  0.4504632353782654)
(X_317  0.5574837327003479)
(X_318  0.5976829528808594)
(X_319  0.6864089965820312)
(X_320  0.7270397543907166)
(X_321  0.7072672843933105)
(X_322  0.7793823480606079)
(X_323  0.7248587608337402)
(X_324  0.7338341474533081)
(X_325  0.7055895924568176)
(X_326  0.7159830927848816)
(X_327  0.7151384949684143)
(X_328  0.7243732810020447)
(X_329  0.7015813589096069)
(X_330  0.6441130042076111)
(X_331  0.702826976776123)
(X_332  0.6994158625602722)
(X_333  0.717961311340332)
(X_334  0.6886630058288574)
(X_335  0.6228415369987488)
(X_336  0.6092323064804077)
(X_337  0.6575530767440796)
(X_338  0.6913881897926331)
(X_339  0.6085807085037231)
(X_340  0.4952932596206665)
(X_341  0.4580473005771637)
(X_342  0.4153670072555542)
(X_343  0.43726956844329834)
(X_344  0.4500362277030945)
(X_345  0.5700615644454956)
(X_346  0.6554573774337769)
(X_347  0.6832733750343323)
(X_348  0.7294080257415771)
(X_349  0.7554461359977722)
(X_350  0.7254042625427246)
(X_351  0.7589362859725952)
(X_352  0.7457775473594666)
(X_353  0.7196013927459717)
(X_354  0.6908090710639954)
(X_355  0.6855370402336121)
(X_356  0.7381860613822937)
(X_357  0.7078341245651245)
(X_358  0.7263197302818298)
(X_359  0.6875931620597839)
(X_360  0.6576582193374634)
(X_361  0.6923016905784607)
(X_362  0.6652083396911621)
(X_363  0.633108377456665)
(X_364  0.6886536478996277)
(X_365  0.6848315596580505)
(X_366  0.6479762196540833)
(X_367  0.5216386914253235)
(X_368  0.483207643032074)
(X_369  0.435383677482605)
(X_370  0.41551288962364197)
(X_371  0.48639386892318726)
(X_372  0.5017153024673462)
(X_373  0.6207444667816162)
(X_374  0.6790552735328674)
(X_375  0.6666057705879211)
(X_376  0.71143639087677)
(X_377  0.73846834897995)
(X_378  0.7799898386001587)
(X_379  0.7265030145645142)
(X_380  0.7332841157913208)
(X_381  0.7644186019897461)
(X_382  0.7475665807723999)
(X_383  0.7133284211158752)
(X_384  0.7056127786636353)
(X_385  0.700095534324646)
(X_386  0.7118169069290161)
(X_387  0.6894749999046326)
(X_388  0.665477454662323)
(X_389  0.6925718188285828)
(X_390  0.71517413854599)
(X_391  0.673969030380249)
(X_392  0.6349491477012634)
(X_393  0.6223375201225281)
(X_394  0.5480935573577881)
(X_395  0.5030980706214905)
(X_396  0.4587465524673462)
(X_397  0.4725128412246704)
(X_398  0.4982686936855316)
(X_399  0.5288906693458557)
(X_400  0.5397998690605164)
(X_401  0.6172339916229248)
(X_402  0.6396359205245972)
(X_403  0.6789405941963196)
(X_404  0.7308831214904785)
(X_405  0.7873843908309937)
(X_406  0.7522255182266235)
(X_407  0.805575430393219)
(X_408  0.754787802696228)
(X_409  0.7537992596626282)
(X_410  0.7678594589233398)
(X_411  0.693791925907135)
(X_412  0.7171967029571533)
(X_413  0.7705252766609192)
(X_414  0.7653458714485168)
(X_415  0.712699294090271)
(X_416  0.6175311207771301)
(X_417  0.7110362648963928)
(X_418  0.6722979545593262)
(X_419  0.6213493943214417)
(X_420  0.6133949160575867)
(X_421  0.6441688537597656)
(X_422  0.5225775241851807)
(X_423  0.49574148654937744)
(X_424  0.43655502796173096)
(X_425  0.45653727650642395)
(X_426  0.4921327233314514)
(X_427  0.5669670104980469)
(X_428  0.5930871367454529)
(X_429  0.6070744395256042)
(X_430  0.7031599283218384)
(X_431  0.701827347278595)
(X_432  0.7153552770614624)
(X_433  0.7912572026252747)
(X_434  0.7769845128059387)
(X_435  0.7200873494148254)
(X_436  0.7273748517036438)
(X_437  0.7115544676780701)
(X_438  0.705242395401001)
(X_439  0.7470570802688599)
(X_440  0.7092976570129395)
(X_441  0.7658208012580872)
(X_442  0.728413462638855)
(X_443  0.7434113025665283)
(X_444  0.6252740621566772)
(X_445  0.7301148772239685)
(X_446  0.7363585233688354)
(X_447  0.67985999584198)
(X_448  0.6021638512611389)
(X_449  0.49240434169769287)
(X_450  0.5201789140701294)
(X_451  0.514211118221283)
(X_452  0.5274419784545898)
(X_453  0.5123849511146545)
(X_454  0.5144624710083008)
(X_455  0.5135737061500549)
(X_456  0.52923184633255)
(X_457  0.5981523394584656)
(X_458  0.670088529586792)
(X_459  0.7571168541908264)
(X_460  0.7453070878982544)
(X_461  0.7546469569206238)
(X_462  0.7333533763885498)
(X_463  0.7355860471725464)
(X_464  0.7324210405349731)
(X_465  0.6941482424736023)
(X_466  0.7566103935241699)
(X_467  0.6884759068489075)
(X_468  0.7488434910774231)
(X_469  0.7404301762580872)
(X_470  0.7364190220832825)
(X_471  0.7204557657241821)
(X_472  0.7556864619255066)
(X_473  0.7257320284843445)
(X_474  0.7181147933006287)
(X_475  0.6809865832328796)
(X_476  0.5945844054222107)
(X_477  0.5590351819992065)
(X_478  0.5216566920280457)
(X_479  0.49135830998420715)
(X_480  0.49623599648475647)
(X_481  0.46774014830589294)
(X_482  0.4373653829097748)
(X_483  0.5003869533538818)
(X_484  0.47705933451652527)
(X_485  0.5818290710449219)
(X_486  0.6483139991760254)
(X_487  0.748750627040863)
(X_488  0.7729399800300598)
(X_489  0.8212044835090637)
(X_490  0.7789082527160645)
(X_491  0.808388888835907)
(X_492  0.7215105295181274)
(X_493  0.7236968874931335)
(X_494  0.7477390170097351)
(X_495  0.7204648852348328)
(X_496  0.6794306039810181)
(X_497  0.7052950859069824)
(X_498  0.7385668754577637)
(X_499  0.7434268593788147)
(X_500  0.6695967316627502)
(X_501  0.6068481206893921)
(X_502  0.6985777020454407)
(X_503  0.6508477926254272)
(X_504  0.5200746059417725)
(X_505  0.4652138352394104)
(X_506  0.47460776567459106)
(X_507  0.5341783165931702)
(X_508  0.5105800628662109)
(X_509  0.513631284236908)
(X_510  0.4667202830314636)
(X_511  0.5262625217437744)
(X_512  0.5472539663314819)
(X_513  0.6450235843658447)
(X_514  0.6456648707389832)
(X_515  0.7181300520896912)
(X_516  0.7807640433311462)
(X_517  0.8147586584091187)
(X_518  0.7719472050666809)
(X_519  0.7565913200378418)
(X_520  0.7331385016441345)
(X_521  0.7200331687927246)
(X_522  0.7720853686332703)
(X_523  0.7070837616920471)
(X_524  0.6875935792922974)
(X_525  0.6901201605796814)
(X_526  0.6716318130493164)
(X_527  0.6731141209602356)
(X_528  0.589925229549408)
(X_529  0.5979529023170471)
(X_530  0.6988182067871094)
(X_531  0.7253891229629517)
(X_532  0.5206634998321533)
(X_533  0.5693591833114624)
(X_534  0.5327398180961609)
(X_535  0.4917046129703522)
(X_536  0.47586697340011597)
(X_537  0.4305307865142822)
(X_538  0.41054561734199524)
(X_539  0.41264909505844116)
(X_540  0.5506540536880493)
(X_541  0.5868073105812073)
(X_542  0.6259827017784119)
(X_543  0.6793254017829895)
(X_544  0.7579070329666138)
(X_545  0.7722337245941162)
(X_546  0.7143625617027283)
(X_547  0.7588204741477966)
(X_548  0.7751900553703308)
(X_549  0.7615658640861511)
(X_550  0.759807288646698)
(X_551  0.6885537505149841)
(X_552  0.7274953126907349)
(X_553  0.7043701410293579)
(X_554  0.6720592379570007)
(X_555  0.6986188292503357)
(X_556  0.6775978803634644)
(X_557  0.6428803205490112)
(X_558  0.6639525890350342)
(X_559  0.6666294932365417)
(X_560  0.47293850779533386)
(X_561  0.5117868781089783)
(X_562  0.5130719542503357)
(X_563  0.5037844777107239)
(X_564  0.5275987982749939)
(X_565  0.49493709206581116)
(X_566  0.5031709671020508)
(X_567  0.5079885125160217)
(X_568  0.5105765461921692)
(X_569  0.6246735453605652)
(X_570  0.6581459045410156)
(X_571  0.667131781578064)
(X_572  0.7163318991661072)
(X_573  0.7876555919647217)
(X_574  0.7255818247795105)
(X_575  0.7655304074287415)
(X_576  0.7096133232116699)
(X_577  0.7005180716514587)
(X_578  0.7683179378509521)
(X_579  0.7130875587463379)
(X_580  0.7164319157600403)
(X_581  0.749089241027832)
(X_582  0.6822959184646606)
(X_583  0.6439038515090942)
(X_584  0.6291608214378357)
(X_585  0.5943279266357422)
(X_586  0.6325303912162781)
(X_587  0.7181074023246765)
(X_588  0.43838945031166077)
(X_589  0.41179776191711426)
(X_590  0.5363593101501465)
(X_591  0.5245524048805237)
(X_592  0.5820843577384949)
(X_593  0.5815274119377136)
(X_594  0.555975079536438)
(X_595  0.6137033700942993)
(X_596  0.5981214046478271)
(X_597  0.6259008049964905)
(X_598  0.652762770652771)
(X_599  0.7322474122047424)
(X_600  0.7326132655143738)
(X_601  0.7918878793716431)
(X_602  0.7871350646018982)
(X_603  0.8027433156967163)
(X_604  0.7237765192985535)
(X_605  0.6879853010177612)
(X_606  0.7412140369415283)
(X_607  0.7272660732269287)
(X_608  0.6905110478401184)
(X_609  0.6718990206718445)
(X_610  0.6507615447044373)
(X_611  0.6611295938491821)
(X_612  0.592515230178833)
(X_613  0.5562244653701782)
(X_614  0.6657074093818665)
(X_615  0.7065980434417725)
(X_616  0.44436562061309814)
(X_617  0.4713878035545349)
(X_618  0.5890538096427917)
(X_619  0.5825428366661072)
(X_620  0.5772281885147095)
(X_621  0.5505859851837158)
(X_622  0.5611523389816284)
(X_623  0.6141158938407898)
(X_624  0.6225543022155762)
(X_625  0.681606113910675)
(X_626  0.6868349313735962)
(X_627  0.7267440557479858)
(X_628  0.7818832397460938)
(X_629  0.800478458404541)
(X_630  0.7080866694450378)
(X_631  0.7655719518661499)
(X_632  0.7519529461860657)
(X_633  0.6866118907928467)
(X_634  0.728815495967865)
(X_635  0.6749534606933594)
(X_636  0.7124406099319458)
(X_637  0.6107199192047119)
(X_638  0.5827161073684692)
(X_639  0.5978833436965942)
(X_640  0.5601075887680054)
(X_641  0.5098698735237122)
(X_642  0.6453325748443604)
(X_643  0.7334088683128357)
(X_644  0.40070539712905884)
(X_645  0.49223798513412476)
(X_646  0.5203331112861633)
(X_647  0.5067788362503052)
(X_648  0.5488142967224121)
(X_649  0.5757679343223572)
(X_650  0.5487401485443115)
(X_651  0.6246198415756226)
(X_652  0.6722244024276733)
(X_653  0.686734676361084)
(X_654  0.7236521244049072)
(X_655  0.7056750655174255)
(X_656  0.7512567043304443)
(X_657  0.7767664790153503)
(X_658  0.7348211407661438)
(X_659  0.788870632648468)
(X_660  0.7422580718994141)
(X_661  0.6513304710388184)
(X_662  0.6511574983596802)
(X_663  0.6704056262969971)
(X_664  0.6355908513069153)
(X_665  0.5408483147621155)
(X_666  0.5286774635314941)
(X_667  0.5309634804725647)
(X_668  0.5558479428291321)
(X_669  0.5177353024482727)
(X_670  0.5682092905044556)
(X_671  0.6515573859214783)
(X_672  0.5203255414962769)
(X_673  0.5942646861076355)
(X_674  0.621715247631073)
(X_675  0.6906658411026001)
(X_676  0.6959139108657837)
(X_677  0.7068176865577698)
(X_678  0.6486091613769531)
(X_679  0.6360964775085449)
(X_680  0.6848738789558411)
(X_681  0.6501722931861877)
(X_682  0.6790596842765808)
(X_683  0.7359538078308105)
(X_684  0.7733904719352722)
(X_685  0.7806249856948853)
(X_686  0.786353349685669)
(X_687  0.7749614715576172)
(X_688  0.7249684929847717)
(X_689  0.747846782207489)
(X_690  0.7012714743614197)
(X_691  0.6524661183357239)
(X_692  0.6313526630401611)
(X_693  0.636888861656189)
(X_694  0.6013517379760742)
(X_695  0.5844266414642334)
(X_696  0.5204751491546631)
(X_697  0.5525000095367432)
(X_698  0.5594318509101868)
(X_699  0.5468090772628784)
(X_700  0.656928300857544)
(X_701  0.6611028909683228)
(X_702  0.7086207270622253)
(X_703  0.7544395327568054)
(X_704  0.7562900185585022)
(X_705  0.6943137049674988)
(X_706  0.6839345693588257)
(X_707  0.707356870174408)
(X_708  0.7215917110443115)
(X_709  0.6642165184020996)
(X_710  0.7185664772987366)
(X_711  0.725742757320404)
(X_712  0.7534816861152649)
(X_713  0.7927567362785339)
(X_714  0.7501280903816223)
(X_715  0.7505505681037903)
(X_716  0.774385392665863)
(X_717  0.7623690366744995)
(X_718  0.7252916693687439)
(X_719  0.696601390838623)
(X_720  0.6868837475776672)
(X_721  0.7024469971656799)
(X_722  0.6094707250595093)
(X_723  0.6319069266319275)
(X_724  0.5773648023605347)
(X_725  0.6120110154151917)
(X_726  0.6124573945999146)
(X_727  0.5804463624954224)
(X_728  0.7458611726760864)
(X_729  0.718864381313324)
(X_730  0.7798396348953247)
(X_731  0.7266501188278198)
(X_732  0.7427087426185608)
(X_733  0.7586806416511536)
(X_734  0.7136316299438477)
(X_735  0.7095770239830017)
(X_736  0.7136192917823792)
(X_737  0.6908383369445801)
(X_738  0.7429569959640503)
(X_739  0.7697726488113403)
(X_740  0.7349312901496887)
(X_741  0.7937898635864258)
(X_742  0.777258038520813)
(X_743  0.7614866495132446)
(X_744  0.7596294283866882)
(X_745  0.780524730682373)
(X_746  0.7343946099281311)
(X_747  0.7752618789672852)
(X_748  0.7162265181541443)
(X_749  0.7400773167610168)
(X_750  0.6857374906539917)
(X_751  0.6941884756088257)
(X_752  0.5973628163337708)
(X_753  0.61469966173172)
(X_754  0.6087098717689514)
(X_755  0.6387666463851929)
(X_756  0.7189180254936218)
(X_757  0.715853750705719)
(X_758  0.7680075764656067)
(X_759  0.7524723410606384)
(X_760  0.745172381401062)
(X_761  0.7575234174728394)
(X_762  0.7525661587715149)
(X_763  0.7017789483070374)
(X_764  0.7081795334815979)
(X_765  0.7461251020431519)
(X_766  0.7734472155570984)
(X_767  0.7516175508499146)
(X_768  0.7602938413619995)
(X_769  0.8061462640762329)
(X_770  0.7399560213088989)
(X_771  0.7140355110168457)
(X_772  0.7546977996826172)
(X_773  0.7306153774261475)
(X_774  0.7323727607727051)
(X_775  0.7240206003189087)
(X_776  0.700700044631958)
(X_777  0.7329851984977722)
(X_778  0.7016299366950989)
(X_779  0.7227822542190552)
(X_780  0.6937942504882812)
(X_781  0.6616610288619995)
(X_782  0.6290907263755798)
(X_783  0.6404673457145691)
(Y_0 -0.005948156118392944))