((X_0  0.1286274492740631)
(X_1  0.13254901766777039)
(X_2  0.1796078383922577)
(X_3  0.2580392360687256)
(X_4  0.32862746715545654)
(X_5  0.3678431510925293)
(X_6  0.3874509930610657)
(X_7  0.3992156982421875)
(X_8  0.434509813785553)
(X_9  0.49490195512771606)
(X_10  0.4870588183403015)
(X_11  0.4399999976158142)
(X_12  0.3772549033164978)
(X_13  0.35372549295425415)
(X_14  0.32235294580459595)
(X_15  0.251764714717865)
(X_16  0.2635294198989868)
(X_17  0.24000000953674316)
(X_18  0.25960785150527954)
(X_19  0.30666667222976685)
(X_20  0.30666667222976685)
(X_21  0.17176470160484314)
(X_22  0.1443137228488922)
(X_23  0.1599999964237213)
(X_24  0.19921568036079407)
(X_25  0.18745097517967224)
(X_26  0.27529412508010864)
(X_27  0.30666667222976685)
(X_28  0.2203921675682068)
(X_29  0.2321568727493286)
(X_30  0.20313724875450134)
(X_31  0.2894117832183838)
(X_32  0.35607844591140747)
(X_33  0.3678431510925293)
(X_34  0.34431374073028564)
(X_35  0.32470589876174927)
(X_36  0.34431374073028564)
(X_37  0.320784330368042)
(X_38  0.3968627452850342)
(X_39  0.3811764717102051)
(X_40  0.365490198135376)
(X_41  0.3968627452850342)
(X_42  0.40470588207244873)
(X_43  0.35372549295425415)
(X_44  0.3576470613479614)
(X_45  0.36941176652908325)
(X_46  0.3615686297416687)
(X_47  0.24627451598644257)
(X_48  0.20313724875450134)
(X_49  0.1796078383922577)
(X_50  0.17568626999855042)
(X_51  0.18352940678596497)
(X_52  0.17568626999855042)
(X_53  0.16784313321113586)
(X_54  0.2674509882926941)
(X_55  0.3105882406234741)
(X_56  0.18117648363113403)
(X_57  0.10117647796869278)
(X_58  0.1482352912425995)
(X_59  0.2423529475927353)
(X_60  0.320784330368042)
(X_61  0.34039217233657837)
(X_62  0.30901962518692017)
(X_63  0.28156864643096924)
(X_64  0.29725492000579834)
(X_65  0.27764707803726196)
(X_66  0.35372549295425415)
(X_67  0.3419607877731323)
(X_68  0.3458823561668396)
(X_69  0.4125490188598633)
(X_70  0.4399999976158142)
(X_71  0.3968627452850342)
(X_72  0.2894117832183838)
(X_73  0.41647058725357056)
(X_74  0.40078431367874146)
(X_75  0.3105882406234741)
(X_76  0.1639215648174286)
(X_77  0.1796078383922577)
(X_78  0.2109804004430771)
(X_79  0.21882353723049164)
(X_80  0.16784313321113586)
(X_81  0.24000000953674316)
(X_82  0.251764714717865)
(X_83  0.294901967048645)
(X_84  0.2007843255996704)
(X_85  0.09333334118127823)
(X_86  0.10509804636240005)
(X_87  0.17176470160484314)
(X_88  0.3262745141983032)
(X_89  0.27764707803726196)
(X_90  0.2698039412498474)
(X_91  0.33803921937942505)
(X_92  0.3576470613479614)
(X_93  0.365490198135376)
(X_94  0.38509804010391235)
(X_95  0.2894117832183838)
(X_96  0.27764707803726196)
(X_97  0.32862746715545654)
(X_98  0.3482353091239929)
(X_99  0.29725492000579834)
(X_100  0.294901967048645)
(X_101  0.3419607877731323)
(X_102  0.3458823561668396)
(X_103  0.29098039865493774)
(X_104  0.25960785150527954)
(X_105  0.29098039865493774)
(X_106  0.3419607877731323)
(X_107  0.365490198135376)
(X_108  0.19137254357337952)
(X_109  0.24784314632415771)
(X_110  0.24000000953674316)
(X_111  0.25960785150527954)
(X_112  0.30274510383605957)
(X_113  0.2674509882926941)
(X_114  0.16784313321113586)
(X_115  0.18745097517967224)
(X_116  0.21490196883678436)
(X_117  0.294901967048645)
(X_118  0.2831372618675232)
(X_119  0.27529412508010864)
(X_120  0.30666667222976685)
(X_121  0.3615686297416687)
(X_122  0.4282352924346924)
(X_123  0.34431374073028564)
(X_124  0.3168627619743347)
(X_125  0.34431374073028564)
(X_126  0.34431374073028564)
(X_127  0.27764707803726196)
(X_128  0.251764714717865)
(X_129  0.2674509882926941)
(X_130  0.29098039865493774)
(X_131  0.3145098090171814)
(X_132  0.3301960825920105)
(X_133  0.35372549295425415)
(X_134  0.38901960849761963)
(X_135  0.42039215564727783)
(X_136  0.2266666740179062)
(X_137  0.2674509882926941)
(X_138  0.2321568727493286)
(X_139  0.22823530435562134)
(X_140  0.2423529475927353)
(X_141  0.31843137741088867)
(X_142  0.31843137741088867)
(X_143  0.2423529475927353)
(X_144  0.21882353723049164)
(X_145  0.25568628311157227)
(X_146  0.22823530435562134)
(X_147  0.2203921675682068)
(X_148  0.28705883026123047)
(X_149  0.36941176652908325)
(X_150  0.4556862711906433)
(X_151  0.3796078562736511)
(X_152  0.34039217233657837)
(X_153  0.34431374073028564)
(X_154  0.3929411768913269)
(X_155  0.294901967048645)
(X_156  0.2360784411430359)
(X_157  0.2360784411430359)
(X_158  0.2674509882926941)
(X_159  0.31843137741088867)
(X_160  0.35372549295425415)
(X_161  0.365490198135376)
(X_162  0.3772549033164978)
(X_163  0.38901960849761963)
(X_164  0.3145098090171814)
(X_165  0.27137255668640137)
(X_166  0.2321568727493286)
(X_167  0.2203921675682068)
(X_168  0.29098039865493774)
(X_169  0.3145098090171814)
(X_170  0.3458823561668396)
(X_171  0.3458823561668396)
(X_172  0.29098039865493774)
(X_173  0.22823530435562134)
(X_174  0.20862746238708496)
(X_175  0.22431373596191406)
(X_176  0.29098039865493774)
(X_177  0.27764707803726196)
(X_178  0.3521568775177002)
(X_179  0.35607844591140747)
(X_180  0.3364706039428711)
(X_181  0.34431374073028564)
(X_182  0.28156864643096924)
(X_183  0.22823530435562134)
(X_184  0.2007843255996704)
(X_185  0.22823530435562134)
(X_186  0.24784314632415771)
(X_187  0.25960785150527954)
(X_188  0.29098039865493774)
(X_189  0.3341176509857178)
(X_190  0.3458823561668396)
(X_191  0.3262745141983032)
(X_192  0.2988235354423523)
(X_193  0.25960785150527954)
(X_194  0.2321568727493286)
(X_195  0.22823530435562134)
(X_196  0.30666667222976685)
(X_197  0.3419607877731323)
(X_198  0.3733333349227905)
(X_199  0.35372549295425415)
(X_200  0.27529412508010864)
(X_201  0.20470589399337769)
(X_202  0.20470589399337769)
(X_203  0.24392157793045044)
(X_204  0.25960785150527954)
(X_205  0.23058824241161346)
(X_206  0.29333335161209106)
(X_207  0.31294119358062744)
(X_208  0.32862746715545654)
(X_209  0.4399999976158142)
(X_210  0.3733333349227905)
(X_211  0.22431373596191406)
(X_212  0.0815686285495758)
(X_213  0.22823530435562134)
(X_214  0.24784314632415771)
(X_215  0.20862746238708496)
(X_216  0.2321568727493286)
(X_217  0.31843137741088867)
(X_218  0.3458823561668396)
(X_219  0.30274510383605957)
(X_220  0.2831372618675232)
(X_221  0.251764714717865)
(X_222  0.2321568727493286)
(X_223  0.2360784411430359)
(X_224  0.2988235354423523)
(X_225  0.3341176509857178)
(X_226  0.365490198135376)
(X_227  0.3301960825920105)
(X_228  0.2674509882926941)
(X_229  0.27529412508010864)
(X_230  0.20705881714820862)
(X_231  0.17176470160484314)
(X_232  0.2423529475927353)
(X_233  0.28156864643096924)
(X_234  0.28156864643096924)
(X_235  0.30901962518692017)
(X_236  0.3050980567932129)
(X_237  0.40078431367874146)
(X_238  0.43215686082839966)
(X_239  0.26196080446243286)
(X_240  0.10117647796869278)
(X_241  0.1482352912425995)
(X_242  0.17176470160484314)
(X_243  0.1639215648174286)
(X_244  0.2674509882926941)
(X_245  0.3262745141983032)
(X_246  0.35372549295425415)
(X_247  0.3419607877731323)
(X_248  0.30666667222976685)
(X_249  0.27137255668640137)
(X_250  0.22431373596191406)
(X_251  0.19294118881225586)
(X_252  0.31843137741088867)
(X_253  0.38509804010391235)
(X_254  0.408627450466156)
(X_255  0.3576470613479614)
(X_256  0.30666667222976685)
(X_257  0.28705883026123047)
(X_258  0.2792156934738159)
(X_259  0.19137254357337952)
(X_260  0.20705881714820862)
(X_261  0.25019609928131104)
(X_262  0.26196080446243286)
(X_263  0.3050980567932129)
(X_264  0.3168627619743347)
(X_265  0.4243137240409851)
(X_266  0.46745097637176514)
(X_267  0.3050980567932129)
(X_268  0.18352940678596497)
(X_269  0.1952941119670868)
(X_270  0.19137254357337952)
(X_271  0.17568626999855042)
(X_272  0.18745097517967224)
(X_273  0.3105882406234741)
(X_274  0.3458823561668396)
(X_275  0.3576470613479614)
(X_276  0.29098039865493774)
(X_277  0.24784314632415771)
(X_278  0.19294118881225586)
(X_279  0.16156862676143646)
(X_280  0.25019609928131104)
(X_281  0.3482353091239929)
(X_282  0.42039215564727783)
(X_283  0.3576470613479614)
(X_284  0.3341176509857178)
(X_285  0.294901967048645)
(X_286  0.18352940678596497)
(X_287  0.2227451056241989)
(X_288  0.18745097517967224)
(X_289  0.23843137919902802)
(X_290  0.2698039412498474)
(X_291  0.3325490355491638)
(X_292  0.3521568775177002)
(X_293  0.4596078395843506)
(X_294  0.5066666603088379)
(X_295  0.3482353091239929)
(X_296  0.26588237285614014)
(X_297  0.2266666740179062)
(X_298  0.19137254357337952)
(X_299  0.17568626999855042)
(X_300  0.1796078383922577)
(X_301  0.20313724875450134)
(X_302  0.33803921937942505)
(X_303  0.3929411768913269)
(X_304  0.28705883026123047)
(X_305  0.22823530435562134)
(X_306  0.16549021005630493)
(X_307  0.13411764800548553)
(X_308  0.2580392360687256)
(X_309  0.34431374073028564)
(X_310  0.3733333349227905)
(X_311  0.30274510383605957)
(X_312  0.3262745141983032)
(X_313  0.2109804004430771)
(X_314  0.17176470160484314)
(X_315  0.23450981080532074)
(X_316  0.2109804004430771)
(X_317  0.2698039412498474)
(X_318  0.3168627619743347)
(X_319  0.3952941298484802)
(X_320  0.4109804034233093)
(X_321  0.49490195512771606)
(X_322  0.4501960873603821)
(X_323  0.3717647194862366)
(X_324  0.3050980567932129)
(X_325  0.23058824241161346)
(X_326  0.17176470160484314)
(X_327  0.1639215648174286)
(X_328  0.1599999964237213)
(X_329  0.17568626999855042)
(X_330  0.3301960825920105)
(X_331  0.41647058725357056)
(X_332  0.30274510383605957)
(X_333  0.2360784411430359)
(X_334  0.1576470583677292)
(X_335  0.12627451121807098)
(X_336  0.29725492000579834)
(X_337  0.32862746715545654)
(X_338  0.3105882406234741)
(X_339  0.24000000953674316)
(X_340  0.294901967048645)
(X_341  0.20705881714820862)
(X_342  0.17176470160484314)
(X_343  0.23058824241161346)
(X_344  0.23450981080532074)
(X_345  0.29725492000579834)
(X_346  0.36000001430511475)
(X_347  0.45411765575408936)
(X_348  0.4619608223438263)
(X_349  0.5262745022773743)
(X_350  0.5458824038505554)
(X_351  0.46745097637176514)
(X_352  0.32862746715545654)
(X_353  0.2423529475927353)
(X_354  0.17176470160484314)
(X_355  0.1599999964237213)
(X_356  0.1482352912425995)
(X_357  0.15215685963630676)
(X_358  0.2227451056241989)
(X_359  0.3968627452850342)
(X_360  0.3262745141983032)
(X_361  0.251764714717865)
(X_362  0.16549021005630493)
(X_363  0.12627451121807098)
(X_364  0.34431374073028564)
(X_365  0.3929411768913269)
(X_366  0.27529412508010864)
(X_367  0.21254903078079224)
(X_368  0.18745097517967224)
(X_369  0.20705881714820862)
(X_370  0.20313724875450134)
(X_371  0.24627451598644257)
(X_372  0.2580392360687256)
(X_373  0.320784330368042)
(X_374  0.3874509930610657)
(X_375  0.4894118010997772)
(X_376  0.4933333694934845)
(X_377  0.5458824038505554)
(X_378  0.5654902458190918)
(X_379  0.49490195512771606)
(X_380  0.4439215660095215)
(X_381  0.2894117832183838)
(X_382  0.2227451056241989)
(X_383  0.19137254357337952)
(X_384  0.1639215648174286)
(X_385  0.1482352912425995)
(X_386  0.1952941119670868)
(X_387  0.26588237285614014)
(X_388  0.3419607877731323)
(X_389  0.27137255668640137)
(X_390  0.17725491523742676)
(X_391  0.12627451121807098)
(X_392  0.34039217233657837)
(X_393  0.3498039245605469)
(X_394  0.2635294198989868)
(X_395  0.14039215445518494)
(X_396  0.16784313321113586)
(X_397  0.21882353723049164)
(X_398  0.26196080446243286)
(X_399  0.29333335161209106)
(X_400  0.30901962518692017)
(X_401  0.363921582698822)
(X_402  0.4188235402107239)
(X_403  0.5090196132659912)
(X_404  0.5850980877876282)
(X_405  0.5576471090316772)
(X_406  0.5850980877876282)
(X_407  0.5301960706710815)
(X_408  0.4031372666358948)
(X_409  0.3521568775177002)
(X_410  0.29725492000579834)
(X_411  0.25019609928131104)
(X_412  0.2109804004430771)
(X_413  0.18745097517967224)
(X_414  0.20313724875450134)
(X_415  0.23843137919902802)
(X_416  0.2854902148246765)
(X_417  0.294901967048645)
(X_418  0.2007843255996704)
(X_419  0.13411764800548553)
(X_420  0.3050980567932129)
(X_421  0.30666667222976685)
(X_422  0.251764714717865)
(X_423  0.15607842803001404)
(X_424  0.1599999964237213)
(X_425  0.2266666740179062)
(X_426  0.31294119358062744)
(X_427  0.34431374073028564)
(X_428  0.3717647194862366)
(X_429  0.40705883502960205)
(X_430  0.4462745189666748)
(X_431  0.5247058868408203)
(X_432  0.5129411816596985)
(X_433  0.5615686774253845)
(X_434  0.59686279296875)
(X_435  0.5498039722442627)
(X_436  0.5027450919151306)
(X_437  0.3952941298484802)
(X_438  0.3482353091239929)
(X_439  0.29725492000579834)
(X_440  0.2541176676750183)
(X_441  0.30666667222976685)
(X_442  0.2266666740179062)
(X_443  0.23843137919902802)
(X_444  0.3050980567932129)
(X_445  0.31843137741088867)
(X_446  0.22431373596191406)
(X_447  0.14980392158031464)
(X_448  0.2737255096435547)
(X_449  0.29098039865493774)
(X_450  0.24392157793045044)
(X_451  0.1639215648174286)
(X_452  0.1952941119670868)
(X_453  0.23843137919902802)
(X_454  0.29333335161209106)
(X_455  0.34431374073028564)
(X_456  0.39137256145477295)
(X_457  0.4266666769981384)
(X_458  0.4737255275249481)
(X_459  0.5050980448722839)
(X_460  0.6047059297561646)
(X_461  0.6086274981498718)
(X_462  0.5890196561813354)
(X_463  0.4894118010997772)
(X_464  0.4462745189666748)
(X_465  0.3874509930610657)
(X_466  0.32470589876174927)
(X_467  0.29333335161209106)
(X_468  0.2737255096435547)
(X_469  0.2423529475927353)
(X_470  0.20705881714820862)
(X_471  0.1952941119670868)
(X_472  0.2894117832183838)
(X_473  0.40470588207244873)
(X_474  0.22823530435562134)
(X_475  0.1576470583677292)
(X_476  0.30901962518692017)
(X_477  0.3301960825920105)
(X_478  0.1952941119670868)
(X_479  0.17568626999855042)
(X_480  0.1952941119670868)
(X_481  0.2423529475927353)
(X_482  0.32470589876174927)
(X_483  0.39137256145477295)
(X_484  0.3952941298484802)
(X_485  0.4266666769981384)
(X_486  0.4737255275249481)
(X_487  0.5129411816596985)
(X_488  0.5325490236282349)
(X_489  0.6164706349372864)
(X_490  0.6007843613624573)
(X_491  0.5811765193939209)
(X_492  0.5458824038505554)
(X_493  0.4188235402107239)
(X_494  0.3796078562736511)
(X_495  0.36000001430511475)
(X_496  0.3364706039428711)
(X_497  0.2854902148246765)
(X_498  0.23058824241161346)
(X_499  0.20313724875450134)
(X_500  0.29333335161209106)
(X_501  0.32862746715545654)
(X_502  0.27137255668640137)
(X_503  0.1694117784500122)
(X_504  0.3576470613479614)
(X_505  0.32235294580459595)
(X_506  0.20313724875450134)
(X_507  0.17568626999855042)
(X_508  0.17568626999855042)
(X_509  0.21882353723049164)
(X_510  0.3050980567932129)
(X_511  0.3835294246673584)
(X_512  0.3992156982421875)
(X_513  0.4266666769981384)
(X_514  0.4737255275249481)
(X_515  0.5168627500534058)
(X_516  0.5403921604156494)
(X_517  0.6203922033309937)
(X_518  0.6086274981498718)
(X_519  0.6007843613624573)
(X_520  0.4462745189666748)
(X_521  0.40705883502960205)
(X_522  0.37568628787994385)
(X_523  0.36000001430511475)
(X_524  0.3325490355491638)
(X_525  0.28156864643096924)
(X_526  0.2266666740179062)
(X_527  0.19921568036079407)
(X_528  0.28156864643096924)
(X_529  0.32470589876174927)
(X_530  0.3301960825920105)
(X_531  0.19294118881225586)
(X_532  0.2831372618675232)
(X_533  0.2831372618675232)
(X_534  0.27137255668640137)
(X_535  0.17176470160484314)
(X_536  0.1639215648174286)
(X_537  0.19921568036079407)
(X_538  0.2737255096435547)
(X_539  0.34039217233657837)
(X_540  0.3992156982421875)
(X_541  0.4188235402107239)
(X_542  0.46588239073753357)
(X_543  0.5168627500534058)
(X_544  0.5443137288093567)
(X_545  0.6203922033309937)
(X_546  0.6125490665435791)
(X_547  0.6125490665435791)
(X_548  0.4933333694934845)
(X_549  0.4501960873603821)
(X_550  0.4031372666358948)
(X_551  0.3796078562736511)
(X_552  0.3521568775177002)
(X_553  0.31294119358062744)
(X_554  0.27764707803726196)
(X_555  0.26588237285614014)
(X_556  0.2227451056241989)
(X_557  0.29333335161209106)
(X_558  0.3772549033164978)
(X_559  0.22823530435562134)
(X_560  0.2635294198989868)
(X_561  0.2674509882926941)
(X_562  0.1796078383922577)
(X_563  0.1639215648174286)
(X_564  0.17176470160484314)
(X_565  0.21882353723049164)
(X_566  0.29725492000579834)
(X_567  0.35607844591140747)
(X_568  0.3992156982421875)
(X_569  0.4149019718170166)
(X_570  0.45803922414779663)
(X_571  0.5168627500534058)
(X_572  0.5443137288093567)
(X_573  0.6164706349372864)
(X_574  0.6086274981498718)
(X_575  0.6164706349372864)
(X_576  0.4933333694934845)
(X_577  0.45411765575408936)
(X_578  0.40705883502960205)
(X_579  0.37568628787994385)
(X_580  0.34039217233657837)
(X_581  0.2894117832183838)
(X_582  0.25019609928131104)
(X_583  0.23450981080532074)
(X_584  0.1443137228488922)
(X_585  0.23843137919902802)
(X_586  0.3929411768913269)
(X_587  0.2831372618675232)
(X_588  0.27137255668640137)
(X_589  0.2635294198989868)
(X_590  0.1639215648174286)
(X_591  0.2321568727493286)
(X_592  0.2674509882926941)
(X_593  0.3458823561668396)
(X_594  0.4282352924346924)
(X_595  0.4752941131591797)
(X_596  0.4870588183403015)
(X_597  0.4149019718170166)
(X_598  0.45803922414779663)
(X_599  0.520784318447113)
(X_600  0.5443137288093567)
(X_601  0.6125490665435791)
(X_602  0.6086274981498718)
(X_603  0.6243137717247009)
(X_604  0.4501960873603821)
(X_605  0.4266666769981384)
(X_606  0.3992156982421875)
(X_607  0.3717647194862366)
(X_608  0.3168627619743347)
(X_609  0.23843137919902802)
(X_610  0.16784313321113586)
(X_611  0.13647058606147766)
(X_612  0.18901962041854858)
(X_613  0.27137255668640137)
(X_614  0.3615686297416687)
(X_615  0.33803921937942505)
(X_616  0.251764714717865)
(X_617  0.24784314632415771)
(X_618  0.24392157793045044)
(X_619  0.2635294198989868)
(X_620  0.3341176509857178)
(X_621  0.4243137240409851)
(X_622  0.4713725447654724)
(X_623  0.47921568155288696)
(X_624  0.42274510860443115)
(X_625  0.5027450919151306)
(X_626  0.4619608223438263)
(X_627  0.5286274552345276)
(X_628  0.5521568655967712)
(X_629  0.6125490665435791)
(X_630  0.5286274552345276)
(X_631  0.548235297203064)
(X_632  0.48549023270606995)
(X_633  0.46588239073753357)
(X_634  0.44235295057296753)
(X_635  0.4149019718170166)
(X_636  0.35607844591140747)
(X_637  0.2698039412498474)
(X_638  0.19921568036079407)
(X_639  0.16784313321113586)
(X_640  0.2203921675682068)
(X_641  0.25568628311157227)
(X_642  0.30666667222976685)
(X_643  0.36941176652908325)
(X_644  0.22823530435562134)
(X_645  0.24392157793045044)
(X_646  0.27529412508010864)
(X_647  0.3301960825920105)
(X_648  0.4243137240409851)
(X_649  0.5027450919151306)
(X_650  0.5066666603088379)
(X_651  0.39137256145477295)
(X_652  0.434509813785553)
(X_653  0.4305882453918457)
(X_654  0.46588239073753357)
(X_655  0.6125490665435791)
(X_656  0.64000004529953)
(X_657  0.6164706349372864)
(X_658  0.6125490665435791)
(X_659  0.6360784769058228)
(X_660  0.48549023270606995)
(X_661  0.45411765575408936)
(X_662  0.4188235402107239)
(X_663  0.3835294246673584)
(X_664  0.4125490188598633)
(X_665  0.26588237285614014)
(X_666  0.21882353723049164)
(X_667  0.20313724875450134)
(X_668  0.1952941119670868)
(X_669  0.1796078383922577)
(X_670  0.2674509882926941)
(X_671  0.3811764717102051)
(X_672  0.22823530435562134)
(X_673  0.2792156934738159)
(X_674  0.365490198135376)
(X_675  0.4596078395843506)
(X_676  0.5105882287025452)
(X_677  0.434509813785553)
(X_678  0.4909803867340088)
(X_679  0.4752941131591797)
(X_680  0.522352933883667)
(X_681  0.5380392074584961)
(X_682  0.45411765575408936)
(X_683  0.5615686774253845)
(X_684  0.6164706349372864)
(X_685  0.6243137717247009)
(X_686  0.6086274981498718)
(X_687  0.6282353401184082)
(X_688  0.4933333694934845)
(X_689  0.46588239073753357)
(X_690  0.43843138217926025)
(X_691  0.49882352352142334)
(X_692  0.37568628787994385)
(X_693  0.3168627619743347)
(X_694  0.2698039412498474)
(X_695  0.25019609928131104)
(X_696  0.28156864643096924)
(X_697  0.24627451598644257)
(X_698  0.23058824241161346)
(X_699  0.25019609928131104)
(X_700  0.2988235354423523)
(X_701  0.3498039245605469)
(X_702  0.4243137240409851)
(X_703  0.4870588183403015)
(X_704  0.5184313654899597)
(X_705  0.522352933883667)
(X_706  0.5262745022773743)
(X_707  0.4501960873603821)
(X_708  0.5576471090316772)
(X_709  0.5733333826065063)
(X_710  0.5654902458190918)
(X_711  0.5850980877876282)
(X_712  0.64000004529953)
(X_713  0.6439216136932373)
(X_714  0.6243137717247009)
(X_715  0.6439216136932373)
(X_716  0.5247058868408203)
(X_717  0.4972549378871918)
(X_718  0.5576471090316772)
(X_719  0.5419608354568481)
(X_720  0.5105882287025452)
(X_721  0.3796078562736511)
(X_722  0.34039217233657837)
(X_723  0.32470589876174927)
(X_724  0.3011764883995056)
(X_725  0.26196080446243286)
(X_726  0.24627451598644257)
(X_727  0.26588237285614014)
(X_728  0.29333335161209106)
(X_729  0.34039217233657837)
(X_730  0.3952941298484802)
(X_731  0.5105882287025452)
(X_732  0.522352933883667)
(X_733  0.5341176390647888)
(X_734  0.5576471090316772)
(X_735  0.5772549510002136)
(X_736  0.5850980877876282)
(X_737  0.6086274981498718)
(X_738  0.59686279296875)
(X_739  0.6047059297561646)
(X_740  0.6517647504806519)
(X_741  0.6556863188743591)
(X_742  0.6321569085121155)
(X_743  0.64000004529953)
(X_744  0.6007843613624573)
(X_745  0.5772549510002136)
(X_746  0.5615686774253845)
(X_747  0.5576471090316772)
(X_748  0.5380392074584961)
(X_749  0.49882352352142334)
(X_750  0.3874509930610657)
(X_751  0.4596078395843506)
(X_752  0.32470589876174927)
(X_753  0.28156864643096924)
(X_754  0.3458823561668396)
(X_755  0.2854902148246765)
(X_756  0.32470589876174927)
(X_757  0.36000001430511475)
(X_758  0.47921568155288696)
(X_759  0.5027450919151306)
(X_760  0.522352933883667)
(X_761  0.5498039722442627)
(X_762  0.5733333826065063)
(X_763  0.5811765193939209)
(X_764  0.5929412245750427)
(X_765  0.6164706349372864)
(X_766  0.6007843613624573)
(X_767  0.59686279296875)
(X_768  0.64000004529953)
(X_769  0.6478431820869446)
(X_770  0.6203922033309937)
(X_771  0.5403921604156494)
(X_772  0.5850980877876282)
(X_773  0.5654902458190918)
(X_774  0.55372554063797)
(X_775  0.55372554063797)
(X_776  0.5380392074584961)
(X_777  0.5066666603088379)
(X_778  0.48313724994659424)
(X_779  0.4752941131591797)
(X_780  0.42039215564727783)
(X_781  0.3772549033164978)
(X_782  0.27764707803726196)
(X_783  0.3811764717102051)
(Y_0 -0.5935661792755127))