((X_0  0.3301960825920105)
(X_1  0.408627450466156)
(X_2  0.4556862711906433)
(X_3  0.45176470279693604)
(X_4  0.4556862711906433)
(X_5  0.44784313440322876)
(X_6  0.3576470613479614)
(X_7  0.24000000953674316)
(X_8  0.11843137443065643)
(X_9  0.1286274492740631)
(X_10  0.30901962518692017)
(X_11  0.4462745189666748)
(X_12  0.5639215707778931)
(X_13  0.5952941179275513)
(X_14  0.548235297203064)
(X_15  0.6070588231086731)
(X_16  0.5678431391716003)
(X_17  0.4501960873603821)
(X_18  0.3050980567932129)
(X_19  0.1443137228488922)
(X_20  0.007058825343847275)
(X_21  0.1066666692495346)
(X_22  0.25568628311157227)
(X_23  0.365490198135376)
(X_24  0.38509804010391235)
(X_25  0.3929411768913269)
(X_26  0.32862746715545654)
(X_27  0.34039217233657837)
(X_28  0.2737255096435547)
(X_29  0.35607844591140747)
(X_30  0.49490195512771606)
(X_31  0.4909803867340088)
(X_32  0.4713725447654724)
(X_33  0.4556862711906433)
(X_34  0.40078431367874146)
(X_35  0.3341176509857178)
(X_36  0.31843137741088867)
(X_37  0.3262745141983032)
(X_38  0.32862746715545654)
(X_39  0.4149019718170166)
(X_40  0.5364705920219421)
(X_41  0.591372549533844)
(X_42  0.5443137288093567)
(X_43  0.5835294127464294)
(X_44  0.5403921604156494)
(X_45  0.42274510860443115)
(X_46  0.3168627619743347)
(X_47  0.3145098090171814)
(X_48  0.251764714717865)
(X_49  0.2831372618675232)
(X_50  0.365490198135376)
(X_51  0.408627450466156)
(X_52  0.4713725447654724)
(X_53  0.46352940797805786)
(X_54  0.3717647194862366)
(X_55  0.36000001430511475)
(X_56  0.2854902148246765)
(X_57  0.44784313440322876)
(X_58  0.5262745022773743)
(X_59  0.5458824038505554)
(X_60  0.5262745022773743)
(X_61  0.5145097970962524)
(X_62  0.5145097970962524)
(X_63  0.5184313654899597)
(X_64  0.5184313654899597)
(X_65  0.49882352352142334)
(X_66  0.43843138217926025)
(X_67  0.45411765575408936)
(X_68  0.5286274552345276)
(X_69  0.5678431391716003)
(X_70  0.520784318447113)
(X_71  0.5678431391716003)
(X_72  0.6086274981498718)
(X_73  0.4619608223438263)
(X_74  0.4305882453918457)
(X_75  0.4188235402107239)
(X_76  0.4713725447654724)
(X_77  0.47921568155288696)
(X_78  0.5066666603088379)
(X_79  0.5066666603088379)
(X_80  0.5694118142127991)
(X_81  0.45803922414779663)
(X_82  0.4109804034233093)
(X_83  0.37568628787994385)
(X_84  0.29725492000579834)
(X_85  0.4399999976158142)
(X_86  0.522352933883667)
(X_87  0.5615686774253845)
(X_88  0.48156866431236267)
(X_89  0.5654902458190918)
(X_90  0.5929412245750427)
(X_91  0.5443137288093567)
(X_92  0.5364705920219421)
(X_93  0.5521568655967712)
(X_94  0.5874509811401367)
(X_95  0.6321569085121155)
(X_96  0.6360784769058228)
(X_97  0.6321569085121155)
(X_98  0.5890196561813354)
(X_99  0.6517647504806519)
(X_100  0.5443137288093567)
(X_101  0.5364705920219421)
(X_102  0.5756862759590149)
(X_103  0.5874509811401367)
(X_104  0.5325490236282349)
(X_105  0.4972549378871918)
(X_106  0.5050980448722839)
(X_107  0.5011764764785767)
(X_108  0.6164706349372864)
(X_109  0.48549023270606995)
(X_110  0.4188235402107239)
(X_111  0.3717647194862366)
(X_112  0.29333335161209106)
(X_113  0.34039217233657837)
(X_114  0.48313724994659424)
(X_115  0.5458824038505554)
(X_116  0.5811765193939209)
(X_117  0.5168627500534058)
(X_118  0.5325490236282349)
(X_119  0.5443137288093567)
(X_120  0.5835294127464294)
(X_121  0.5952941179275513)
(X_122  0.6188235282897949)
(X_123  0.6556863188743591)
(X_124  0.6635294556617737)
(X_125  0.6713725924491882)
(X_126  0.6203922033309937)
(X_127  0.667451024055481)
(X_128  0.5796078443527222)
(X_129  0.5639215707778931)
(X_130  0.5992156863212585)
(X_131  0.6227450966835022)
(X_132  0.5796078443527222)
(X_133  0.548235297203064)
(X_134  0.5443137288093567)
(X_135  0.5247058868408203)
(X_136  0.6164706349372864)
(X_137  0.4776470959186554)
(X_138  0.4031372666358948)
(X_139  0.35607844591140747)
(X_140  0.31843137741088867)
(X_141  0.29333335161209106)
(X_142  0.3678431510925293)
(X_143  0.5380392074584961)
(X_144  0.6282353401184082)
(X_145  0.6070588231086731)
(X_146  0.6070588231086731)
(X_147  0.5756862759590149)
(X_148  0.5874509811401367)
(X_149  0.5403921604156494)
(X_150  0.5090196132659912)
(X_151  0.5615686774253845)
(X_152  0.6478431820869446)
(X_153  0.7223529815673828)
(X_154  0.5952941179275513)
(X_155  0.6109803915023804)
(X_156  0.5952941179275513)
(X_157  0.520784318447113)
(X_158  0.5050980448722839)
(X_159  0.5521568655967712)
(X_160  0.5835294127464294)
(X_161  0.6109803915023804)
(X_162  0.6070588231086731)
(X_163  0.5639215707778931)
(X_164  0.5364705920219421)
(X_165  0.46588239073753357)
(X_166  0.3796078562736511)
(X_167  0.3325490355491638)
(X_168  0.17568626999855042)
(X_169  0.2580392360687256)
(X_170  0.35607844591140747)
(X_171  0.45803922414779663)
(X_172  0.5796078443527222)
(X_173  0.6698039174079895)
(X_174  0.6541176438331604)
(X_175  0.5835294127464294)
(X_176  0.4972549378871918)
(X_177  0.5145097970962524)
(X_178  0.46745097637176514)
(X_179  0.45176470279693604)
(X_180  0.5850980877876282)
(X_181  0.710588276386261)
(X_182  0.6988235712051392)
(X_183  0.6423529386520386)
(X_184  0.5129411816596985)
(X_185  0.4188235402107239)
(X_186  0.3874509930610657)
(X_187  0.43843138217926025)
(X_188  0.5129411816596985)
(X_189  0.5992156863212585)
(X_190  0.6462745070457458)
(X_191  0.6266666650772095)
(X_192  0.5403921604156494)
(X_193  0.45803922414779663)
(X_194  0.3521568775177002)
(X_195  0.29333335161209106)
(X_196  0.1599999964237213)
(X_197  0.26196080446243286)
(X_198  0.363921582698822)
(X_199  0.4462745189666748)
(X_200  0.5600000023841858)
(X_201  0.6423529386520386)
(X_202  0.6070588231086731)
(X_203  0.5090196132659912)
(X_204  0.37568628787994385)
(X_205  0.43215686082839966)
(X_206  0.42039215564727783)
(X_207  0.408627450466156)
(X_208  0.5262745022773743)
(X_209  0.5835294127464294)
(X_210  0.6070588231086731)
(X_211  0.6658823490142822)
(X_212  0.46352940797805786)
(X_213  0.3168627619743347)
(X_214  0.30901962518692017)
(X_215  0.3521568775177002)
(X_216  0.4109804034233093)
(X_217  0.5168627500534058)
(X_218  0.6266666650772095)
(X_219  0.6698039174079895)
(X_220  0.548235297203064)
(X_221  0.4501960873603821)
(X_222  0.32862746715545654)
(X_223  0.26196080446243286)
(X_224  0.19137254357337952)
(X_225  0.20313724875450134)
(X_226  0.3325490355491638)
(X_227  0.4894118010997772)
(X_228  0.5796078443527222)
(X_229  0.6501960754394531)
(X_230  0.7027451395988464)
(X_231  0.5772549510002136)
(X_232  0.48313724994659424)
(X_233  0.3811764717102051)
(X_234  0.408627450466156)
(X_235  0.38509804010391235)
(X_236  0.41647058725357056)
(X_237  0.5600000023841858)
(X_238  0.6658823490142822)
(X_239  0.6988235712051392)
(X_240  0.4713725447654724)
(X_241  0.40078431367874146)
(X_242  0.408627450466156)
(X_243  0.4439215660095215)
(X_244  0.4109804034233093)
(X_245  0.5521568655967712)
(X_246  0.6580392122268677)
(X_247  0.634509801864624)
(X_248  0.5756862759590149)
(X_249  0.4776470959186554)
(X_250  0.3168627619743347)
(X_251  0.2227451056241989)
(X_252  0.15607842803001404)
(X_253  0.2109804004430771)
(X_254  0.35607844591140747)
(X_255  0.5129411816596985)
(X_256  0.6031372547149658)
(X_257  0.6031372547149658)
(X_258  0.5050980448722839)
(X_259  0.4556862711906433)
(X_260  0.4439215660095215)
(X_261  0.3576470613479614)
(X_262  0.38901960849761963)
(X_263  0.3733333349227905)
(X_264  0.41647058725357056)
(X_265  0.5600000023841858)
(X_266  0.6698039174079895)
(X_267  0.7184314131736755)
(X_268  0.5027450919151306)
(X_269  0.38509804010391235)
(X_270  0.36941176652908325)
(X_271  0.4243137240409851)
(X_272  0.45176470279693604)
(X_273  0.45803922414779663)
(X_274  0.5874509811401367)
(X_275  0.6423529386520386)
(X_276  0.5835294127464294)
(X_277  0.48549023270606995)
(X_278  0.3168627619743347)
(X_279  0.21490196883678436)
(X_280  0.17725491523742676)
(X_281  0.28705883026123047)
(X_282  0.363921582698822)
(X_283  0.5286274552345276)
(X_284  0.6384313702583313)
(X_285  0.5874509811401367)
(X_286  0.5262745022773743)
(X_287  0.43607842922210693)
(X_288  0.3929411768913269)
(X_289  0.3301960825920105)
(X_290  0.3733333349227905)
(X_291  0.3615686297416687)
(X_292  0.42039215564727783)
(X_293  0.5678431391716003)
(X_294  0.677647054195404)
(X_295  0.7458823919296265)
(X_296  0.5694118142127991)
(X_297  0.40470588207244873)
(X_298  0.3458823561668396)
(X_299  0.40470588207244873)
(X_300  0.42039215564727783)
(X_301  0.4556862711906433)
(X_302  0.5090196132659912)
(X_303  0.6384313702583313)
(X_304  0.5874509811401367)
(X_305  0.4894118010997772)
(X_306  0.31294119358062744)
(X_307  0.1952941119670868)
(X_308  0.1537254899740219)
(X_309  0.29098039865493774)
(X_310  0.35607844591140747)
(X_311  0.5168627500534058)
(X_312  0.6305882334709167)
(X_313  0.6321569085121155)
(X_314  0.4909803867340088)
(X_315  0.4596078395843506)
(X_316  0.3576470613479614)
(X_317  0.32235294580459595)
(X_318  0.3733333349227905)
(X_319  0.365490198135376)
(X_320  0.45176470279693604)
(X_321  0.5874509811401367)
(X_322  0.7654902338981628)
(X_323  0.7654902338981628)
(X_324  0.6360784769058228)
(X_325  0.4713725447654724)
(X_326  0.36941176652908325)
(X_327  0.38509804010391235)
(X_328  0.40470588207244873)
(X_329  0.4282352924346924)
(X_330  0.4619608223438263)
(X_331  0.5952941179275513)
(X_332  0.591372549533844)
(X_333  0.4894118010997772)
(X_334  0.3011764883995056)
(X_335  0.17176470160484314)
(X_336  0.16156862676143646)
(X_337  0.2988235354423523)
(X_338  0.3678431510925293)
(X_339  0.5168627500534058)
(X_340  0.5874509811401367)
(X_341  0.5498039722442627)
(X_342  0.408627450466156)
(X_343  0.40078431367874146)
(X_344  0.33803921937942505)
(X_345  0.3341176509857178)
(X_346  0.38901960849761963)
(X_347  0.3929411768913269)
(X_348  0.5027450919151306)
(X_349  0.6227450966835022)
(X_350  0.6894117593765259)
(X_351  0.6933333277702332)
(X_352  0.6596078872680664)
(X_353  0.5419608354568481)
(X_354  0.408627450466156)
(X_355  0.3576470613479614)
(X_356  0.3811764717102051)
(X_357  0.4243137240409851)
(X_358  0.5027450919151306)
(X_359  0.5050980448722839)
(X_360  0.5992156863212585)
(X_361  0.5011764764785767)
(X_362  0.3011764883995056)
(X_363  0.15215685963630676)
(X_364  0.14196078479290009)
(X_365  0.18745097517967224)
(X_366  0.3835294246673584)
(X_367  0.5521568655967712)
(X_368  0.6517647504806519)
(X_369  0.5066666603088379)
(X_370  0.3733333349227905)
(X_371  0.3615686297416687)
(X_372  0.3301960825920105)
(X_373  0.3458823561668396)
(X_374  0.40470588207244873)
(X_375  0.4282352924346924)
(X_376  0.5654902458190918)
(X_377  0.6698039174079895)
(X_378  0.6933333277702332)
(X_379  0.6854901909828186)
(X_380  0.5756862759590149)
(X_381  0.59686279296875)
(X_382  0.44784313440322876)
(X_383  0.33803921937942505)
(X_384  0.35372549295425415)
(X_385  0.40078431367874146)
(X_386  0.45176470279693604)
(X_387  0.5105882287025452)
(X_388  0.6031372547149658)
(X_389  0.5050980448722839)
(X_390  0.29725492000579834)
(X_391  0.13254901766777039)
(X_392  0.11058823764324188)
(X_393  0.13254901766777039)
(X_394  0.363921582698822)
(X_395  0.64000004529953)
(X_396  0.6125490665435791)
(X_397  0.4713725447654724)
(X_398  0.3811764717102051)
(X_399  0.3615686297416687)
(X_400  0.3145098090171814)
(X_401  0.3498039245605469)
(X_402  0.4125490188598633)
(X_403  0.4556862711906433)
(X_404  0.5443137288093567)
(X_405  0.7168627381324768)
(X_406  0.7011764645576477)
(X_407  0.677647054195404)
(X_408  0.6713725924491882)
(X_409  0.6478431820869446)
(X_410  0.5027450919151306)
(X_411  0.36941176652908325)
(X_412  0.35372549295425415)
(X_413  0.36941176652908325)
(X_414  0.41647058725357056)
(X_415  0.5066666603088379)
(X_416  0.6635294556617737)
(X_417  0.48156866431236267)
(X_418  0.2698039412498474)
(X_419  0.0972549095749855)
(X_420  0.11450980603694916)
(X_421  0.0972549095749855)
(X_422  0.3364706039428711)
(X_423  0.6047059297561646)
(X_424  0.5419608354568481)
(X_425  0.408627450466156)
(X_426  0.3576470613479614)
(X_427  0.33803921937942505)
(X_428  0.2988235354423523)
(X_429  0.3458823561668396)
(X_430  0.4125490188598633)
(X_431  0.46745097637176514)
(X_432  0.6556863188743591)
(X_433  0.7443137168884277)
(X_434  0.705098032951355)
(X_435  0.6737254858016968)
(X_436  0.6227450966835022)
(X_437  0.6870588660240173)
(X_438  0.55372554063797)
(X_439  0.41647058725357056)
(X_440  0.3733333349227905)
(X_441  0.2737255096435547)
(X_442  0.408627450466156)
(X_443  0.5498039722442627)
(X_444  0.6321569085121155)
(X_445  0.45411765575408936)
(X_446  0.23843137919902802)
(X_447  0.06196078658103943)
(X_448  0.11843137443065643)
(X_449  0.0188235305249691)
(X_450  0.29725492000579834)
(X_451  0.6635294556617737)
(X_452  0.4870588183403015)
(X_453  0.38901960849761963)
(X_454  0.3145098090171814)
(X_455  0.3615686297416687)
(X_456  0.3145098090171814)
(X_457  0.3576470613479614)
(X_458  0.40470588207244873)
(X_459  0.4870588183403015)
(X_460  0.6109803915023804)
(X_461  0.6894117593765259)
(X_462  0.7639215588569641)
(X_463  0.7419608235359192)
(X_464  0.7223529815673828)
(X_465  0.6831372976303101)
(X_466  0.5929412245750427)
(X_467  0.5184313654899597)
(X_468  0.3301960825920105)
(X_469  0.3301960825920105)
(X_470  0.3733333349227905)
(X_471  0.4556862711906433)
(X_472  0.6478431820869446)
(X_473  0.3678431510925293)
(X_474  0.1599999964237213)
(X_475  0.038431376218795776)
(X_476  0.08705882728099823)
(X_477  0.05411764979362488)
(X_478  0.3811764717102051)
(X_479  0.5419608354568481)
(X_480  0.3772549033164978)
(X_481  0.3733333349227905)
(X_482  0.3145098090171814)
(X_483  0.2831372618675232)
(X_484  0.3301960825920105)
(X_485  0.3419607877731323)
(X_486  0.3576470613479614)
(X_487  0.43215686082839966)
(X_488  0.6556863188743591)
(X_489  0.6737254858016968)
(X_490  0.7560784220695496)
(X_491  0.6462745070457458)
(X_492  0.5952941179275513)
(X_493  0.6752941608428955)
(X_494  0.6282353401184082)
(X_495  0.5615686774253845)
(X_496  0.3458823561668396)
(X_497  0.32235294580459595)
(X_498  0.36941176652908325)
(X_499  0.46352940797805786)
(X_500  0.6321569085121155)
(X_501  0.4125490188598633)
(X_502  0.12470588833093643)
(X_503  0.030588239431381226)
(X_504  -0.012549019418656826)
(X_505  0.0658823549747467)
(X_506  0.3772549033164978)
(X_507  0.46352940797805786)
(X_508  0.32235294580459595)
(X_509  0.3498039245605469)
(X_510  0.3145098090171814)
(X_511  0.27529412508010864)
(X_512  0.3105882406234741)
(X_513  0.3145098090171814)
(X_514  0.3301960825920105)
(X_515  0.4282352924346924)
(X_516  0.6792157292366028)
(X_517  0.705098032951355)
(X_518  0.7756862640380859)
(X_519  0.6501960754394531)
(X_520  0.6556863188743591)
(X_521  0.6556863188743591)
(X_522  0.6125490665435791)
(X_523  0.5576471090316772)
(X_524  0.35372549295425415)
(X_525  0.32235294580459595)
(X_526  0.3458823561668396)
(X_527  0.41647058725357056)
(X_528  0.6047059297561646)
(X_529  0.3576470613479614)
(X_530  0.07372549176216125)
(X_531  0.022745102643966675)
(X_532  0.014901962131261826)
(X_533  0.06980392336845398)
(X_534  0.2894117832183838)
(X_535  0.4399999976158142)
(X_536  0.31843137741088867)
(X_537  0.29098039865493774)
(X_538  0.29098039865493774)
(X_539  0.31843137741088867)
(X_540  0.29098039865493774)
(X_541  0.31843137741088867)
(X_542  0.3615686297416687)
(X_543  0.46352940797805786)
(X_544  0.6870588660240173)
(X_545  0.6737254858016968)
(X_546  0.705098032951355)
(X_547  0.5560784339904785)
(X_548  0.6282353401184082)
(X_549  0.5890196561813354)
(X_550  0.522352933883667)
(X_551  0.4870588183403015)
(X_552  0.3341176509857178)
(X_553  0.3301960825920105)
(X_554  0.33803921937942505)
(X_555  0.3772549033164978)
(X_556  0.5733333826065063)
(X_557  0.30666667222976685)
(X_558  0.0345098078250885)
(X_559  0.0188235305249691)
(X_560  0.02666667103767395)
(X_561  0.0972549095749855)
(X_562  0.3772549033164978)
(X_563  0.3772549033164978)
(X_564  0.29098039865493774)
(X_565  0.29098039865493774)
(X_566  0.3498039245605469)
(X_567  0.4125490188598633)
(X_568  0.5380392074584961)
(X_569  0.5811765193939209)
(X_570  0.6164706349372864)
(X_571  0.667451024055481)
(X_572  0.8203921914100647)
(X_573  0.7443137168884277)
(X_574  0.748235285282135)
(X_575  0.6031372547149658)
(X_576  0.5850980877876282)
(X_577  0.5498039722442627)
(X_578  0.48313724994659424)
(X_579  0.45176470279693604)
(X_580  0.2988235354423523)
(X_581  0.30666667222976685)
(X_582  0.3262745141983032)
(X_583  0.3811764717102051)
(X_584  0.5419608354568481)
(X_585  0.27529412508010864)
(X_586  0.014901962131261826)
(X_587  0.022745102643966675)
(X_588  -0.016470586881041527)
(X_589  0.12078431993722916)
(X_590  0.3929411768913269)
(X_591  0.23843137919902802)
(X_592  0.24627451598644257)
(X_593  0.3678431510925293)
(X_594  0.4894118010997772)
(X_595  0.520784318447113)
(X_596  0.5600000023841858)
(X_597  0.6713725924491882)
(X_598  0.6792157292366028)
(X_599  0.6831372976303101)
(X_600  0.7850980758666992)
(X_601  0.6972548961639404)
(X_602  0.7247058749198914)
(X_603  0.6070588231086731)
(X_604  0.6282353401184082)
(X_605  0.6282353401184082)
(X_606  0.5850980877876282)
(X_607  0.5341176390647888)
(X_608  0.3262745141983032)
(X_609  0.2831372618675232)
(X_610  0.28705883026123047)
(X_611  0.3419607877731323)
(X_612  0.42274510860443115)
(X_613  0.1796078383922577)
(X_614  0.0188235305249691)
(X_615  0.022745102643966675)
(X_616  -0.016470586881041527)
(X_617  0.10901961475610733)
(X_618  0.320784330368042)
(X_619  0.29333335161209106)
(X_620  0.3992156982421875)
(X_621  0.5325490236282349)
(X_622  0.6423529386520386)
(X_623  0.6541176438331604)
(X_624  0.7184314131736755)
(X_625  0.6580392122268677)
(X_626  0.7301961183547974)
(X_627  0.710588276386261)
(X_628  0.8086274862289429)
(X_629  0.7325490117073059)
(X_630  0.8596078753471375)
(X_631  0.7576470971107483)
(X_632  0.7184314131736755)
(X_633  0.7184314131736755)
(X_634  0.6909804344177246)
(X_635  0.6713725924491882)
(X_636  0.4752941131591797)
(X_637  0.3929411768913269)
(X_638  0.30666667222976685)
(X_639  0.29098039865493774)
(X_640  0.3835294246673584)
(X_641  0.17176470160484314)
(X_642  0.02666667103767395)
(X_643  0.0188235305249691)
(X_644  0.04235294461250305)
(X_645  0.0972549095749855)
(X_646  0.320784330368042)
(X_647  0.3952941298484802)
(X_648  0.5403921604156494)
(X_649  0.5678431391716003)
(X_650  0.6070588231086731)
(X_651  0.7184314131736755)
(X_652  0.7576470971107483)
(X_653  0.7694118022918701)
(X_654  0.7498039603233337)
(X_655  0.6501960754394531)
(X_656  0.7443137168884277)
(X_657  0.7403921484947205)
(X_658  0.7756862640380859)
(X_659  0.661960780620575)
(X_660  0.7498039603233337)
(X_661  0.7223529815673828)
(X_662  0.7027451395988464)
(X_663  0.7576470971107483)
(X_664  0.5678431391716003)
(X_665  0.5733333826065063)
(X_666  0.40078431367874146)
(X_667  0.29098039865493774)
(X_668  0.4399999976158142)
(X_669  0.24784314632415771)
(X_670  0.0345098078250885)
(X_671  0.014901962131261826)
(X_672  0.01098039373755455)
(X_673  0.1482352912425995)
(X_674  0.34039217233657837)
(X_675  0.4933333694934845)
(X_676  0.5835294127464294)
(X_677  0.710588276386261)
(X_678  0.6658823490142822)
(X_679  0.6933333277702332)
(X_680  0.6933333277702332)
(X_681  0.6972548961639404)
(X_682  0.7811765074729919)
(X_683  0.7129411697387695)
(X_684  0.7443137168884277)
(X_685  0.7639215588569641)
(X_686  0.7403921484947205)
(X_687  0.7011764645576477)
(X_688  0.7458823919296265)
(X_689  0.7184314131736755)
(X_690  0.7145098447799683)
(X_691  0.6188235282897949)
(X_692  0.667451024055481)
(X_693  0.6321569085121155)
(X_694  0.5262745022773743)
(X_695  0.3811764717102051)
(X_696  0.4439215660095215)
(X_697  0.19294118881225586)
(X_698  0.11058823764324188)
(X_699  0.10274510085582733)
(X_700  0.02666667103767395)
(X_701  0.1599999964237213)
(X_702  0.3521568775177002)
(X_703  0.5090196132659912)
(X_704  0.5952941179275513)
(X_705  0.6423529386520386)
(X_706  0.6815686225891113)
(X_707  0.7890196442604065)
(X_708  0.7129411697387695)
(X_709  0.7168627381324768)
(X_710  0.7168627381324768)
(X_711  0.7286274433135986)
(X_712  0.7599999904632568)
(X_713  0.7756862640380859)
(X_714  0.7521568536758423)
(X_715  0.7129411697387695)
(X_716  0.7498039603233337)
(X_717  0.7262745499610901)
(X_718  0.6384313702583313)
(X_719  0.6227450966835022)
(X_720  0.5952941179275513)
(X_721  0.6596078872680664)
(X_722  0.5890196561813354)
(X_723  0.46745097637176514)
(X_724  0.4282352924346924)
(X_725  0.18117648363113403)
(X_726  0.1066666692495346)
(X_727  0.10274510085582733)
(X_728  0.11058823764324188)
(X_729  0.24392157793045044)
(X_730  0.43607842922210693)
(X_731  0.5129411816596985)
(X_732  0.5992156863212585)
(X_733  0.6462745070457458)
(X_734  0.6854901909828186)
(X_735  0.7129411697387695)
(X_736  0.7207843065261841)
(X_737  0.7286274433135986)
(X_738  0.7286274433135986)
(X_739  0.7364705801010132)
(X_740  0.7599999904632568)
(X_741  0.7717646956443787)
(X_742  0.748235285282135)
(X_743  0.7090196013450623)
(X_744  0.6894117593765259)
(X_745  0.6658823490142822)
(X_746  0.6580392122268677)
(X_747  0.6305882334709167)
(X_748  0.6031372547149658)
(X_749  0.6031372547149658)
(X_750  0.6439216136932373)
(X_751  0.4737255275249481)
(X_752  0.408627450466156)
(X_753  0.16549021005630493)
(X_754  0.0188235305249691)
(X_755  0.10274510085582733)
(X_756  0.09882353246212006)
(X_757  0.2360784411430359)
(X_758  0.34431374073028564)
(X_759  0.5011764764785767)
(X_760  0.5874509811401367)
(X_761  0.634509801864624)
(X_762  0.6737254858016968)
(X_763  0.7011764645576477)
(X_764  0.7168627381324768)
(X_765  0.7247058749198914)
(X_766  0.7247058749198914)
(X_767  0.7286274433135986)
(X_768  0.7443137168884277)
(X_769  0.7521568536758423)
(X_770  0.7286274433135986)
(X_771  0.7733333706855774)
(X_772  0.7090196013450623)
(X_773  0.6933333277702332)
(X_774  0.6815686225891113)
(X_775  0.6462745070457458)
(X_776  0.6031372547149658)
(X_777  0.6070588231086731)
(X_778  0.5796078443527222)
(X_779  0.5050980448722839)
(X_780  0.31294119358062744)
(X_781  0.07372549176216125)
(X_782  0.09490196406841278)
(X_783  0.02666667103767395)
(Y_0 0.2703167498111725))