((X_0  0.6305882334709167)
(X_1  0.6070588231086731)
(X_2  0.6188235282897949)
(X_3  0.6541176438331604)
(X_4  0.6658823490142822)
(X_5  0.6501960754394531)
(X_6  0.661960780620575)
(X_7  0.6894117593765259)
(X_8  0.6737254858016968)
(X_9  0.7615686655044556)
(X_10  0.7576470971107483)
(X_11  0.7341176867485046)
(X_12  0.7262745499610901)
(X_13  0.7380392551422119)
(X_14  0.7458823919296265)
(X_15  0.7458823919296265)
(X_16  0.7341176867485046)
(X_17  0.7498039603233337)
(X_18  0.7419608235359192)
(X_19  0.7145098447799683)
(X_20  0.7066667079925537)
(X_21  0.6384313702583313)
(X_22  0.6384313702583313)
(X_23  0.6266666650772095)
(X_24  0.591372549533844)
(X_25  0.5756862759590149)
(X_26  0.6360784769058228)
(X_27  0.6321569085121155)
(X_28  0.7380392551422119)
(X_29  0.7341176867485046)
(X_30  0.661960780620575)
(X_31  0.6815686225891113)
(X_32  0.6894117593765259)
(X_33  0.6815686225891113)
(X_34  0.677647054195404)
(X_35  0.6894117593765259)
(X_36  0.6933333277702332)
(X_37  0.7011764645576477)
(X_38  0.7772549390792847)
(X_39  0.7576470971107483)
(X_40  0.7498039603233337)
(X_41  0.7576470971107483)
(X_42  0.7498039603233337)
(X_43  0.7341176867485046)
(X_44  0.7223529815673828)
(X_45  0.7301961183547974)
(X_46  0.7262745499610901)
(X_47  0.6462745070457458)
(X_48  0.6698039174079895)
(X_49  0.705098032951355)
(X_50  0.7090196013450623)
(X_51  0.6933333277702332)
(X_52  0.6070588231086731)
(X_53  0.5835294127464294)
(X_54  0.6360784769058228)
(X_55  0.6243137717247009)
(X_56  0.7811765074729919)
(X_57  0.7168627381324768)
(X_58  0.7168627381324768)
(X_59  0.705098032951355)
(X_60  0.705098032951355)
(X_61  0.7090196013450623)
(X_62  0.7011764645576477)
(X_63  0.6854901909828186)
(X_64  0.705098032951355)
(X_65  0.7129411697387695)
(X_66  0.7850980758666992)
(X_67  0.7772549390792847)
(X_68  0.7772549390792847)
(X_69  0.7733333706855774)
(X_70  0.7419608235359192)
(X_71  0.7066667079925537)
(X_72  0.6266666650772095)
(X_73  0.6949020028114319)
(X_74  0.6831372976303101)
(X_75  0.6909804344177246)
(X_76  0.6501960754394531)
(X_77  0.6933333277702332)
(X_78  0.6972548961639404)
(X_79  0.6815686225891113)
(X_80  0.6423529386520386)
(X_81  0.6909804344177246)
(X_82  0.6517647504806519)
(X_83  0.6282353401184082)
(X_84  0.8007843494415283)
(X_85  0.7364705801010132)
(X_86  0.7207843065261841)
(X_87  0.677647054195404)
(X_88  0.7458823919296265)
(X_89  0.6854901909828186)
(X_90  0.6854901909828186)
(X_91  0.7419608235359192)
(X_92  0.7811765074729919)
(X_93  0.7850980758666992)
(X_94  0.7850980758666992)
(X_95  0.7011764645576477)
(X_96  0.705098032951355)
(X_97  0.6933333277702332)
(X_98  0.6462745070457458)
(X_99  0.5992156863212585)
(X_100  0.6635294556617737)
(X_101  0.6478431820869446)
(X_102  0.6321569085121155)
(X_103  0.6360784769058228)
(X_104  0.667451024055481)
(X_105  0.710588276386261)
(X_106  0.7419608235359192)
(X_107  0.753725528717041)
(X_108  0.6737254858016968)
(X_109  0.7184314131736755)
(X_110  0.6713725924491882)
(X_111  0.64000004529953)
(X_112  0.8007843494415283)
(X_113  0.8007843494415283)
(X_114  0.6815686225891113)
(X_115  0.6188235282897949)
(X_116  0.6031372547149658)
(X_117  0.7145098447799683)
(X_118  0.7301961183547974)
(X_119  0.7184314131736755)
(X_120  0.7694118022918701)
(X_121  0.7772549390792847)
(X_122  0.7811765074729919)
(X_123  0.705098032951355)
(X_124  0.7090196013450623)
(X_125  0.6972548961639404)
(X_126  0.6501960754394531)
(X_127  0.5952941179275513)
(X_128  0.64000004529953)
(X_129  0.6321569085121155)
(X_130  0.6243137717247009)
(X_131  0.6243137717247009)
(X_132  0.6439216136932373)
(X_133  0.6909804344177246)
(X_134  0.753725528717041)
(X_135  0.8047059178352356)
(X_136  0.6854901909828186)
(X_137  0.7262745499610901)
(X_138  0.6792157292366028)
(X_139  0.6517647504806519)
(X_140  0.7364705801010132)
(X_141  0.7890196442604065)
(X_142  0.7380392551422119)
(X_143  0.6031372547149658)
(X_144  0.5874509811401367)
(X_145  0.6909804344177246)
(X_146  0.7223529815673828)
(X_147  0.7341176867485046)
(X_148  0.7654902338981628)
(X_149  0.7772549390792847)
(X_150  0.7890196442604065)
(X_151  0.7129411697387695)
(X_152  0.7168627381324768)
(X_153  0.7090196013450623)
(X_154  0.753725528717041)
(X_155  0.710588276386261)
(X_156  0.6909804344177246)
(X_157  0.6792157292366028)
(X_158  0.667451024055481)
(X_159  0.6517647504806519)
(X_160  0.6439216136932373)
(X_161  0.6635294556617737)
(X_162  0.7262745499610901)
(X_163  0.7890196442604065)
(X_164  0.7615686655044556)
(X_165  0.7262745499610901)
(X_166  0.6831372976303101)
(X_167  0.6556863188743591)
(X_168  0.8047059178352356)
(X_169  0.7615686655044556)
(X_170  0.710588276386261)
(X_171  0.6792157292366028)
(X_172  0.667451024055481)
(X_173  0.6713725924491882)
(X_174  0.7066667079925537)
(X_175  0.7419608235359192)
(X_176  0.753725528717041)
(X_177  0.6972548961639404)
(X_178  0.7129411697387695)
(X_179  0.7129411697387695)
(X_180  0.7168627381324768)
(X_181  0.7168627381324768)
(X_182  0.6972548961639404)
(X_183  0.753725528717041)
(X_184  0.753725528717041)
(X_185  0.7262745499610901)
(X_186  0.7027451395988464)
(X_187  0.6870588660240173)
(X_188  0.6635294556617737)
(X_189  0.6478431820869446)
(X_190  0.6752941608428955)
(X_191  0.710588276386261)
(X_192  0.7694118022918701)
(X_193  0.7380392551422119)
(X_194  0.6988235712051392)
(X_195  0.6713725924491882)
(X_196  0.7615686655044556)
(X_197  0.7066667079925537)
(X_198  0.6596078872680664)
(X_199  0.6517647504806519)
(X_200  0.64000004529953)
(X_201  0.6321569085121155)
(X_202  0.6596078872680664)
(X_203  0.710588276386261)
(X_204  0.7380392551422119)
(X_205  0.6854901909828186)
(X_206  0.7090196013450623)
(X_207  0.705098032951355)
(X_208  0.705098032951355)
(X_209  0.7929412126541138)
(X_210  0.7890196442604065)
(X_211  0.7733333706855774)
(X_212  0.6815686225891113)
(X_213  0.7301961183547974)
(X_214  0.7066667079925537)
(X_215  0.7066667079925537)
(X_216  0.6988235712051392)
(X_217  0.6792157292366028)
(X_218  0.6792157292366028)
(X_219  0.6988235712051392)
(X_220  0.7850980758666992)
(X_221  0.7576470971107483)
(X_222  0.7184314131736755)
(X_223  0.6949020028114319)
(X_224  0.6752941608428955)
(X_225  0.64000004529953)
(X_226  0.6243137717247009)
(X_227  0.64000004529953)
(X_228  0.6517647504806519)
(X_229  0.6478431820869446)
(X_230  0.5952941179275513)
(X_231  0.6384313702583313)
(X_232  0.6658823490142822)
(X_233  0.6854901909828186)
(X_234  0.705098032951355)
(X_235  0.7207843065261841)
(X_236  0.7207843065261841)
(X_237  0.796862781047821)
(X_238  0.7929412126541138)
(X_239  0.7090196013450623)
(X_240  0.6894117593765259)
(X_241  0.6815686225891113)
(X_242  0.6698039174079895)
(X_243  0.661960780620575)
(X_244  0.7380392551422119)
(X_245  0.7380392551422119)
(X_246  0.7458823919296265)
(X_247  0.7498039603233337)
(X_248  0.8125490546226501)
(X_249  0.7811765074729919)
(X_250  0.7380392551422119)
(X_251  0.7027451395988464)
(X_252  0.6870588660240173)
(X_253  0.6517647504806519)
(X_254  0.6360784769058228)
(X_255  0.6517647504806519)
(X_256  0.6556863188743591)
(X_257  0.6517647504806519)
(X_258  0.6752941608428955)
(X_259  0.634509801864624)
(X_260  0.6698039174079895)
(X_261  0.6894117593765259)
(X_262  0.7090196013450623)
(X_263  0.7247058749198914)
(X_264  0.7247058749198914)
(X_265  0.8007843494415283)
(X_266  0.7929412126541138)
(X_267  0.7129411697387695)
(X_268  0.705098032951355)
(X_269  0.6972548961639404)
(X_270  0.6894117593765259)
(X_271  0.677647054195404)
(X_272  0.6737254858016968)
(X_273  0.753725528717041)
(X_274  0.753725528717041)
(X_275  0.7576470971107483)
(X_276  0.8125490546226501)
(X_277  0.7929412126541138)
(X_278  0.7654902338981628)
(X_279  0.7458823919296265)
(X_280  0.5796078443527222)
(X_281  0.548235297203064)
(X_282  0.6243137717247009)
(X_283  0.6478431820869446)
(X_284  0.667451024055481)
(X_285  0.6752941608428955)
(X_286  0.6227450966835022)
(X_287  0.6698039174079895)
(X_288  0.677647054195404)
(X_289  0.6972548961639404)
(X_290  0.7168627381324768)
(X_291  0.7286274433135986)
(X_292  0.7286274433135986)
(X_293  0.8047059178352356)
(X_294  0.8007843494415283)
(X_295  0.7168627381324768)
(X_296  0.7011764645576477)
(X_297  0.6972548961639404)
(X_298  0.6854901909828186)
(X_299  0.6737254858016968)
(X_300  0.6658823490142822)
(X_301  0.661960780620575)
(X_302  0.7419608235359192)
(X_303  0.7458823919296265)
(X_304  0.7419608235359192)
(X_305  0.7419608235359192)
(X_306  0.7458823919296265)
(X_307  0.7576470971107483)
(X_308  0.5560784339904785)
(X_309  0.5286274552345276)
(X_310  0.6086274981498718)
(X_311  0.6439216136932373)
(X_312  0.667451024055481)
(X_313  0.5992156863212585)
(X_314  0.634509801864624)
(X_315  0.677647054195404)
(X_316  0.6854901909828186)
(X_317  0.7011764645576477)
(X_318  0.7247058749198914)
(X_319  0.7364705801010132)
(X_320  0.7364705801010132)
(X_321  0.8086274862289429)
(X_322  0.7247058749198914)
(X_323  0.7207843065261841)
(X_324  0.705098032951355)
(X_325  0.6972548961639404)
(X_326  0.6854901909828186)
(X_327  0.677647054195404)
(X_328  0.6658823490142822)
(X_329  0.661960780620575)
(X_330  0.7380392551422119)
(X_331  0.7380392551422119)
(X_332  0.6909804344177246)
(X_333  0.6988235712051392)
(X_334  0.710588276386261)
(X_335  0.7301961183547974)
(X_336  0.5521568655967712)
(X_337  0.5247058868408203)
(X_338  0.6047059297561646)
(X_339  0.64000004529953)
(X_340  0.6596078872680664)
(X_341  0.5874509811401367)
(X_342  0.6149019598960876)
(X_343  0.6580392122268677)
(X_344  0.6894117593765259)
(X_345  0.7090196013450623)
(X_346  0.7286274433135986)
(X_347  0.7403921484947205)
(X_348  0.7364705801010132)
(X_349  0.8086274862289429)
(X_350  0.8047059178352356)
(X_351  0.8007843494415283)
(X_352  0.7207843065261841)
(X_353  0.7129411697387695)
(X_354  0.705098032951355)
(X_355  0.6972548961639404)
(X_356  0.6894117593765259)
(X_357  0.6815686225891113)
(X_358  0.677647054195404)
(X_359  0.753725528717041)
(X_360  0.7341176867485046)
(X_361  0.7262745499610901)
(X_362  0.7145098447799683)
(X_363  0.710588276386261)
(X_364  0.5050980448722839)
(X_365  0.5654902458190918)
(X_366  0.5772549510002136)
(X_367  0.6243137717247009)
(X_368  0.5796078443527222)
(X_369  0.5952941179275513)
(X_370  0.634509801864624)
(X_371  0.6815686225891113)
(X_372  0.6933333277702332)
(X_373  0.7090196013450623)
(X_374  0.7286274433135986)
(X_375  0.7403921484947205)
(X_376  0.7364705801010132)
(X_377  0.8086274862289429)
(X_378  0.8047059178352356)
(X_379  0.8007843494415283)
(X_380  0.7929412126541138)
(X_381  0.7090196013450623)
(X_382  0.705098032951355)
(X_383  0.6972548961639404)
(X_384  0.6894117593765259)
(X_385  0.6815686225891113)
(X_386  0.677647054195404)
(X_387  0.6737254858016968)
(X_388  0.7654902338981628)
(X_389  0.7458823919296265)
(X_390  0.7223529815673828)
(X_391  0.710588276386261)
(X_392  0.4894118010997772)
(X_393  0.55372554063797)
(X_394  0.5694118142127991)
(X_395  0.5403921604156494)
(X_396  0.5796078443527222)
(X_397  0.5992156863212585)
(X_398  0.6384313702583313)
(X_399  0.6854901909828186)
(X_400  0.6933333277702332)
(X_401  0.7090196013450623)
(X_402  0.7286274433135986)
(X_403  0.7403921484947205)
(X_404  0.8164706230163574)
(X_405  0.8086274862289429)
(X_406  0.8007843494415283)
(X_407  0.796862781047821)
(X_408  0.7011764645576477)
(X_409  0.6972548961639404)
(X_410  0.6972548961639404)
(X_411  0.6933333277702332)
(X_412  0.6854901909828186)
(X_413  0.6815686225891113)
(X_414  0.6737254858016968)
(X_415  0.6737254858016968)
(X_416  0.677647054195404)
(X_417  0.7419608235359192)
(X_418  0.7184314131736755)
(X_419  0.7066667079925537)
(X_420  0.5443137288093567)
(X_421  0.59686279296875)
(X_422  0.6007843613624573)
(X_423  0.5521568655967712)
(X_424  0.5717647075653076)
(X_425  0.5717647075653076)
(X_426  0.5952941179275513)
(X_427  0.6305882334709167)
(X_428  0.6933333277702332)
(X_429  0.7090196013450623)
(X_430  0.7286274433135986)
(X_431  0.7364705801010132)
(X_432  0.7364705801010132)
(X_433  0.8047059178352356)
(X_434  0.796862781047821)
(X_435  0.796862781047821)
(X_436  0.7890196442604065)
(X_437  0.7090196013450623)
(X_438  0.7090196013450623)
(X_439  0.7090196013450623)
(X_440  0.705098032951355)
(X_441  0.7772549390792847)
(X_442  0.6933333277702332)
(X_443  0.6894117593765259)
(X_444  0.6894117593765259)
(X_445  0.7498039603233337)
(X_446  0.7223529815673828)
(X_447  0.7027451395988464)
(X_448  0.4933333694934845)
(X_449  0.5772549510002136)
(X_450  0.5890196561813354)
(X_451  0.5286274552345276)
(X_452  0.5521568655967712)
(X_453  0.5796078443527222)
(X_454  0.6149019598960876)
(X_455  0.6423529386520386)
(X_456  0.6933333277702332)
(X_457  0.705098032951355)
(X_458  0.7207843065261841)
(X_459  0.7364705801010132)
(X_460  0.8203921914100647)
(X_461  0.8164706230163574)
(X_462  0.8086274862289429)
(X_463  0.7207843065261841)
(X_464  0.6972548961639404)
(X_465  0.6894117593765259)
(X_466  0.6854901909828186)
(X_467  0.6854901909828186)
(X_468  0.6933333277702332)
(X_469  0.6933333277702332)
(X_470  0.6894117593765259)
(X_471  0.6815686225891113)
(X_472  0.677647054195404)
(X_473  0.7419608235359192)
(X_474  0.7262745499610901)
(X_475  0.7184314131736755)
(X_476  0.5286274552345276)
(X_477  0.59686279296875)
(X_478  0.5168627500534058)
(X_479  0.520784318447113)
(X_480  0.5129411816596985)
(X_481  0.5129411816596985)
(X_482  0.5443137288093567)
(X_483  0.591372549533844)
(X_484  0.6854901909828186)
(X_485  0.6972548961639404)
(X_486  0.7129411697387695)
(X_487  0.7286274433135986)
(X_488  0.7364705801010132)
(X_489  0.8125490546226501)
(X_490  0.8047059178352356)
(X_491  0.8007843494415283)
(X_492  0.7890196442604065)
(X_493  0.705098032951355)
(X_494  0.6972548961639404)
(X_495  0.7011764645576477)
(X_496  0.705098032951355)
(X_497  0.7090196013450623)
(X_498  0.705098032951355)
(X_499  0.7011764645576477)
(X_500  0.6698039174079895)
(X_501  0.6501960754394531)
(X_502  0.710588276386261)
(X_503  0.6949020028114319)
(X_504  0.5733333826065063)
(X_505  0.5458824038505554)
(X_506  0.46980395913124084)
(X_507  0.5011764764785767)
(X_508  0.5050980448722839)
(X_509  0.5011764764785767)
(X_510  0.5560784339904785)
(X_511  0.6266666650772095)
(X_512  0.6737254858016968)
(X_513  0.6854901909828186)
(X_514  0.705098032951355)
(X_515  0.7207843065261841)
(X_516  0.7286274433135986)
(X_517  0.8086274862289429)
(X_518  0.8047059178352356)
(X_519  0.8007843494415283)
(X_520  0.7011764645576477)
(X_521  0.6933333277702332)
(X_522  0.6854901909828186)
(X_523  0.6854901909828186)
(X_524  0.6933333277702332)
(X_525  0.6972548961639404)
(X_526  0.6933333277702332)
(X_527  0.6894117593765259)
(X_528  0.6933333277702332)
(X_529  0.6698039174079895)
(X_530  0.7145098447799683)
(X_531  0.6909804344177246)
(X_532  0.5654902458190918)
(X_533  0.522352933883667)
(X_534  0.522352933883667)
(X_535  0.4933333694934845)
(X_536  0.5247058868408203)
(X_537  0.5286274552345276)
(X_538  0.5756862759590149)
(X_539  0.6501960754394531)
(X_540  0.6698039174079895)
(X_541  0.6815686225891113)
(X_542  0.6972548961639404)
(X_543  0.7129411697387695)
(X_544  0.7247058749198914)
(X_545  0.8086274862289429)
(X_546  0.8047059178352356)
(X_547  0.8047059178352356)
(X_548  0.6894117593765259)
(X_549  0.6815686225891113)
(X_550  0.6698039174079895)
(X_551  0.6698039174079895)
(X_552  0.6737254858016968)
(X_553  0.677647054195404)
(X_554  0.677647054195404)
(X_555  0.6737254858016968)
(X_556  0.6462745070457458)
(X_557  0.6188235282897949)
(X_558  0.6556863188743591)
(X_559  0.6243137717247009)
(X_560  0.6086274981498718)
(X_561  0.5615686774253845)
(X_562  0.46980395913124084)
(X_563  0.5168627500534058)
(X_564  0.5560784339904785)
(X_565  0.5560784339904785)
(X_566  0.5756862759590149)
(X_567  0.6109803915023804)
(X_568  0.6737254858016968)
(X_569  0.6815686225891113)
(X_570  0.6972548961639404)
(X_571  0.7129411697387695)
(X_572  0.7207843065261841)
(X_573  0.8086274862289429)
(X_574  0.8086274862289429)
(X_575  0.8086274862289429)
(X_576  0.7011764645576477)
(X_577  0.6894117593765259)
(X_578  0.6737254858016968)
(X_579  0.6698039174079895)
(X_580  0.6698039174079895)
(X_581  0.6737254858016968)
(X_582  0.6737254858016968)
(X_583  0.6698039174079895)
(X_584  0.6227450966835022)
(X_585  0.591372549533844)
(X_586  0.6243137717247009)
(X_587  0.5929412245750427)
(X_588  0.5576471090316772)
(X_589  0.55372554063797)
(X_590  0.4972549378871918)
(X_591  0.64000004529953)
(X_592  0.6949020028114319)
(X_593  0.7262745499610901)
(X_594  0.7380392551422119)
(X_595  0.7498039603233337)
(X_596  0.7654902338981628)
(X_597  0.6933333277702332)
(X_598  0.705098032951355)
(X_599  0.7168627381324768)
(X_600  0.7247058749198914)
(X_601  0.8125490546226501)
(X_602  0.8125490546226501)
(X_603  0.8125490546226501)
(X_604  0.6972548961639404)
(X_605  0.6815686225891113)
(X_606  0.6658823490142822)
(X_607  0.6541176438331604)
(X_608  0.6541176438331604)
(X_609  0.6541176438331604)
(X_610  0.6501960754394531)
(X_611  0.6501960754394531)
(X_612  0.6870588660240173)
(X_613  0.6556863188743591)
(X_614  0.6164706349372864)
(X_615  0.5850980877876282)
(X_616  0.5262745022773743)
(X_617  0.5890196561813354)
(X_618  0.6596078872680664)
(X_619  0.7145098447799683)
(X_620  0.7615686655044556)
(X_621  0.8047059178352356)
(X_622  0.824313759803772)
(X_623  0.824313759803772)
(X_624  0.7011764645576477)
(X_625  0.7890196442604065)
(X_626  0.7168627381324768)
(X_627  0.7247058749198914)
(X_628  0.7325490117073059)
(X_629  0.8164706230163574)
(X_630  0.7364705801010132)
(X_631  0.7364705801010132)
(X_632  0.6972548961639404)
(X_633  0.6815686225891113)
(X_634  0.6580392122268677)
(X_635  0.6423529386520386)
(X_636  0.6384313702583313)
(X_637  0.634509801864624)
(X_638  0.6305882334709167)
(X_639  0.6305882334709167)
(X_640  0.6517647504806519)
(X_641  0.6243137717247009)
(X_642  0.5890196561813354)
(X_643  0.5615686774253845)
(X_644  0.6125490665435791)
(X_645  0.710588276386261)
(X_646  0.7929412126541138)
(X_647  0.796862781047821)
(X_648  0.7890196442604065)
(X_649  0.8047059178352356)
(X_650  0.8047059178352356)
(X_651  0.7011764645576477)
(X_652  0.7129411697387695)
(X_653  0.7168627381324768)
(X_654  0.7247058749198914)
(X_655  0.8086274862289429)
(X_656  0.8164706230163574)
(X_657  0.8203921914100647)
(X_658  0.8203921914100647)
(X_659  0.8203921914100647)
(X_660  0.7168627381324768)
(X_661  0.7011764645576477)
(X_662  0.6737254858016968)
(X_663  0.6580392122268677)
(X_664  0.7301961183547974)
(X_665  0.6462745070457458)
(X_666  0.6423529386520386)
(X_667  0.6384313702583313)
(X_668  0.6305882334709167)
(X_669  0.6070588231086731)
(X_670  0.6556863188743591)
(X_671  0.6321569085121155)
(X_672  0.753725528717041)
(X_673  0.7615686655044556)
(X_674  0.7772549390792847)
(X_675  0.7929412126541138)
(X_676  0.8047059178352356)
(X_677  0.7325490117073059)
(X_678  0.8164706230163574)
(X_679  0.8164706230163574)
(X_680  0.824313759803772)
(X_681  0.8164706230163574)
(X_682  0.7325490117073059)
(X_683  0.8164706230163574)
(X_684  0.824313759803772)
(X_685  0.8321568965911865)
(X_686  0.8321568965911865)
(X_687  0.8282353281974792)
(X_688  0.7364705801010132)
(X_689  0.7011764645576477)
(X_690  0.677647054195404)
(X_691  0.7615686655044556)
(X_692  0.6894117593765259)
(X_693  0.6854901909828186)
(X_694  0.6815686225891113)
(X_695  0.6854901909828186)
(X_696  0.6698039174079895)
(X_697  0.6698039174079895)
(X_698  0.6658823490142822)
(X_699  0.6580392122268677)
(X_700  0.7654902338981628)
(X_701  0.7733333706855774)
(X_702  0.7929412126541138)
(X_703  0.8086274862289429)
(X_704  0.8164706230163574)
(X_705  0.8203921914100647)
(X_706  0.8164706230163574)
(X_707  0.7364705801010132)
(X_708  0.8086274862289429)
(X_709  0.8007843494415283)
(X_710  0.796862781047821)
(X_711  0.8007843494415283)
(X_712  0.8086274862289429)
(X_713  0.8164706230163574)
(X_714  0.8164706230163574)
(X_715  0.8125490546226501)
(X_716  0.7168627381324768)
(X_717  0.6815686225891113)
(X_718  0.7301961183547974)
(X_719  0.7301961183547974)
(X_720  0.7341176867485046)
(X_721  0.6501960754394531)
(X_722  0.6501960754394531)
(X_723  0.6580392122268677)
(X_724  0.677647054195404)
(X_725  0.6815686225891113)
(X_726  0.6894117593765259)
(X_727  0.6854901909828186)
(X_728  0.6972548961639404)
(X_729  0.7090196013450623)
(X_730  0.7286274433135986)
(X_731  0.824313759803772)
(X_732  0.8321568965911865)
(X_733  0.8282353281974792)
(X_734  0.8164706230163574)
(X_735  0.8086274862289429)
(X_736  0.7850980758666992)
(X_737  0.7811765074729919)
(X_738  0.7733333706855774)
(X_739  0.7772549390792847)
(X_740  0.7890196442604065)
(X_741  0.796862781047821)
(X_742  0.796862781047821)
(X_743  0.7929412126541138)
(X_744  0.7890196442604065)
(X_745  0.7458823919296265)
(X_746  0.710588276386261)
(X_747  0.6988235712051392)
(X_748  0.7027451395988464)
(X_749  0.6988235712051392)
(X_750  0.6227450966835022)
(X_751  0.7145098447799683)
(X_752  0.6501960754394531)
(X_753  0.661960780620575)
(X_754  0.7576470971107483)
(X_755  0.6854901909828186)
(X_756  0.705098032951355)
(X_757  0.7207843065261841)
(X_758  0.8203921914100647)
(X_759  0.8360784649848938)
(X_760  0.8400000333786011)
(X_761  0.8282353281974792)
(X_762  0.8086274862289429)
(X_763  0.7929412126541138)
(X_764  0.7733333706855774)
(X_765  0.7654902338981628)
(X_766  0.7615686655044556)
(X_767  0.7654902338981628)
(X_768  0.7733333706855774)
(X_769  0.7811765074729919)
(X_770  0.7811765074729919)
(X_771  0.7011764645576477)
(X_772  0.8007843494415283)
(X_773  0.753725528717041)
(X_774  0.710588276386261)
(X_775  0.6949020028114319)
(X_776  0.6909804344177246)
(X_777  0.6909804344177246)
(X_778  0.6988235712051392)
(X_779  0.710588276386261)
(X_780  0.7066667079925537)
(X_781  0.7223529815673828)
(X_782  0.661960780620575)
(X_783  0.753725528717041)
(Y_0 -0.0362878143787384))