((X_0  0.5532090067863464)
(X_1  0.3859567642211914)
(X_2  0.491212397813797)
(X_3  0.5250929594039917)
(X_4  0.5853191018104553)
(X_5  0.6626963019371033)
(X_6  0.5075393915176392)
(X_7  0.5352118611335754)
(X_8  0.5396742224693298)
(X_9  0.5209536552429199)
(X_10  0.5015609264373779)
(X_11  0.5620250105857849)
(X_12  0.5932586193084717)
(X_13  0.43408551812171936)
(X_14  0.5314732193946838)
(X_15  0.6885553598403931)
(X_16  0.6449406743049622)
(X_17  0.5867491960525513)
(X_18  0.5245416164398193)
(X_19  0.5550850629806519)
(X_20  0.56788170337677)
(X_21  0.565197765827179)
(X_22  0.6530274152755737)
(X_23  0.5863956212997437)
(X_24  0.5643075108528137)
(X_25  0.523698627948761)
(X_26  0.43951913714408875)
(X_27  0.5793154835700989)
(X_28  0.5876181125640869)
(X_29  0.4952711760997772)
(X_30  0.4997415244579315)
(X_31  0.53081876039505)
(X_32  0.6513688564300537)
(X_33  0.7404337525367737)
(X_34  0.7420691847801208)
(X_35  0.7396460175514221)
(X_36  0.6471133828163147)
(X_37  0.586349368095398)
(X_38  0.5220475196838379)
(X_39  0.5640086531639099)
(X_40  0.6190170049667358)
(X_41  0.48580408096313477)
(X_42  0.5558637380599976)
(X_43  0.6888127326965332)
(X_44  0.6120211482048035)
(X_45  0.6198161840438843)
(X_46  0.6688017249107361)
(X_47  0.7470384836196899)
(X_48  0.7170398235321045)
(X_49  0.7344401478767395)
(X_50  0.7505924701690674)
(X_51  0.7201101779937744)
(X_52  0.6232061982154846)
(X_53  0.5528693795204163)
(X_54  0.5915472507476807)
(X_55  0.6448681354522705)
(X_56  0.5157152414321899)
(X_57  0.5982826948165894)
(X_58  0.5496524572372437)
(X_59  0.5250270366668701)
(X_60  0.5412933230400085)
(X_61  0.5977763533592224)
(X_62  0.7984115481376648)
(X_63  0.7516524195671082)
(X_64  0.71888667345047)
(X_65  0.6883553266525269)
(X_66  0.6037633419036865)
(X_67  0.6061527132987976)
(X_68  0.6515096426010132)
(X_69  0.48449698090553284)
(X_70  0.5789286494255066)
(X_71  0.7065240144729614)
(X_72  0.6804883480072021)
(X_73  0.6667942404747009)
(X_74  0.691848874092102)
(X_75  0.6964936852455139)
(X_76  0.7072001695632935)
(X_77  0.6773878335952759)
(X_78  0.604741096496582)
(X_79  0.5681100487709045)
(X_80  0.5850998759269714)
(X_81  0.5781453251838684)
(X_82  0.570733904838562)
(X_83  0.6092767715454102)
(X_84  0.5694082975387573)
(X_85  0.6939376592636108)
(X_86  0.5851794481277466)
(X_87  0.5870335102081299)
(X_88  0.5473976731300354)
(X_89  0.5966691970825195)
(X_90  0.7173376679420471)
(X_91  0.6509895920753479)
(X_92  0.6268159747123718)
(X_93  0.6248682737350464)
(X_94  0.5826184749603271)
(X_95  0.6190650463104248)
(X_96  0.7263495326042175)
(X_97  0.5441432595252991)
(X_98  0.6090728640556335)
(X_99  0.7192752361297607)
(X_100  0.729313313961029)
(X_101  0.6529000401496887)
(X_102  0.5594375133514404)
(X_103  0.5322723984718323)
(X_104  0.5831556916236877)
(X_105  0.6716233491897583)
(X_106  0.7146447896957397)
(X_107  0.5997803211212158)
(X_108  0.6373656988143921)
(X_109  0.6384272575378418)
(X_110  0.697823166847229)
(X_111  0.6238667368888855)
(X_112  0.6662564873695374)
(X_113  0.6620002388954163)
(X_114  0.5812368988990784)
(X_115  0.6650556921958923)
(X_116  0.6706182956695557)
(X_117  0.6917904615402222)
(X_118  0.6826834082603455)
(X_119  0.5190210342407227)
(X_120  0.44463881850242615)
(X_121  0.5005775094032288)
(X_122  0.5534446239471436)
(X_123  0.6497978568077087)
(X_124  0.7461962699890137)
(X_125  0.6665313243865967)
(X_126  0.7029054760932922)
(X_127  0.7801958322525024)
(X_128  0.7409511804580688)
(X_129  0.5078438520431519)
(X_130  0.3948308825492859)
(X_131  0.38990968465805054)
(X_132  0.5010613799095154)
(X_133  0.6592601537704468)
(X_134  0.7730457782745361)
(X_135  0.7378556132316589)
(X_136  0.7111373543739319)
(X_137  0.7657343745231628)
(X_138  0.7156915068626404)
(X_139  0.6133014559745789)
(X_140  0.5287295579910278)
(X_141  0.6379289627075195)
(X_142  0.6538873910903931)
(X_143  0.6427637934684753)
(X_144  0.6269064545631409)
(X_145  0.5060837864875793)
(X_146  0.497717022895813)
(X_147  0.4147930145263672)
(X_148  0.3653797209262848)
(X_149  0.3940492272377014)
(X_150  0.5270084738731384)
(X_151  0.5935237407684326)
(X_152  0.7295393347740173)
(X_153  0.6639959216117859)
(X_154  0.7593882083892822)
(X_155  0.7921615839004517)
(X_156  0.71108478307724)
(X_157  0.453678160905838)
(X_158  0.309272438287735)
(X_159  0.29444098472595215)
(X_160  0.3493362069129944)
(X_161  0.4544000029563904)
(X_162  0.5335347652435303)
(X_163  0.5982191562652588)
(X_164  0.7072780728340149)
(X_165  0.7825731635093689)
(X_166  0.7449486255645752)
(X_167  0.5713929533958435)
(X_168  0.5049798488616943)
(X_169  0.6979559063911438)
(X_170  0.7997527122497559)
(X_171  0.687696635723114)
(X_172  0.5071291923522949)
(X_173  0.37740299105644226)
(X_174  0.29030051827430725)
(X_175  0.35861048102378845)
(X_176  0.31906211376190186)
(X_177  0.3794901967048645)
(X_178  0.4489511251449585)
(X_179  0.5385633111000061)
(X_180  0.742192268371582)
(X_181  0.6960921287536621)
(X_182  0.777657151222229)
(X_183  0.7921487092971802)
(X_184  0.5912925004959106)
(X_185  0.35578009486198425)
(X_186  0.2937096059322357)
(X_187  0.3129653334617615)
(X_188  0.344097763299942)
(X_189  0.3467291295528412)
(X_190  0.43336784839630127)
(X_191  0.5842767357826233)
(X_192  0.7226630449295044)
(X_193  0.8221763372421265)
(X_194  0.7073987722396851)
(X_195  0.5624882578849792)
(X_196  0.4895794987678528)
(X_197  0.6638211607933044)
(X_198  0.7429291605949402)
(X_199  0.5796399712562561)
(X_200  0.45332828164100647)
(X_201  0.3633887469768524)
(X_202  0.2800394296646118)
(X_203  0.22013036906719208)
(X_204  0.2507712244987488)
(X_205  0.26194918155670166)
(X_206  0.37962794303894043)
(X_207  0.478759229183197)
(X_208  0.6954574584960938)
(X_209  0.7628399729728699)
(X_210  0.788437008857727)
(X_211  0.7316437363624573)
(X_212  0.5105118155479431)
(X_213  0.2676980197429657)
(X_214  0.19032718241214752)
(X_215  0.2323020100593567)
(X_216  0.3065711557865143)
(X_217  0.3398255705833435)
(X_218  0.4107562005519867)
(X_219  0.49560046195983887)
(X_220  0.6510443687438965)
(X_221  0.7716920971870422)
(X_222  0.6411916613578796)
(X_223  0.5457642674446106)
(X_224  0.5986398458480835)
(X_225  0.7257222533226013)
(X_226  0.6087424755096436)
(X_227  0.44450661540031433)
(X_228  0.47707951068878174)
(X_229  0.4227137565612793)
(X_230  0.3544199764728546)
(X_231  0.2870185077190399)
(X_232  0.36920034885406494)
(X_233  0.30293843150138855)
(X_234  0.35743507742881775)
(X_235  0.526981770992279)
(X_236  0.7592309713363647)
(X_237  0.7852268218994141)
(X_238  0.7018992304801941)
(X_239  0.786007821559906)
(X_240  0.589212954044342)
(X_241  0.3877933919429779)
(X_242  0.25045710802078247)
(X_243  0.3802669644355774)
(X_244  0.3746819794178009)
(X_245  0.36934319138526917)
(X_246  0.4078930616378784)
(X_247  0.39517033100128174)
(X_248  0.4461106061935425)
(X_249  0.5801105499267578)
(X_250  0.7403101325035095)
(X_251  0.635190486907959)
(X_252  0.6646676063537598)
(X_253  0.6829342246055603)
(X_254  0.5323910117149353)
(X_255  0.42067059874534607)
(X_256  0.3574274182319641)
(X_257  0.29305458068847656)
(X_258  0.252505898475647)
(X_259  0.33469751477241516)
(X_260  0.3274332284927368)
(X_261  0.30990737676620483)
(X_262  0.4137539565563202)
(X_263  0.551186203956604)
(X_264  0.7573345303535461)
(X_265  0.7576818466186523)
(X_266  0.8066492080688477)
(X_267  0.837139368057251)
(X_268  0.6389117240905762)
(X_269  0.3309648633003235)
(X_270  0.26597312092781067)
(X_271  0.33878833055496216)
(X_272  0.2924184799194336)
(X_273  0.30614224076271057)
(X_274  0.3777024745941162)
(X_275  0.40122735500335693)
(X_276  0.46528828144073486)
(X_277  0.5240780115127563)
(X_278  0.7207664251327515)
(X_279  0.6976867318153381)
(X_280  0.7121098041534424)
(X_281  0.5756781101226807)
(X_282  0.4806084930896759)
(X_283  0.48714810609817505)
(X_284  0.38401150703430176)
(X_285  0.3459271192550659)
(X_286  0.25549885630607605)
(X_287  0.25538066029548645)
(X_288  0.27080056071281433)
(X_289  0.3950970470905304)
(X_290  0.5020484328269958)
(X_291  0.5743573904037476)
(X_292  0.725477933883667)
(X_293  0.7538753151893616)
(X_294  0.7396470308303833)
(X_295  0.8150997757911682)
(X_296  0.7089519500732422)
(X_297  0.4711342751979828)
(X_298  0.31281784176826477)
(X_299  0.29580727219581604)
(X_300  0.3635218143463135)
(X_301  0.3228818476200104)
(X_302  0.3333762288093567)
(X_303  0.3799441456794739)
(X_304  0.40992218255996704)
(X_305  0.4725216031074524)
(X_306  0.6261506080627441)
(X_307  0.6342322826385498)
(X_308  0.8368016481399536)
(X_309  0.5118740200996399)
(X_310  0.33577340841293335)
(X_311  0.3378554880619049)
(X_312  0.33106541633605957)
(X_313  0.2861642837524414)
(X_314  0.33959856629371643)
(X_315  0.22688740491867065)
(X_316  0.267399400472641)
(X_317  0.4002835750579834)
(X_318  0.5052804946899414)
(X_319  0.6742715835571289)
(X_320  0.7534177899360657)
(X_321  0.8447508811950684)
(X_322  0.7833722829818726)
(X_323  0.7924435138702393)
(X_324  0.7972996234893799)
(X_325  0.5534114241600037)
(X_326  0.4017009437084198)
(X_327  0.3262793719768524)
(X_328  0.3443042039871216)
(X_329  0.29370763897895813)
(X_330  0.306571364402771)
(X_331  0.35261815786361694)
(X_332  0.45876771211624146)
(X_333  0.4500180780887604)
(X_334  0.5399865508079529)
(X_335  0.6811147332191467)
(X_336  0.6764171719551086)
(X_337  0.39753544330596924)
(X_338  0.29098284244537354)
(X_339  0.3324059247970581)
(X_340  0.3339043855667114)
(X_341  0.3837622404098511)
(X_342  0.31729817390441895)
(X_343  0.30987900495529175)
(X_344  0.2990456521511078)
(X_345  0.483421266078949)
(X_346  0.640923798084259)
(X_347  0.7150305509567261)
(X_348  0.7957249283790588)
(X_349  0.8075903654098511)
(X_350  0.7623719573020935)
(X_351  0.7614486813545227)
(X_352  0.7418513894081116)
(X_353  0.539533793926239)
(X_354  0.4281458258628845)
(X_355  0.4085073173046112)
(X_356  0.38265037536621094)
(X_357  0.2969129681587219)
(X_358  0.27945125102996826)
(X_359  0.35297316312789917)
(X_360  0.30605295300483704)
(X_361  0.35466504096984863)
(X_362  0.501987636089325)
(X_363  0.7401831746101379)
(X_364  0.5088310241699219)
(X_365  0.32884132862091064)
(X_366  0.320292204618454)
(X_367  0.37620463967323303)
(X_368  0.2806277871131897)
(X_369  0.31171441078186035)
(X_370  0.2691735029220581)
(X_371  0.24359288811683655)
(X_372  0.4196835458278656)
(X_373  0.5278120636940002)
(X_374  0.6481911540031433)
(X_375  0.7177621722221375)
(X_376  0.7428078651428223)
(X_377  0.7712127566337585)
(X_378  0.7618020176887512)
(X_379  0.7731771469116211)
(X_380  0.6983808875083923)
(X_381  0.596756637096405)
(X_382  0.4835793673992157)
(X_383  0.4831191301345825)
(X_384  0.3863861858844757)
(X_385  0.33497193455696106)
(X_386  0.32851335406303406)
(X_387  0.3478856682777405)
(X_388  0.2597797214984894)
(X_389  0.3508237302303314)
(X_390  0.39058881998062134)
(X_391  0.6396097540855408)
(X_392  0.6573010683059692)
(X_393  0.37842637300491333)
(X_394  0.31944766640663147)
(X_395  0.24231937527656555)
(X_396  0.14023341238498688)
(X_397  0.15670005977153778)
(X_398  0.1918315589427948)
(X_399  0.22348447144031525)
(X_400  0.3370666801929474)
(X_401  0.5090088248252869)
(X_402  0.5928617715835571)
(X_403  0.657948911190033)
(X_404  0.7342804670333862)
(X_405  0.8103140592575073)
(X_406  0.8114386200904846)
(X_407  0.842639684677124)
(X_408  0.7563754916191101)
(X_409  0.6312208771705627)
(X_410  0.5693793296813965)
(X_411  0.5501971244812012)
(X_412  0.3251461386680603)
(X_413  0.24256722629070282)
(X_414  0.24375420808792114)
(X_415  0.24091431498527527)
(X_416  0.37776631116867065)
(X_417  0.40861210227012634)
(X_418  0.38829341530799866)
(X_419  0.5705505609512329)
(X_420  0.4601805806159973)
(X_421  0.2769436836242676)
(X_422  0.18192943930625916)
(X_423  0.22950370609760284)
(X_424  0.31154951453208923)
(X_425  0.3628447949886322)
(X_426  0.32663917541503906)
(X_427  0.42700037360191345)
(X_428  0.49484783411026)
(X_429  0.5403407216072083)
(X_430  0.6139956116676331)
(X_431  0.7168803811073303)
(X_432  0.7549623847007751)
(X_433  0.814648449420929)
(X_434  0.8037117719650269)
(X_435  0.7895816564559937)
(X_436  0.7799016833305359)
(X_437  0.7067491412162781)
(X_438  0.6276261210441589)
(X_439  0.6144642233848572)
(X_440  0.37807780504226685)
(X_441  0.3048416078090668)
(X_442  0.2813369333744049)
(X_443  0.24833431839942932)
(X_444  0.19943663477897644)
(X_445  0.31359782814979553)
(X_446  0.3627322018146515)
(X_447  0.6039153337478638)
(X_448  0.4365262985229492)
(X_449  0.33359333872795105)
(X_450  0.2558843195438385)
(X_451  0.33389320969581604)
(X_452  0.26158633828163147)
(X_453  0.3199564814567566)
(X_454  0.37494730949401855)
(X_455  0.3656579256057739)
(X_456  0.49728208780288696)
(X_457  0.5138093829154968)
(X_458  0.610540509223938)
(X_459  0.7115672826766968)
(X_460  0.7521178722381592)
(X_461  0.815210223197937)
(X_462  0.8431735038757324)
(X_463  0.8039844632148743)
(X_464  0.788923442363739)
(X_465  0.6922342777252197)
(X_466  0.6148845553398132)
(X_467  0.6281315088272095)
(X_468  0.4988187253475189)
(X_469  0.3740798830986023)
(X_470  0.2709602117538452)
(X_471  0.386370450258255)
(X_472  0.29426926374435425)
(X_473  0.21617883443832397)
(X_474  0.2669784724712372)
(X_475  0.5256861448287964)
(X_476  0.48453056812286377)
(X_477  0.290858656167984)
(X_478  0.2323789894580841)
(X_479  0.21924236416816711)
(X_480  0.23724405467510223)
(X_481  0.22422736883163452)
(X_482  0.27076613903045654)
(X_483  0.34338825941085815)
(X_484  0.3599702715873718)
(X_485  0.5285096168518066)
(X_486  0.6235148906707764)
(X_487  0.697027325630188)
(X_488  0.7691324949264526)
(X_489  0.8584285378456116)
(X_490  0.8809270262718201)
(X_491  0.8704743981361389)
(X_492  0.7514578700065613)
(X_493  0.6379334926605225)
(X_494  0.6413170099258423)
(X_495  0.6534595489501953)
(X_496  0.5876491069793701)
(X_497  0.4571925103664398)
(X_498  0.19773556292057037)
(X_499  0.2265382558107376)
(X_500  0.23165103793144226)
(X_501  0.22192420065402985)
(X_502  0.3327820897102356)
(X_503  0.5341593623161316)
(X_504  0.3367360234260559)
(X_505  0.24465559422969818)
(X_506  0.26496148109436035)
(X_507  0.3408363461494446)
(X_508  0.298059344291687)
(X_509  0.24451684951782227)
(X_510  0.3248656392097473)
(X_511  0.31514444947242737)
(X_512  0.4247913956642151)
(X_513  0.5722929835319519)
(X_514  0.6689326763153076)
(X_515  0.6859098672866821)
(X_516  0.7551720142364502)
(X_517  0.8182619214057922)
(X_518  0.8072532415390015)
(X_519  0.7654616832733154)
(X_520  0.7698459625244141)
(X_521  0.655894935131073)
(X_522  0.6691344380378723)
(X_523  0.7027754783630371)
(X_524  0.7095168232917786)
(X_525  0.5223327279090881)
(X_526  0.3084772527217865)
(X_527  0.25564640760421753)
(X_528  0.1263476461172104)
(X_529  0.194377601146698)
(X_530  0.3009178638458252)
(X_531  0.4363662302494049)
(X_532  0.4262673854827881)
(X_533  0.2707000970840454)
(X_534  0.27085715532302856)
(X_535  0.2481619268655777)
(X_536  0.18442228436470032)
(X_537  0.2351127564907074)
(X_538  0.2808794379234314)
(X_539  0.34767764806747437)
(X_540  0.26481491327285767)
(X_541  0.4776248335838318)
(X_542  0.615844190120697)
(X_543  0.6404187679290771)
(X_544  0.7431786060333252)
(X_545  0.7993658781051636)
(X_546  0.8905105590820312)
(X_547  0.8846933245658875)
(X_548  0.7787044644355774)
(X_549  0.6016235947608948)
(X_550  0.588230311870575)
(X_551  0.6271663904190063)
(X_552  0.638354480266571)
(X_553  0.5892780423164368)
(X_554  0.32135096192359924)
(X_555  0.2231764793395996)
(X_556  0.3011488914489746)
(X_557  0.28118106722831726)
(X_558  0.31648021936416626)
(X_559  0.32593420147895813)
(X_560  0.40708696842193604)
(X_561  0.2876909673213959)
(X_562  0.1539575159549713)
(X_563  0.19351206719875336)
(X_564  0.23818978667259216)
(X_565  0.19578427076339722)
(X_566  0.236407071352005)
(X_567  0.26228979229927063)
(X_568  0.31331026554107666)
(X_569  0.4667642116546631)
(X_570  0.5624341368675232)
(X_571  0.6446725726127625)
(X_572  0.6977510452270508)
(X_573  0.7915259599685669)
(X_574  0.7913681864738464)
(X_575  0.825925886631012)
(X_576  0.7718788385391235)
(X_577  0.6574397683143616)
(X_578  0.6382294297218323)
(X_579  0.6382173299789429)
(X_580  0.6268296837806702)
(X_581  0.5855998396873474)
(X_582  0.28422778844833374)
(X_583  0.20574750006198883)
(X_584  0.3402394652366638)
(X_585  0.23866280913352966)
(X_586  0.2985166907310486)
(X_587  0.398593544960022)
(X_588  0.23994159698486328)
(X_589  0.20890694856643677)
(X_590  0.2252335101366043)
(X_591  0.23457248508930206)
(X_592  0.24853642284870148)
(X_593  0.2209090292453766)
(X_594  0.2622968256473541)
(X_595  0.22235870361328125)
(X_596  0.18862080574035645)
(X_597  0.3337196707725525)
(X_598  0.5051948428153992)
(X_599  0.6743590235710144)
(X_600  0.7489446401596069)
(X_601  0.817229151725769)
(X_602  0.8367329239845276)
(X_603  0.8892990946769714)
(X_604  0.7560833692550659)
(X_605  0.6785049438476562)
(X_606  0.6446117758750916)
(X_607  0.5990892052650452)
(X_608  0.5864326357841492)
(X_609  0.4270249307155609)
(X_610  0.22081737220287323)
(X_611  0.19805803894996643)
(X_612  0.12291251122951508)
(X_613  0.11746375262737274)
(X_614  0.22394101321697235)
(X_615  0.3868480920791626)
(X_616  0.34381920099258423)
(X_617  0.24016733467578888)
(X_618  0.26360592246055603)
(X_619  0.22987140715122223)
(X_620  0.1268375813961029)
(X_621  0.18898905813694)
(X_622  0.36610132455825806)
(X_623  0.39155423641204834)
(X_624  0.49437281489372253)
(X_625  0.5156213045120239)
(X_626  0.6547433137893677)
(X_627  0.7227347493171692)
(X_628  0.7904207110404968)
(X_629  0.7793546319007874)
(X_630  0.7769611477851868)
(X_631  0.869232714176178)
(X_632  0.6816321015357971)
(X_633  0.5766979455947876)
(X_634  0.5142470002174377)
(X_635  0.46884459257125854)
(X_636  0.4454655349254608)
(X_637  0.35656750202178955)
(X_638  0.25619491934776306)
(X_639  0.26837825775146484)
(X_640  0.22173573076725006)
(X_641  0.21696409583091736)
(X_642  0.20830334722995758)
(X_643  0.29823172092437744)
(X_644  0.31434792280197144)
(X_645  0.20994871854782104)
(X_646  0.13835598528385162)
(X_647  0.21399492025375366)
(X_648  0.41998741030693054)
(X_649  0.5226688385009766)
(X_650  0.6212564706802368)
(X_651  0.6708178520202637)
(X_652  0.6378307938575745)
(X_653  0.6451781988143921)
(X_654  0.7229596376419067)
(X_655  0.7798083424568176)
(X_656  0.7784959673881531)
(X_657  0.8373861908912659)
(X_658  0.786003589630127)
(X_659  0.9285537004470825)
(X_660  0.7700701951980591)
(X_661  0.5863557457923889)
(X_662  0.5958317518234253)
(X_663  0.6726794242858887)
(X_664  0.6189342737197876)
(X_665  0.5376042127609253)
(X_666  0.45984816551208496)
(X_667  0.510746955871582)
(X_668  0.47507381439208984)
(X_669  0.4184270203113556)
(X_670  0.3439536690711975)
(X_671  0.23975716531276703)
(X_672  0.16898691654205322)
(X_673  0.28683871030807495)
(X_674  0.4222401976585388)
(X_675  0.5392565727233887)
(X_676  0.6424633264541626)
(X_677  0.6917771100997925)
(X_678  0.7334356904029846)
(X_679  0.6736849546432495)
(X_680  0.7025363445281982)
(X_681  0.6886616349220276)
(X_682  0.7008552551269531)
(X_683  0.7990309000015259)
(X_684  0.8198865652084351)
(X_685  0.8570196628570557)
(X_686  0.8481334447860718)
(X_687  0.877861738204956)
(X_688  0.7816136479377747)
(X_689  0.7304679751396179)
(X_690  0.7049059867858887)
(X_691  0.705653190612793)
(X_692  0.7492086291313171)
(X_693  0.7540895938873291)
(X_694  0.6391985416412354)
(X_695  0.671153724193573)
(X_696  0.6251507997512817)
(X_697  0.5658634901046753)
(X_698  0.4698902368545532)
(X_699  0.4183569550514221)
(X_700  0.3680705428123474)
(X_701  0.47745418548583984)
(X_702  0.6673390865325928)
(X_703  0.7310265302658081)
(X_704  0.73177170753479)
(X_705  0.7411783337593079)
(X_706  0.7797020077705383)
(X_707  0.7904130220413208)
(X_708  0.7434017062187195)
(X_709  0.7401105165481567)
(X_710  0.6871671676635742)
(X_711  0.8238424062728882)
(X_712  0.8473221063613892)
(X_713  0.8185962438583374)
(X_714  0.8710285425186157)
(X_715  0.9352072477340698)
(X_716  0.7144551873207092)
(X_717  0.7160837650299072)
(X_718  0.7611280083656311)
(X_719  0.8169461488723755)
(X_720  0.8148025274276733)
(X_721  0.7939320206642151)
(X_722  0.7774918079376221)
(X_723  0.7187702655792236)
(X_724  0.6968206167221069)
(X_725  0.653628945350647)
(X_726  0.5905971527099609)
(X_727  0.5287878513336182)
(X_728  0.5850623250007629)
(X_729  0.6438332796096802)
(X_730  0.7826803922653198)
(X_731  0.749445915222168)
(X_732  0.7257694602012634)
(X_733  0.7896705269813538)
(X_734  0.8210245370864868)
(X_735  0.8481178283691406)
(X_736  0.7886254787445068)
(X_737  0.816209077835083)
(X_738  0.7370227575302124)
(X_739  0.8615712523460388)
(X_740  0.8709124326705933)
(X_741  0.8900045156478882)
(X_742  0.9143626093864441)
(X_743  0.9373180270195007)
(X_744  0.7866372466087341)
(X_745  0.7969984412193298)
(X_746  0.8396411538124084)
(X_747  0.8594464659690857)
(X_748  0.8243471384048462)
(X_749  0.8325300812721252)
(X_750  0.7767714262008667)
(X_751  0.7884100675582886)
(X_752  0.7624286413192749)
(X_753  0.7794733643531799)
(X_754  0.6872369647026062)
(X_755  0.5884078741073608)
(X_756  0.6864869594573975)
(X_757  0.6670318245887756)
(X_758  0.7190954685211182)
(X_759  0.7502585649490356)
(X_760  0.814566433429718)
(X_761  0.8696088790893555)
(X_762  0.8730608224868774)
(X_763  0.816760241985321)
(X_764  0.8724339008331299)
(X_765  0.8196761012077332)
(X_766  0.7380552291870117)
(X_767  0.9094860553741455)
(X_768  0.9169471859931946)
(X_769  0.908161997795105)
(X_770  0.9681650400161743)
(X_771  0.9600927233695984)
(X_772  0.8408427834510803)
(X_773  0.8341244459152222)
(X_774  0.8868272304534912)
(X_775  0.910991907119751)
(X_776  0.8301494717597961)
(X_777  0.8397349119186401)
(X_778  0.78167325258255)
(X_779  0.7891279458999634)
(X_780  0.8257498741149902)
(X_781  0.7777968645095825)
(X_782  0.7190373539924622)
(X_783  0.643268883228302)
(Y_0 0.014306455850601196))