((X_0  0.05882352963089943)
(X_1  0.07450980693101883)
(X_2  0.08627451211214066)
(X_3  0.11372549086809158)
(X_4  0.18431372940540314)
(X_5  0.2666666805744171)
(X_6  0.3176470696926117)
(X_7  0.32549020648002625)
(X_8  0.3294117748737335)
(X_9  0.4627451002597809)
(X_10  0.5607843399047852)
(X_11  0.5568627715110779)
(X_12  0.658823549747467)
(X_13  0.729411780834198)
(X_14  0.6509804129600525)
(X_15  0.6549019813537598)
(X_16  0.7098039388656616)
(X_17  0.6392157077789307)
(X_18  0.5843137502670288)
(X_19  0.5137255191802979)
(X_20  0.3960784375667572)
(X_21  0.30588236451148987)
(X_22  0.250980406999588)
(X_23  0.20392157137393951)
(X_24  0.11764705926179886)
(X_25  0.09019608050584793)
(X_26  0.06666667014360428)
(X_27  0.062745101749897)
(X_28  0.23137255012989044)
(X_29  0.2705882489681244)
(X_30  0.3333333432674408)
(X_31  0.3921568691730499)
(X_32  0.4117647111415863)
(X_33  0.38823530077934265)
(X_34  0.3529411852359772)
(X_35  0.33725491166114807)
(X_36  0.4470588266849518)
(X_37  0.5647059082984924)
(X_38  0.6627451181411743)
(X_39  0.658823549747467)
(X_40  0.7098039388656616)
(X_41  0.7137255072593689)
(X_42  0.6313725709915161)
(X_43  0.6745098233222961)
(X_44  0.7176470756530762)
(X_45  0.6705882549285889)
(X_46  0.6352941393852234)
(X_47  0.5568627715110779)
(X_48  0.40784314274787903)
(X_49  0.32156863808631897)
(X_50  0.32549020648002625)
(X_51  0.33725491166114807)
(X_52  0.32156863808631897)
(X_53  0.29019609093666077)
(X_54  0.2549019753932953)
(X_55  0.239215686917305)
(X_56  0.5098039507865906)
(X_57  0.5215686559677124)
(X_58  0.5568627715110779)
(X_59  0.5921568870544434)
(X_60  0.5960784554481506)
(X_61  0.5843137502670288)
(X_62  0.5843137502670288)
(X_63  0.6039215922355652)
(X_64  0.6039215922355652)
(X_65  0.6274510025978088)
(X_66  0.6666666865348816)
(X_67  0.6823529601097107)
(X_68  0.7450980544090271)
(X_69  0.7176470756530762)
(X_70  0.6274510025978088)
(X_71  0.6980392336845398)
(X_72  0.7607843279838562)
(X_73  0.7019608020782471)
(X_74  0.6745098233222961)
(X_75  0.6392157077789307)
(X_76  0.5372549295425415)
(X_77  0.47843137383461)
(X_78  0.501960813999176)
(X_79  0.529411792755127)
(X_80  0.5764706134796143)
(X_81  0.5529412031173706)
(X_82  0.5137255191802979)
(X_83  0.47843137383461)
(X_84  0.615686297416687)
(X_85  0.6078431606292725)
(X_86  0.5803921818733215)
(X_87  0.5607843399047852)
(X_88  0.5882353186607361)
(X_89  0.658823549747467)
(X_90  0.7098039388656616)
(X_91  0.7254902124404907)
(X_92  0.6745098233222961)
(X_93  0.5764706134796143)
(X_94  0.5333333611488342)
(X_95  0.5843137502670288)
(X_96  0.7254902124404907)
(X_97  0.7411764860153198)
(X_98  0.6549019813537598)
(X_99  0.729411780834198)
(X_100  0.7882353067398071)
(X_101  0.6666666865348816)
(X_102  0.6196078658103943)
(X_103  0.6627451181411743)
(X_104  0.6745098233222961)
(X_105  0.6666666865348816)
(X_106  0.6705882549285889)
(X_107  0.658823549747467)
(X_108  0.6235294342041016)
(X_109  0.615686297416687)
(X_110  0.5960784554481506)
(X_111  0.572549045085907)
(X_112  0.6470588445663452)
(X_113  0.6745098233222961)
(X_114  0.6509804129600525)
(X_115  0.6000000238418579)
(X_116  0.6274510025978088)
(X_117  0.686274528503418)
(X_118  0.6549019813537598)
(X_119  0.5647059082984924)
(X_120  0.5960784554481506)
(X_121  0.48627451062202454)
(X_122  0.43529412150382996)
(X_123  0.5058823823928833)
(X_124  0.6901960968971252)
(X_125  0.7490196228027344)
(X_126  0.6901960968971252)
(X_127  0.772549033164978)
(X_128  0.7450980544090271)
(X_129  0.5764706134796143)
(X_130  0.5058823823928833)
(X_131  0.5764706134796143)
(X_132  0.6392157077789307)
(X_133  0.6705882549285889)
(X_134  0.6980392336845398)
(X_135  0.7019608020782471)
(X_136  0.6039215922355652)
(X_137  0.615686297416687)
(X_138  0.6313725709915161)
(X_139  0.6352941393852234)
(X_140  0.7176470756530762)
(X_141  0.7490196228027344)
(X_142  0.729411780834198)
(X_143  0.686274528503418)
(X_144  0.686274528503418)
(X_145  0.6901960968971252)
(X_146  0.5764706134796143)
(X_147  0.4274509847164154)
(X_148  0.4470588266849518)
(X_149  0.4313725531101227)
(X_150  0.4431372582912445)
(X_151  0.501960813999176)
(X_152  0.6627451181411743)
(X_153  0.7450980544090271)
(X_154  0.7215686440467834)
(X_155  0.8156862854957581)
(X_156  0.6784313917160034)
(X_157  0.5058823823928833)
(X_158  0.4274509847164154)
(X_159  0.47058823704719543)
(X_160  0.4901960790157318)
(X_161  0.5215686559677124)
(X_162  0.615686297416687)
(X_163  0.7019608020782471)
(X_164  0.6431372761726379)
(X_165  0.658823549747467)
(X_166  0.6901960968971252)
(X_167  0.7176470756530762)
(X_168  0.7490196228027344)
(X_169  0.7254902124404907)
(X_170  0.6980392336845398)
(X_171  0.6784313917160034)
(X_172  0.658823549747467)
(X_173  0.5960784554481506)
(X_174  0.48235294222831726)
(X_175  0.3843137323856354)
(X_176  0.364705890417099)
(X_177  0.40784314274787903)
(X_178  0.4431372582912445)
(X_179  0.46666666865348816)
(X_180  0.6313725709915161)
(X_181  0.7647058963775635)
(X_182  0.7568627595901489)
(X_183  0.8235294222831726)
(X_184  0.615686297416687)
(X_185  0.45490196347236633)
(X_186  0.3843137323856354)
(X_187  0.4117647111415863)
(X_188  0.4000000059604645)
(X_189  0.40784314274787903)
(X_190  0.5215686559677124)
(X_191  0.6431372761726379)
(X_192  0.6823529601097107)
(X_193  0.6784313917160034)
(X_194  0.6823529601097107)
(X_195  0.7019608020782471)
(X_196  0.7921568751335144)
(X_197  0.7333333492279053)
(X_198  0.7098039388656616)
(X_199  0.7333333492279053)
(X_200  0.6901960968971252)
(X_201  0.5607843399047852)
(X_202  0.4431372582912445)
(X_203  0.40392157435417175)
(X_204  0.35686275362968445)
(X_205  0.3921568691730499)
(X_206  0.3921568691730499)
(X_207  0.3960784375667572)
(X_208  0.6039215922355652)
(X_209  0.800000011920929)
(X_210  0.7921568751335144)
(X_211  0.8117647171020508)
(X_212  0.5647059082984924)
(X_213  0.4000000059604645)
(X_214  0.33725491166114807)
(X_215  0.3921568691730499)
(X_216  0.3921568691730499)
(X_217  0.3764705955982208)
(X_218  0.45490196347236633)
(X_219  0.5490196347236633)
(X_220  0.7607843279838562)
(X_221  0.7333333492279053)
(X_222  0.7058823704719543)
(X_223  0.7019608020782471)
(X_224  0.7490196228027344)
(X_225  0.7529411911964417)
(X_226  0.7176470756530762)
(X_227  0.7490196228027344)
(X_228  0.6274510025978088)
(X_229  0.4588235318660736)
(X_230  0.45490196347236633)
(X_231  0.3960784375667572)
(X_232  0.4156862795352936)
(X_233  0.4156862795352936)
(X_234  0.4117647111415863)
(X_235  0.4000000059604645)
(X_236  0.5764706134796143)
(X_237  0.7843137383460999)
(X_238  0.8078431487083435)
(X_239  0.8156862854957581)
(X_240  0.6078431606292725)
(X_241  0.43921568989753723)
(X_242  0.40784314274787903)
(X_243  0.4117647111415863)
(X_244  0.4000000059604645)
(X_245  0.40392157435417175)
(X_246  0.40392157435417175)
(X_247  0.47058823704719543)
(X_248  0.6313725709915161)
(X_249  0.8117647171020508)
(X_250  0.7215686440467834)
(X_251  0.7568627595901489)
(X_252  0.6980392336845398)
(X_253  0.7372549176216125)
(X_254  0.7490196228027344)
(X_255  0.772549033164978)
(X_256  0.6313725709915161)
(X_257  0.45098039507865906)
(X_258  0.43529412150382996)
(X_259  0.3843137323856354)
(X_260  0.38823530077934265)
(X_261  0.3960784375667572)
(X_262  0.40784314274787903)
(X_263  0.4156862795352936)
(X_264  0.6039215922355652)
(X_265  0.8156862854957581)
(X_266  0.8470588326454163)
(X_267  0.8627451062202454)
(X_268  0.6352941393852234)
(X_269  0.4470588266849518)
(X_270  0.38823530077934265)
(X_271  0.3764705955982208)
(X_272  0.3764705955982208)
(X_273  0.40392157435417175)
(X_274  0.4117647111415863)
(X_275  0.47058823704719543)
(X_276  0.5843137502670288)
(X_277  0.7803921699523926)
(X_278  0.7372549176216125)
(X_279  0.7686274647712708)
(X_280  0.6705882549285889)
(X_281  0.7333333492279053)
(X_282  0.7764706015586853)
(X_283  0.772549033164978)
(X_284  0.6039215922355652)
(X_285  0.4313725531101227)
(X_286  0.4156862795352936)
(X_287  0.38823530077934265)
(X_288  0.3529411852359772)
(X_289  0.3686274588108063)
(X_290  0.4000000059604645)
(X_291  0.4274509847164154)
(X_292  0.615686297416687)
(X_293  0.8235294222831726)
(X_294  0.8549019694328308)
(X_295  0.8784313797950745)
(X_296  0.7098039388656616)
(X_297  0.5176470875740051)
(X_298  0.4431372582912445)
(X_299  0.4117647111415863)
(X_300  0.40784314274787903)
(X_301  0.43529412150382996)
(X_302  0.43529412150382996)
(X_303  0.47843137383461)
(X_304  0.5372549295425415)
(X_305  0.7529411911964417)
(X_306  0.7686274647712708)
(X_307  0.7843137383460999)
(X_308  0.6745098233222961)
(X_309  0.729411780834198)
(X_310  0.7843137383460999)
(X_311  0.7372549176216125)
(X_312  0.5568627715110779)
(X_313  0.41960784792900085)
(X_314  0.4117647111415863)
(X_315  0.40392157435417175)
(X_316  0.35686275362968445)
(X_317  0.3843137323856354)
(X_318  0.4313725531101227)
(X_319  0.4627451002597809)
(X_320  0.6431372761726379)
(X_321  0.8313725590705872)
(X_322  0.8549019694328308)
(X_323  0.8823529481887817)
(X_324  0.7333333492279053)
(X_325  0.5647059082984924)
(X_326  0.49803921580314636)
(X_327  0.43529412150382996)
(X_328  0.3960784375667572)
(X_329  0.40392157435417175)
(X_330  0.3921568691730499)
(X_331  0.4156862795352936)
(X_332  0.5254902243614197)
(X_333  0.7411764860153198)
(X_334  0.8039215803146362)
(X_335  0.7764706015586853)
(X_336  0.6470588445663452)
(X_337  0.7019608020782471)
(X_338  0.7803921699523926)
(X_339  0.7098039388656616)
(X_340  0.5333333611488342)
(X_341  0.4313725531101227)
(X_342  0.3960784375667572)
(X_343  0.3921568691730499)
(X_344  0.3921568691730499)
(X_345  0.4274509847164154)
(X_346  0.48627451062202454)
(X_347  0.529411792755127)
(X_348  0.6941176652908325)
(X_349  0.8627451062202454)
(X_350  0.8784313797950745)
(X_351  0.9098039269447327)
(X_352  0.7843137383460999)
(X_353  0.6431372761726379)
(X_354  0.5764706134796143)
(X_355  0.47058823704719543)
(X_356  0.38823530077934265)
(X_357  0.3960784375667572)
(X_358  0.3960784375667572)
(X_359  0.43529412150382996)
(X_360  0.5176470875740051)
(X_361  0.7176470756530762)
(X_362  0.8078431487083435)
(X_363  0.7215686440467834)
(X_364  0.5607843399047852)
(X_365  0.6431372761726379)
(X_366  0.772549033164978)
(X_367  0.6980392336845398)
(X_368  0.5254902243614197)
(X_369  0.43921568989753723)
(X_370  0.3803921639919281)
(X_371  0.37254902720451355)
(X_372  0.3960784375667572)
(X_373  0.43921568989753723)
(X_374  0.5176470875740051)
(X_375  0.572549045085907)
(X_376  0.729411780834198)
(X_377  0.8784313797950745)
(X_378  0.886274516582489)
(X_379  0.9254902005195618)
(X_380  0.8274509906768799)
(X_381  0.7019608020782471)
(X_382  0.6235294342041016)
(X_383  0.48235294222831726)
(X_384  0.3764705955982208)
(X_385  0.4000000059604645)
(X_386  0.4274509847164154)
(X_387  0.4745098054409027)
(X_388  0.49803921580314636)
(X_389  0.6745098233222961)
(X_390  0.7843137383460999)
(X_391  0.6431372761726379)
(X_392  0.46666666865348816)
(X_393  0.5803921818733215)
(X_394  0.7568627595901489)
(X_395  0.6666666865348816)
(X_396  0.48627451062202454)
(X_397  0.42352941632270813)
(X_398  0.3764705955982208)
(X_399  0.3960784375667572)
(X_400  0.3960784375667572)
(X_401  0.4470588266849518)
(X_402  0.5372549295425415)
(X_403  0.5960784554481506)
(X_404  0.7450980544090271)
(X_405  0.8784313797950745)
(X_406  0.8784313797950745)
(X_407  0.9176470637321472)
(X_408  0.8078431487083435)
(X_409  0.6941176652908325)
(X_410  0.6196078658103943)
(X_411  0.4745098054409027)
(X_412  0.3686274588108063)
(X_413  0.3843137323856354)
(X_414  0.3843137323856354)
(X_415  0.40392157435417175)
(X_416  0.4627451002597809)
(X_417  0.6235294342041016)
(X_418  0.7568627595901489)
(X_419  0.5882353186607361)
(X_420  0.41960784792900085)
(X_421  0.545098066329956)
(X_422  0.7372549176216125)
(X_423  0.6235294342041016)
(X_424  0.4313725531101227)
(X_425  0.3960784375667572)
(X_426  0.3843137323856354)
(X_427  0.4470588266849518)
(X_428  0.4274509847164154)
(X_429  0.47843137383461)
(X_430  0.5686274766921997)
(X_431  0.6274510025978088)
(X_432  0.7647058963775635)
(X_433  0.886274516582489)
(X_434  0.8784313797950745)
(X_435  0.9215686321258545)
(X_436  0.8588235378265381)
(X_437  0.7568627595901489)
(X_438  0.6980392336845398)
(X_439  0.5686274766921997)
(X_440  0.47058823704719543)
(X_441  0.4588235318660736)
(X_442  0.40784314274787903)
(X_443  0.3803921639919281)
(X_444  0.4431372582912445)
(X_445  0.5960784554481506)
(X_446  0.7450980544090271)
(X_447  0.5686274766921997)
(X_448  0.3803921639919281)
(X_449  0.5843137502670288)
(X_450  0.686274528503418)
(X_451  0.572549045085907)
(X_452  0.4470588266849518)
(X_453  0.43529412150382996)
(X_454  0.4313725531101227)
(X_455  0.3843137323856354)
(X_456  0.40392157435417175)
(X_457  0.4274509847164154)
(X_458  0.48627451062202454)
(X_459  0.6352941393852234)
(X_460  0.800000011920929)
(X_461  0.8588235378265381)
(X_462  0.8823529481887817)
(X_463  0.9333333373069763)
(X_464  0.8274509906768799)
(X_465  0.7647058963775635)
(X_466  0.7058823704719543)
(X_467  0.6117647290229797)
(X_468  0.4588235318660736)
(X_469  0.3843137323856354)
(X_470  0.42352941632270813)
(X_471  0.46666666865348816)
(X_472  0.4901960790157318)
(X_473  0.5254902243614197)
(X_474  0.7137255072593689)
(X_475  0.5764706134796143)
(X_476  0.29411765933036804)
(X_477  0.5647059082984924)
(X_478  0.7098039388656616)
(X_479  0.5921568870544434)
(X_480  0.4313725531101227)
(X_481  0.3921568691730499)
(X_482  0.3960784375667572)
(X_483  0.3843137323856354)
(X_484  0.45098039507865906)
(X_485  0.4627451002597809)
(X_486  0.501960813999176)
(X_487  0.6352941393852234)
(X_488  0.7921568751335144)
(X_489  0.8588235378265381)
(X_490  0.8784313797950745)
(X_491  0.9254902005195618)
(X_492  0.8156862854957581)
(X_493  0.7647058963775635)
(X_494  0.7568627595901489)
(X_495  0.7137255072593689)
(X_496  0.5568627715110779)
(X_497  0.4156862795352936)
(X_498  0.3686274588108063)
(X_499  0.3686274588108063)
(X_500  0.45098039507865906)
(X_501  0.5215686559677124)
(X_502  0.7411764860153198)
(X_503  0.615686297416687)
(X_504  0.2862745225429535)
(X_505  0.5529412031173706)
(X_506  0.6627451181411743)
(X_507  0.5176470875740051)
(X_508  0.3764705955982208)
(X_509  0.37254902720451355)
(X_510  0.41960784792900085)
(X_511  0.4470588266849518)
(X_512  0.45490196347236633)
(X_513  0.45490196347236633)
(X_514  0.48235294222831726)
(X_515  0.6078431606292725)
(X_516  0.772549033164978)
(X_517  0.8509804010391235)
(X_518  0.8705882430076599)
(X_519  0.9137254953384399)
(X_520  0.7960784435272217)
(X_521  0.7372549176216125)
(X_522  0.7568627595901489)
(X_523  0.772549033164978)
(X_524  0.6470588445663452)
(X_525  0.48235294222831726)
(X_526  0.40392157435417175)
(X_527  0.3921568691730499)
(X_528  0.3960784375667572)
(X_529  0.4588235318660736)
(X_530  0.6745098233222961)
(X_531  0.5960784554481506)
(X_532  0.2823529541492462)
(X_533  0.529411792755127)
(X_534  0.6000000238418579)
(X_535  0.45098039507865906)
(X_536  0.3803921639919281)
(X_537  0.40784314274787903)
(X_538  0.4313725531101227)
(X_539  0.43921568989753723)
(X_540  0.3921568691730499)
(X_541  0.40392157435417175)
(X_542  0.43921568989753723)
(X_543  0.5686274766921997)
(X_544  0.7450980544090271)
(X_545  0.8392156958580017)
(X_546  0.8627451062202454)
(X_547  0.8980392217636108)
(X_548  0.7960784435272217)
(X_549  0.6980392336845398)
(X_550  0.6901960968971252)
(X_551  0.7215686440467834)
(X_552  0.6274510025978088)
(X_553  0.48627451062202454)
(X_554  0.43921568989753723)
(X_555  0.45490196347236633)
(X_556  0.40784314274787903)
(X_557  0.4274509847164154)
(X_558  0.5960784554481506)
(X_559  0.5607843399047852)
(X_560  0.20392157137393951)
(X_561  0.5058823823928833)
(X_562  0.6000000238418579)
(X_563  0.46666666865348816)
(X_564  0.4000000059604645)
(X_565  0.3921568691730499)
(X_566  0.3607843220233917)
(X_567  0.35686275362968445)
(X_568  0.37254902720451355)
(X_569  0.4000000059604645)
(X_570  0.4431372582912445)
(X_571  0.5686274766921997)
(X_572  0.7411764860153198)
(X_573  0.8313725590705872)
(X_574  0.8549019694328308)
(X_575  0.8784313797950745)
(X_576  0.7803921699523926)
(X_577  0.6627451181411743)
(X_578  0.6352941393852234)
(X_579  0.6627451181411743)
(X_580  0.572549045085907)
(X_581  0.43921568989753723)
(X_582  0.3921568691730499)
(X_583  0.40392157435417175)
(X_584  0.4156862795352936)
(X_585  0.43529412150382996)
(X_586  0.5960784554481506)
(X_587  0.5960784554481506)
(X_588  0.16078431904315948)
(X_589  0.5098039507865906)
(X_590  0.6078431606292725)
(X_591  0.42352941632270813)
(X_592  0.3333333432674408)
(X_593  0.32549020648002625)
(X_594  0.34117648005485535)
(X_595  0.40784314274787903)
(X_596  0.47058823704719543)
(X_597  0.501960813999176)
(X_598  0.5411764979362488)
(X_599  0.6313725709915161)
(X_600  0.7686274647712708)
(X_601  0.8392156958580017)
(X_602  0.8509804010391235)
(X_603  0.8666666746139526)
(X_604  0.729411780834198)
(X_605  0.6431372761726379)
(X_606  0.6431372761726379)
(X_607  0.6745098233222961)
(X_608  0.5882353186607361)
(X_609  0.4588235318660736)
(X_610  0.3960784375667572)
(X_611  0.3803921639919281)
(X_612  0.3529411852359772)
(X_613  0.40392157435417175)
(X_614  0.5921568870544434)
(X_615  0.6235294342041016)
(X_616  0.14901961386203766)
(X_617  0.4941176474094391)
(X_618  0.5529412031173706)
(X_619  0.3529411852359772)
(X_620  0.30588236451148987)
(X_621  0.37254902720451355)
(X_622  0.4627451002597809)
(X_623  0.5882353186607361)
(X_624  0.6274510025978088)
(X_625  0.6627451181411743)
(X_626  0.6745098233222961)
(X_627  0.7215686440467834)
(X_628  0.8117647171020508)
(X_629  0.8549019694328308)
(X_630  0.8588235378265381)
(X_631  0.8784313797950745)
(X_632  0.7411764860153198)
(X_633  0.6705882549285889)
(X_634  0.6666666865348816)
(X_635  0.6745098233222961)
(X_636  0.6000000238418579)
(X_637  0.5137255191802979)
(X_638  0.47843137383461)
(X_639  0.4588235318660736)
(X_640  0.41960784792900085)
(X_641  0.41960784792900085)
(X_642  0.545098066329956)
(X_643  0.5921568870544434)
(X_644  0.10196078568696976)
(X_645  0.43921568989753723)
(X_646  0.4941176474094391)
(X_647  0.3490196168422699)
(X_648  0.3960784375667572)
(X_649  0.5137255191802979)
(X_650  0.5960784554481506)
(X_651  0.7058823704719543)
(X_652  0.7411764860153198)
(X_653  0.7686274647712708)
(X_654  0.7647058963775635)
(X_655  0.7764706015586853)
(X_656  0.8392156958580017)
(X_657  0.8705882430076599)
(X_658  0.8745098114013672)
(X_659  0.8980392217636108)
(X_660  0.8117647171020508)
(X_661  0.729411780834198)
(X_662  0.6745098233222961)
(X_663  0.6313725709915161)
(X_664  0.5490196347236633)
(X_665  0.5098039507865906)
(X_666  0.5215686559677124)
(X_667  0.529411792755127)
(X_668  0.6274510025978088)
(X_669  0.5176470875740051)
(X_670  0.5254902243614197)
(X_671  0.5568627715110779)
(X_672  0.08235294371843338)
(X_673  0.32549020648002625)
(X_674  0.49803921580314636)
(X_675  0.4156862795352936)
(X_676  0.572549045085907)
(X_677  0.6745098233222961)
(X_678  0.7019608020782471)
(X_679  0.7450980544090271)
(X_680  0.7803921699523926)
(X_681  0.7647058963775635)
(X_682  0.7254902124404907)
(X_683  0.7411764860153198)
(X_684  0.8156862854957581)
(X_685  0.8549019694328308)
(X_686  0.8666666746139526)
(X_687  0.9019607901573181)
(X_688  0.7960784435272217)
(X_689  0.7372549176216125)
(X_690  0.7372549176216125)
(X_691  0.7803921699523926)
(X_692  0.7960784435272217)
(X_693  0.8039215803146362)
(X_694  0.7921568751335144)
(X_695  0.7450980544090271)
(X_696  0.7686274647712708)
(X_697  0.6627451181411743)
(X_698  0.6117647290229797)
(X_699  0.501960813999176)
(X_700  0.062745101749897)
(X_701  0.3019607961177826)
(X_702  0.5490196347236633)
(X_703  0.5215686559677124)
(X_704  0.6274510025978088)
(X_705  0.6980392336845398)
(X_706  0.7411764860153198)
(X_707  0.7764706015586853)
(X_708  0.7921568751335144)
(X_709  0.7843137383460999)
(X_710  0.7490196228027344)
(X_711  0.7568627595901489)
(X_712  0.8274509906768799)
(X_713  0.8627451062202454)
(X_714  0.8705882430076599)
(X_715  0.8980392217636108)
(X_716  0.8313725590705872)
(X_717  0.7764706015586853)
(X_718  0.7843137383460999)
(X_719  0.8156862854957581)
(X_720  0.8196078538894653)
(X_721  0.8196078538894653)
(X_722  0.8078431487083435)
(X_723  0.7686274647712708)
(X_724  0.7568627595901489)
(X_725  0.686274528503418)
(X_726  0.6431372761726379)
(X_727  0.48627451062202454)
(X_728  0.03921568766236305)
(X_729  0.250980406999588)
(X_730  0.5921568870544434)
(X_731  0.6392157077789307)
(X_732  0.6823529601097107)
(X_733  0.7137255072593689)
(X_734  0.7803921699523926)
(X_735  0.8039215803146362)
(X_736  0.8117647171020508)
(X_737  0.8117647171020508)
(X_738  0.7803921699523926)
(X_739  0.7803921699523926)
(X_740  0.8392156958580017)
(X_741  0.8666666746139526)
(X_742  0.8666666746139526)
(X_743  0.8901960849761963)
(X_744  0.8549019694328308)
(X_745  0.8156862854957581)
(X_746  0.8235294222831726)
(X_747  0.8509804010391235)
(X_748  0.8352941274642944)
(X_749  0.8274509906768799)
(X_750  0.8196078538894653)
(X_751  0.7921568751335144)
(X_752  0.7529411911964417)
(X_753  0.7176470756530762)
(X_754  0.6745098233222961)
(X_755  0.4627451002597809)
(X_756  0.0470588244497776)
(X_757  0.20000000298023224)
(X_758  0.5882353186607361)
(X_759  0.6901960968971252)
(X_760  0.6941176652908325)
(X_761  0.7137255072593689)
(X_762  0.8039215803146362)
(X_763  0.8039215803146362)
(X_764  0.8196078538894653)
(X_765  0.8352941274642944)
(X_766  0.8039215803146362)
(X_767  0.7960784435272217)
(X_768  0.843137264251709)
(X_769  0.8666666746139526)
(X_770  0.8588235378265381)
(X_771  0.8745098114013672)
(X_772  0.8509804010391235)
(X_773  0.8196078538894653)
(X_774  0.8392156958580017)
(X_775  0.8588235378265381)
(X_776  0.8313725590705872)
(X_777  0.8196078538894653)
(X_778  0.8196078538894653)
(X_779  0.800000011920929)
(X_780  0.7568627595901489)
(X_781  0.7411764860153198)
(X_782  0.686274528503418)
(X_783  0.43529412150382996)
(Y_0 0.7896473407745361))