((X_0  0.03999999910593033)
(X_1  0.051764704287052155)
(X_2  0.0752941220998764)
(X_3  0.11058823764324188)
(X_4  0.14588235318660736)
(X_5  0.14588235318660736)
(X_6  0.09490196406841278)
(X_7  0.03999999910593033)
(X_8  0.09490196406841278)
(X_9  0.07372549176216125)
(X_10  0.1129411831498146)
(X_11  0.23450981080532074)
(X_12  0.4501960873603821)
(X_13  0.5717647075653076)
(X_14  0.6070588231086731)
(X_15  0.6737254858016968)
(X_16  0.634509801864624)
(X_17  0.5835294127464294)
(X_18  0.591372549533844)
(X_19  0.634509801864624)
(X_20  0.6580392122268677)
(X_21  0.7223529815673828)
(X_22  0.6203922033309937)
(X_23  0.4870588183403015)
(X_24  0.33803921937942505)
(X_25  0.20862746238708496)
(X_26  0.01098039373755455)
(X_27  -0.028235293924808502)
(X_28  -0.008627448230981827)
(X_29  0.038431376218795776)
(X_30  0.1850980520248413)
(X_31  0.24000000953674316)
(X_32  0.27137255668640137)
(X_33  0.25960785150527954)
(X_34  0.19294118881225586)
(X_35  0.12627451121807098)
(X_36  0.14588235318660736)
(X_37  0.1537254899740219)
(X_38  0.1286274492740631)
(X_39  0.3050980567932129)
(X_40  0.4894118010997772)
(X_41  0.5325490236282349)
(X_42  0.5835294127464294)
(X_43  0.7168627381324768)
(X_44  0.6266666650772095)
(X_45  0.6305882334709167)
(X_46  0.6737254858016968)
(X_47  0.7772549390792847)
(X_48  0.7380392551422119)
(X_49  0.6792157292366028)
(X_50  0.5811765193939209)
(X_51  0.46745097637176514)
(X_52  0.17333334684371948)
(X_53  0.08313725888729095)
(X_54  -0.03999999910593033)
(X_55  -0.03999999910593033)
(X_56  0.06196078658103943)
(X_57  0.2203921675682068)
(X_58  0.31843137741088867)
(X_59  0.38509804010391235)
(X_60  0.408627450466156)
(X_61  0.3811764717102051)
(X_62  0.3145098090171814)
(X_63  0.25568628311157227)
(X_64  0.20470589399337769)
(X_65  0.27529412508010864)
(X_66  0.23058824241161346)
(X_67  0.28156864643096924)
(X_68  0.3952941298484802)
(X_69  0.4894118010997772)
(X_70  0.5521568655967712)
(X_71  0.6109803915023804)
(X_72  0.710588276386261)
(X_73  0.6305882334709167)
(X_74  0.6541176438331604)
(X_75  0.6501960754394531)
(X_76  0.6792157292366028)
(X_77  0.6282353401184082)
(X_78  0.5498039722442627)
(X_79  0.4439215660095215)
(X_80  0.17725491523742676)
(X_81  0.02666667103767395)
(X_82  -0.02431372180581093)
(X_83  -0.020392153412103653)
(X_84  0.1639215648174286)
(X_85  0.31843137741088867)
(X_86  0.40470588207244873)
(X_87  0.44784313440322876)
(X_88  0.37568628787994385)
(X_89  0.43607842922210693)
(X_90  0.3968627452850342)
(X_91  0.28156864643096924)
(X_92  0.2266666740179062)
(X_93  0.26588237285614014)
(X_94  0.2698039412498474)
(X_95  0.3419607877731323)
(X_96  0.40078431367874146)
(X_97  0.49490195512771606)
(X_98  0.5654902458190918)
(X_99  0.5929412245750427)
(X_100  0.591372549533844)
(X_101  0.5639215707778931)
(X_102  0.5639215707778931)
(X_103  0.5639215707778931)
(X_104  0.5364705920219421)
(X_105  0.4894118010997772)
(X_106  0.3717647194862366)
(X_107  0.21882353723049164)
(X_108  0.08705882728099823)
(X_109  -0.03999999910593033)
(X_110  -0.03999999910593033)
(X_111  -0.03999999910593033)
(X_112  0.2541176676750183)
(X_113  0.3050980567932129)
(X_114  0.4282352924346924)
(X_115  0.43607842922210693)
(X_116  0.4282352924346924)
(X_117  0.3482353091239929)
(X_118  0.35607844591140747)
(X_119  0.36000001430511475)
(X_120  0.36000001430511475)
(X_121  0.2423529475927353)
(X_122  0.24627451598644257)
(X_123  0.44784313440322876)
(X_124  0.47921568155288696)
(X_125  0.43607842922210693)
(X_126  0.4909803867340088)
(X_127  0.6086274981498718)
(X_128  0.48549023270606995)
(X_129  0.4894118010997772)
(X_130  0.5168627500534058)
(X_131  0.5129411816596985)
(X_132  0.46980395913124084)
(X_133  0.40705883502960205)
(X_134  0.26196080446243286)
(X_135  0.09333334118127823)
(X_136  0.13019607961177826)
(X_137  0.01098039373755455)
(X_138  -0.028235293924808502)
(X_139  -0.03999999910593033)
(X_140  0.3615686297416687)
(X_141  0.31294119358062744)
(X_142  0.32862746715545654)
(X_143  0.3968627452850342)
(X_144  0.3929411768913269)
(X_145  0.34431374073028564)
(X_146  0.3874509930610657)
(X_147  0.4149019718170166)
(X_148  0.4305882453918457)
(X_149  0.34039217233657837)
(X_150  0.3521568775177002)
(X_151  0.5066666603088379)
(X_152  0.49490195512771606)
(X_153  0.46352940797805786)
(X_154  0.4149019718170166)
(X_155  0.45803922414779663)
(X_156  0.40705883502960205)
(X_157  0.43843138217926025)
(X_158  0.46588239073753357)
(X_159  0.4266666769981384)
(X_160  0.36000001430511475)
(X_161  0.34431374073028564)
(X_162  0.30901962518692017)
(X_163  0.2266666740179062)
(X_164  0.2227451056241989)
(X_165  0.18745097517967224)
(X_166  0.13647058606147766)
(X_167  0.0972549095749855)
(X_168  0.2227451056241989)
(X_169  0.2580392360687256)
(X_170  0.2854902148246765)
(X_171  0.2894117832183838)
(X_172  0.30901962518692017)
(X_173  0.36000001430511475)
(X_174  0.4149019718170166)
(X_175  0.4462745189666748)
(X_176  0.43843138217926025)
(X_177  0.5301960706710815)
(X_178  0.5262745022773743)
(X_179  0.4399999976158142)
(X_180  0.3733333349227905)
(X_181  0.4596078395843506)
(X_182  0.5262745022773743)
(X_183  0.3835294246673584)
(X_184  0.3992156982421875)
(X_185  0.4188235402107239)
(X_186  0.4266666769981384)
(X_187  0.37568628787994385)
(X_188  0.3325490355491638)
(X_189  0.3796078562736511)
(X_190  0.4149019718170166)
(X_191  0.37568628787994385)
(X_192  0.2423529475927353)
(X_193  0.23843137919902802)
(X_194  0.2266666740179062)
(X_195  0.21490196883678436)
(X_196  0.15215685963630676)
(X_197  0.19921568036079407)
(X_198  0.24627451598644257)
(X_199  0.27764707803726196)
(X_200  0.320784330368042)
(X_201  0.3796078562736511)
(X_202  0.4305882453918457)
(X_203  0.45803922414779663)
(X_204  0.4501960873603821)
(X_205  0.4909803867340088)
(X_206  0.46745097637176514)
(X_207  0.3811764717102051)
(X_208  0.294901967048645)
(X_209  0.29725492000579834)
(X_210  0.4305882453918457)
(X_211  0.4462745189666748)
(X_212  0.4870588183403015)
(X_213  0.4188235402107239)
(X_214  0.43843138217926025)
(X_215  0.4266666769981384)
(X_216  0.4188235402107239)
(X_217  0.45411765575408936)
(X_218  0.4266666769981384)
(X_219  0.320784330368042)
(X_220  0.34431374073028564)
(X_221  0.35607844591140747)
(X_222  0.36000001430511475)
(X_223  0.3482353091239929)
(X_224  0.1443137228488922)
(X_225  0.19137254357337952)
(X_226  0.26196080446243286)
(X_227  0.2854902148246765)
(X_228  0.3168627619743347)
(X_229  0.4149019718170166)
(X_230  0.5615686774253845)
(X_231  0.5341176390647888)
(X_232  0.43215686082839966)
(X_233  0.3968627452850342)
(X_234  0.3498039245605469)
(X_235  0.28705883026123047)
(X_236  0.2792156934738159)
(X_237  0.31294119358062744)
(X_238  0.434509813785553)
(X_239  0.5380392074584961)
(X_240  0.5458824038505554)
(X_241  0.5850980877876282)
(X_242  0.47921568155288696)
(X_243  0.4125490188598633)
(X_244  0.28156864643096924)
(X_245  0.3364706039428711)
(X_246  0.4933333694934845)
(X_247  0.44235295057296753)
(X_248  0.42274510860443115)
(X_249  0.48156866431236267)
(X_250  0.4031372666358948)
(X_251  0.3482353091239929)
(X_252  0.0972549095749855)
(X_253  0.11686275154352188)
(X_254  0.20705881714820862)
(X_255  0.3168627619743347)
(X_256  0.4149019718170166)
(X_257  0.48156866431236267)
(X_258  0.4462745189666748)
(X_259  0.4125490188598633)
(X_260  0.365490198135376)
(X_261  0.33803921937942505)
(X_262  0.30666667222976685)
(X_263  0.2674509882926941)
(X_264  0.27529412508010864)
(X_265  0.31294119358062744)
(X_266  0.434509813785553)
(X_267  0.5380392074584961)
(X_268  0.5458824038505554)
(X_269  0.5498039722442627)
(X_270  0.4713725447654724)
(X_271  0.3733333349227905)
(X_272  0.31843137741088867)
(X_273  0.320784330368042)
(X_274  0.46588239073753357)
(X_275  0.46980395913124084)
(X_276  0.45411765575408936)
(X_277  0.5011764764785767)
(X_278  0.4266666769981384)
(X_279  0.39137256145477295)
(X_280  0.10274510085582733)
(X_281  0.13411764800548553)
(X_282  0.19137254357337952)
(X_283  0.3717647194862366)
(X_284  0.48156866431236267)
(X_285  0.4933333694934845)
(X_286  0.4713725447654724)
(X_287  0.3301960825920105)
(X_288  0.3145098090171814)
(X_289  0.29098039865493774)
(X_290  0.2792156934738159)
(X_291  0.2674509882926941)
(X_292  0.294901967048645)
(X_293  0.3325490355491638)
(X_294  0.4462745189666748)
(X_295  0.5419608354568481)
(X_296  0.5850980877876282)
(X_297  0.5341176390647888)
(X_298  0.4909803867340088)
(X_299  0.3419607877731323)
(X_300  0.251764714717865)
(X_301  0.33803921937942505)
(X_302  0.35607844591140747)
(X_303  0.4188235402107239)
(X_304  0.434509813785553)
(X_305  0.4737255275249481)
(X_306  0.4109804034233093)
(X_307  0.4188235402107239)
(X_308  0.051764704287052155)
(X_309  0.13411764800548553)
(X_310  0.24627451598644257)
(X_311  0.42274510860443115)
(X_312  0.4619608223438263)
(X_313  0.49490195512771606)
(X_314  0.41647058725357056)
(X_315  0.3341176509857178)
(X_316  0.2988235354423523)
(X_317  0.2792156934738159)
(X_318  0.28705883026123047)
(X_319  0.30666667222976685)
(X_320  0.3458823561668396)
(X_321  0.37568628787994385)
(X_322  0.5498039722442627)
(X_323  0.5576471090316772)
(X_324  0.6047059297561646)
(X_325  0.5262745022773743)
(X_326  0.5301960706710815)
(X_327  0.36941176652908325)
(X_328  0.24784314632415771)
(X_329  0.30666667222976685)
(X_330  0.2698039412498474)
(X_331  0.3678431510925293)
(X_332  0.4776470959186554)
(X_333  0.5050980448722839)
(X_334  0.44235295057296753)
(X_335  0.4619608223438263)
(X_336  0.03999999910593033)
(X_337  0.16156862676143646)
(X_338  0.3050980567932129)
(X_339  0.4501960873603821)
(X_340  0.4266666769981384)
(X_341  0.4282352924346924)
(X_342  0.36941176652908325)
(X_343  0.32235294580459595)
(X_344  0.28705883026123047)
(X_345  0.27137255668640137)
(X_346  0.2988235354423523)
(X_347  0.35372549295425415)
(X_348  0.4125490188598633)
(X_349  0.434509813785553)
(X_350  0.5050980448722839)
(X_351  0.5011764764785767)
(X_352  0.5772549510002136)
(X_353  0.5105882287025452)
(X_354  0.55372554063797)
(X_355  0.4399999976158142)
(X_356  0.31843137741088867)
(X_357  0.3262745141983032)
(X_358  0.33803921937942505)
(X_359  0.35607844591140747)
(X_360  0.48549023270606995)
(X_361  0.5090196132659912)
(X_362  0.4305882453918457)
(X_363  0.4188235402107239)
(X_364  0.05568627640604973)
(X_365  0.1129411831498146)
(X_366  0.32470589876174927)
(X_367  0.43843138217926025)
(X_368  0.4752941131591797)
(X_369  0.3929411768913269)
(X_370  0.3301960825920105)
(X_371  0.2674509882926941)
(X_372  0.27137255668640137)
(X_373  0.25568628311157227)
(X_374  0.30666667222976685)
(X_375  0.3929411768913269)
(X_376  0.4713725447654724)
(X_377  0.48549023270606995)
(X_378  0.5403921604156494)
(X_379  0.5247058868408203)
(X_380  0.48549023270606995)
(X_381  0.5184313654899597)
(X_382  0.5498039722442627)
(X_383  0.4909803867340088)
(X_384  0.365490198135376)
(X_385  0.2988235354423523)
(X_386  0.30666667222976685)
(X_387  0.3733333349227905)
(X_388  0.43843138217926025)
(X_389  0.4933333694934845)
(X_390  0.4188235402107239)
(X_391  0.3796078562736511)
(X_392  0.06352940946817398)
(X_393  0.1443137228488922)
(X_394  0.34431374073028564)
(X_395  0.4752941131591797)
(X_396  0.3929411768913269)
(X_397  0.3301960825920105)
(X_398  0.30274510383605957)
(X_399  0.2635294198989868)
(X_400  0.2792156934738159)
(X_401  0.2635294198989868)
(X_402  0.3262745141983032)
(X_403  0.4282352924346924)
(X_404  0.434509813785553)
(X_405  0.5129411816596985)
(X_406  0.5521568655967712)
(X_407  0.5286274552345276)
(X_408  0.5811765193939209)
(X_409  0.5498039722442627)
(X_410  0.5301960706710815)
(X_411  0.522352933883667)
(X_412  0.3929411768913269)
(X_413  0.2674509882926941)
(X_414  0.30274510383605957)
(X_415  0.3341176509857178)
(X_416  0.5027450919151306)
(X_417  0.5286274552345276)
(X_418  0.4776470959186554)
(X_419  0.42274510860443115)
(X_420  0.05568627640604973)
(X_421  0.17176470160484314)
(X_422  0.3678431510925293)
(X_423  0.43607842922210693)
(X_424  0.294901967048645)
(X_425  0.251764714717865)
(X_426  0.294901967048645)
(X_427  0.30666667222976685)
(X_428  0.30666667222976685)
(X_429  0.28705883026123047)
(X_430  0.3498039245605469)
(X_431  0.4556862711906433)
(X_432  0.5380392074584961)
(X_433  0.5286274552345276)
(X_434  0.548235297203064)
(X_435  0.5168627500534058)
(X_436  0.5050980448722839)
(X_437  0.5694118142127991)
(X_438  0.5145097970962524)
(X_439  0.5498039722442627)
(X_440  0.43607842922210693)
(X_441  0.21490196883678436)
(X_442  0.36941176652908325)
(X_443  0.38509804010391235)
(X_444  0.4439215660095215)
(X_445  0.4972549378871918)
(X_446  0.45803922414779663)
(X_447  0.3835294246673584)
(X_448  0.06352940946817398)
(X_449  0.20313724875450134)
(X_450  0.3717647194862366)
(X_451  0.3498039245605469)
(X_452  0.3929411768913269)
(X_453  0.19686275720596313)
(X_454  0.2792156934738159)
(X_455  0.2831372618675232)
(X_456  0.294901967048645)
(X_457  0.27529412508010864)
(X_458  0.3576470613479614)
(X_459  0.4909803867340088)
(X_460  0.48156866431236267)
(X_461  0.520784318447113)
(X_462  0.5521568655967712)
(X_463  0.6321569085121155)
(X_464  0.5576471090316772)
(X_465  0.5419608354568481)
(X_466  0.5654902458190918)
(X_467  0.522352933883667)
(X_468  0.44784313440322876)
(X_469  0.33803921937942505)
(X_470  0.251764714717865)
(X_471  0.3301960825920105)
(X_472  0.40470588207244873)
(X_473  0.4501960873603821)
(X_474  0.46980395913124084)
(X_475  0.27764707803726196)
(X_476  0.06352940946817398)
(X_477  0.26196080446243286)
(X_478  0.42039215564727783)
(X_479  0.22823530435562134)
(X_480  0.24784314632415771)
(X_481  0.20470589399337769)
(X_482  0.2635294198989868)
(X_483  0.17333334684371948)
(X_484  0.24784314632415771)
(X_485  0.24392157793045044)
(X_486  0.35372549295425415)
(X_487  0.5145097970962524)
(X_488  0.6007843613624573)
(X_489  0.5560784339904785)
(X_490  0.5678431391716003)
(X_491  0.5443137288093567)
(X_492  0.5090196132659912)
(X_493  0.5498039722442627)
(X_494  0.5498039722442627)
(X_495  0.5105882287025452)
(X_496  0.4713725447654724)
(X_497  0.38509804010391235)
(X_498  0.294901967048645)
(X_499  0.3576470613479614)
(X_500  0.42039215564727783)
(X_501  0.55372554063797)
(X_502  0.4619608223438263)
(X_503  0.2580392360687256)
(X_504  -0.004705879837274551)
(X_505  0.2698039412498474)
(X_506  0.3576470613479614)
(X_507  0.21254903078079224)
(X_508  0.2321568727493286)
(X_509  0.3105882406234741)
(X_510  0.3498039245605469)
(X_511  0.2635294198989868)
(X_512  0.25960785150527954)
(X_513  0.24784314632415771)
(X_514  0.3498039245605469)
(X_515  0.5066666603088379)
(X_516  0.6047059297561646)
(X_517  0.5639215707778931)
(X_518  0.5639215707778931)
(X_519  0.5286274552345276)
(X_520  0.5850980877876282)
(X_521  0.5341176390647888)
(X_522  0.5301960706710815)
(X_523  0.5066666603088379)
(X_524  0.49490195512771606)
(X_525  0.42039215564727783)
(X_526  0.2988235354423523)
(X_527  0.3301960825920105)
(X_528  0.41647058725357056)
(X_529  0.5576471090316772)
(X_530  0.4109804034233093)
(X_531  0.1952941119670868)
(X_532  0.04627451300621033)
(X_533  0.25019609928131104)
(X_534  0.2423529475927353)
(X_535  0.3576470613479614)
(X_536  0.3733333349227905)
(X_537  0.43607842922210693)
(X_538  0.4556862711906433)
(X_539  0.47921568155288696)
(X_540  0.3929411768913269)
(X_541  0.35372549295425415)
(X_542  0.40078431367874146)
(X_543  0.5105882287025452)
(X_544  0.5890196561813354)
(X_545  0.5560784339904785)
(X_546  0.5600000023841858)
(X_547  0.520784318447113)
(X_548  0.5498039722442627)
(X_549  0.5145097970962524)
(X_550  0.5301960706710815)
(X_551  0.5184313654899597)
(X_552  0.5066666603088379)
(X_553  0.4243137240409851)
(X_554  0.2792156934738159)
(X_555  0.2831372618675232)
(X_556  0.38901960849761963)
(X_557  0.5262745022773743)
(X_558  0.3168627619743347)
(X_559  0.10901961475610733)
(X_560  0.09333334118127823)
(X_561  0.27764707803726196)
(X_562  0.365490198135376)
(X_563  0.49490195512771606)
(X_564  0.4909803867340088)
(X_565  0.5027450919151306)
(X_566  0.48313724994659424)
(X_567  0.55372554063797)
(X_568  0.5341176390647888)
(X_569  0.48313724994659424)
(X_570  0.49882352352142334)
(X_571  0.5615686774253845)
(X_572  0.6086274981498718)
(X_573  0.5639215707778931)
(X_574  0.5560784339904785)
(X_575  0.5090196132659912)
(X_576  0.5184313654899597)
(X_577  0.5027450919151306)
(X_578  0.5262745022773743)
(X_579  0.5027450919151306)
(X_580  0.48313724994659424)
(X_581  0.40470588207244873)
(X_582  0.27529412508010864)
(X_583  0.28705883026123047)
(X_584  0.38509804010391235)
(X_585  0.49882352352142334)
(X_586  0.21490196883678436)
(X_587  0.04235294461250305)
(X_588  0.10509804636240005)
(X_589  0.3364706039428711)
(X_590  0.44784313440322876)
(X_591  0.45803922414779663)
(X_592  0.45803922414779663)
(X_593  0.48156866431236267)
(X_594  0.4501960873603821)
(X_595  0.46980395913124084)
(X_596  0.48549023270606995)
(X_597  0.5341176390647888)
(X_598  0.5615686774253845)
(X_599  0.6125490665435791)
(X_600  0.6360784769058228)
(X_601  0.5639215707778931)
(X_602  0.5325490236282349)
(X_603  0.4619608223438263)
(X_604  0.49882352352142334)
(X_605  0.4870588183403015)
(X_606  0.5027450919151306)
(X_607  0.4556862711906433)
(X_608  0.4282352924346924)
(X_609  0.36941176652908325)
(X_610  0.2674509882926941)
(X_611  0.294901967048645)
(X_612  0.320784330368042)
(X_613  0.3952941298484802)
(X_614  0.12470588833093643)
(X_615  0.0031372569501399994)
(X_616  0.1443137228488922)
(X_617  0.3678431510925293)
(X_618  0.4031372666358948)
(X_619  0.4501960873603821)
(X_620  0.4894118010997772)
(X_621  0.520784318447113)
(X_622  0.5129411816596985)
(X_623  0.5011764764785767)
(X_624  0.5694118142127991)
(X_625  0.4737255275249481)
(X_626  0.5929412245750427)
(X_627  0.6360784769058228)
(X_628  0.6439216136932373)
(X_629  0.5600000023841858)
(X_630  0.6007843613624573)
(X_631  0.5262745022773743)
(X_632  0.5184313654899597)
(X_633  0.5105882287025452)
(X_634  0.522352933883667)
(X_635  0.4752941131591797)
(X_636  0.4439215660095215)
(X_637  0.3733333349227905)
(X_638  0.24784314632415771)
(X_639  0.25568628311157227)
(X_640  0.30901962518692017)
(X_641  0.3482353091239929)
(X_642  0.0345098078250885)
(X_643  -0.02431372180581093)
(X_644  0.2227451056241989)
(X_645  0.37568628787994385)
(X_646  0.39137256145477295)
(X_647  0.44235295057296753)
(X_648  0.5129411816596985)
(X_649  0.5050980448722839)
(X_650  0.5168627500534058)
(X_651  0.6086274981498718)
(X_652  0.6086274981498718)
(X_653  0.59686279296875)
(X_654  0.6282353401184082)
(X_655  0.5756862759590149)
(X_656  0.5717647075653076)
(X_657  0.5678431391716003)
(X_658  0.5403921604156494)
(X_659  0.4776470959186554)
(X_660  0.5654902458190918)
(X_661  0.5654902458190918)
(X_662  0.5929412245750427)
(X_663  0.55372554063797)
(X_664  0.44235295057296753)
(X_665  0.4243137240409851)
(X_666  0.24784314632415771)
(X_667  0.2164705991744995)
(X_668  0.3576470613479614)
(X_669  0.3772549033164978)
(X_670  -0.03607843071222305)
(X_671  -0.03999999910593033)
(X_672  0.2698039412498474)
(X_673  0.34431374073028564)
(X_674  0.4266666769981384)
(X_675  0.4776470959186554)
(X_676  0.5090196132659912)
(X_677  0.6125490665435791)
(X_678  0.548235297203064)
(X_679  0.5443137288093567)
(X_680  0.5286274552345276)
(X_681  0.5678431391716003)
(X_682  0.6478431820869446)
(X_683  0.5678431391716003)
(X_684  0.5835294127464294)
(X_685  0.5639215707778931)
(X_686  0.5403921604156494)
(X_687  0.5560784339904785)
(X_688  0.6125490665435791)
(X_689  0.6086274981498718)
(X_690  0.5890196561813354)
(X_691  0.4737255275249481)
(X_692  0.5105882287025452)
(X_693  0.4556862711906433)
(X_694  0.38901960849761963)
(X_695  0.3419607877731323)
(X_696  0.4282352924346924)
(X_697  0.16549021005630493)
(X_698  0.07137255370616913)
(X_699  0.051764704287052155)
(X_700  0.2894117832183838)
(X_701  0.36000001430511475)
(X_702  0.44235295057296753)
(X_703  0.4894118010997772)
(X_704  0.520784318447113)
(X_705  0.5443137288093567)
(X_706  0.5560784339904785)
(X_707  0.6321569085121155)
(X_708  0.5443137288093567)
(X_709  0.5796078443527222)
(X_710  0.5796078443527222)
(X_711  0.5756862759590149)
(X_712  0.591372549533844)
(X_713  0.5678431391716003)
(X_714  0.5443137288093567)
(X_715  0.5600000023841858)
(X_716  0.6243137717247009)
(X_717  0.6243137717247009)
(X_718  0.5364705920219421)
(X_719  0.5129411816596985)
(X_720  0.48156866431236267)
(X_721  0.522352933883667)
(X_722  0.46745097637176514)
(X_723  0.42039215564727783)
(X_724  0.38901960849761963)
(X_725  0.13411764800548553)
(X_726  0.051764704287052155)
(X_727  0.043921567499637604)
(X_728  0.3929411768913269)
(X_729  0.46352940797805786)
(X_730  0.5419608354568481)
(X_731  0.5090196132659912)
(X_732  0.5325490236282349)
(X_733  0.5521568655967712)
(X_734  0.5639215707778931)
(X_735  0.5600000023841858)
(X_736  0.5600000023841858)
(X_737  0.5952941179275513)
(X_738  0.591372549533844)
(X_739  0.5874509811401367)
(X_740  0.5992156863212585)
(X_741  0.5717647075653076)
(X_742  0.5443137288093567)
(X_743  0.5600000023841858)
(X_744  0.5325490236282349)
(X_745  0.5364705920219421)
(X_746  0.5286274552345276)
(X_747  0.5090196132659912)
(X_748  0.4894118010997772)
(X_749  0.46588239073753357)
(X_750  0.49490195512771606)
(X_751  0.363921582698822)
(X_752  0.3341176509857178)
(X_753  0.0909803956747055)
(X_754  -0.03999999910593033)
(X_755  0.03999999910593033)
(X_756  0.408627450466156)
(X_757  0.47921568155288696)
(X_758  0.4737255275249481)
(X_759  0.5168627500534058)
(X_760  0.5403921604156494)
(X_761  0.5600000023841858)
(X_762  0.5678431391716003)
(X_763  0.5639215707778931)
(X_764  0.5717647075653076)
(X_765  0.6031372547149658)
(X_766  0.5992156863212585)
(X_767  0.591372549533844)
(X_768  0.5992156863212585)
(X_769  0.5717647075653076)
(X_770  0.5403921604156494)
(X_771  0.6360784769058228)
(X_772  0.5168627500534058)
(X_773  0.5247058868408203)
(X_774  0.5090196132659912)
(X_775  0.48156866431236267)
(X_776  0.46588239073753357)
(X_777  0.4501960873603821)
(X_778  0.3952941298484802)
(X_779  0.3364706039428711)
(X_780  0.21882353723049164)
(X_781  -0.012549019418656826)
(X_782  0.03999999910593033)
(X_783  -0.03999999910593033)
(Y_0 0.42783406376838684))