((X_0  0.21490196883678436)
(X_1  0.17568626999855042)
(X_2  0.1639215648174286)
(X_3  0.1952941119670868)
(X_4  0.2266666740179062)
(X_5  0.2737255096435547)
(X_6  0.35607844591140747)
(X_7  0.43843138217926025)
(X_8  0.48549023270606995)
(X_9  0.6047059297561646)
(X_10  0.64000004529953)
(X_11  0.64000004529953)
(X_12  0.6360784769058228)
(X_13  0.6439216136932373)
(X_14  0.6517647504806519)
(X_15  0.6517647504806519)
(X_16  0.6321569085121155)
(X_17  0.5694118142127991)
(X_18  0.4909803867340088)
(X_19  0.43607842922210693)
(X_20  0.408627450466156)
(X_21  0.30901962518692017)
(X_22  0.27764707803726196)
(X_23  0.2541176676750183)
(X_24  0.2109804004430771)
(X_25  0.23058824241161346)
(X_26  0.3341176509857178)
(X_27  0.3498039245605469)
(X_28  0.3105882406234741)
(X_29  0.3105882406234741)
(X_30  0.2541176676750183)
(X_31  0.3011764883995056)
(X_32  0.3482353091239929)
(X_33  0.39137256145477295)
(X_34  0.44235295057296753)
(X_35  0.48549023270606995)
(X_36  0.5247058868408203)
(X_37  0.5560784339904785)
(X_38  0.6596078872680664)
(X_39  0.6556863188743591)
(X_40  0.6478431820869446)
(X_41  0.6556863188743591)
(X_42  0.667451024055481)
(X_43  0.6713725924491882)
(X_44  0.6596078872680664)
(X_45  0.64000004529953)
(X_46  0.6125490665435791)
(X_47  0.5129411816596985)
(X_48  0.4894118010997772)
(X_49  0.4501960873603821)
(X_50  0.3992156982421875)
(X_51  0.35607844591140747)
(X_52  0.3011764883995056)
(X_53  0.3050980567932129)
(X_54  0.3968627452850342)
(X_55  0.40078431367874146)
(X_56  0.35372549295425415)
(X_57  0.3011764883995056)
(X_58  0.34039217233657837)
(X_59  0.3835294246673584)
(X_60  0.44235295057296753)
(X_61  0.5050980448722839)
(X_62  0.5364705920219421)
(X_63  0.5403921604156494)
(X_64  0.5600000023841858)
(X_65  0.5874509811401367)
(X_66  0.6831372976303101)
(X_67  0.6713725924491882)
(X_68  0.667451024055481)
(X_69  0.6792157292366028)
(X_70  0.6909804344177246)
(X_71  0.6909804344177246)
(X_72  0.591372549533844)
(X_73  0.6752941608428955)
(X_74  0.6831372976303101)
(X_75  0.6831372976303101)
(X_76  0.5835294127464294)
(X_77  0.5364705920219421)
(X_78  0.4776470959186554)
(X_79  0.434509813785553)
(X_80  0.3835294246673584)
(X_81  0.4556862711906433)
(X_82  0.45176470279693604)
(X_83  0.4439215660095215)
(X_84  0.4125490188598633)
(X_85  0.363921582698822)
(X_86  0.3835294246673584)
(X_87  0.3992156982421875)
(X_88  0.5341176390647888)
(X_89  0.5325490236282349)
(X_90  0.5678431391716003)
(X_91  0.64000004529953)
(X_92  0.64000004529953)
(X_93  0.6713725924491882)
(X_94  0.6909804344177246)
(X_95  0.6109803915023804)
(X_96  0.6109803915023804)
(X_97  0.6227450966835022)
(X_98  0.6266666650772095)
(X_99  0.6188235282897949)
(X_100  0.6635294556617737)
(X_101  0.6713725924491882)
(X_102  0.6752941608428955)
(X_103  0.667451024055481)
(X_104  0.6478431820869446)
(X_105  0.6125490665435791)
(X_106  0.5772549510002136)
(X_107  0.5576471090316772)
(X_108  0.44235295057296753)
(X_109  0.5105882287025452)
(X_110  0.49882352352142334)
(X_111  0.4909803867340088)
(X_112  0.4713725447654724)
(X_113  0.5027450919151306)
(X_114  0.43843138217926025)
(X_115  0.43843138217926025)
(X_116  0.4737255275249481)
(X_117  0.6086274981498718)
(X_118  0.6282353401184082)
(X_119  0.6125490665435791)
(X_120  0.6203922033309937)
(X_121  0.6556863188743591)
(X_122  0.6909804344177246)
(X_123  0.6266666650772095)
(X_124  0.634509801864624)
(X_125  0.6423529386520386)
(X_126  0.6305882334709167)
(X_127  0.6149019598960876)
(X_128  0.6596078872680664)
(X_129  0.6635294556617737)
(X_130  0.667451024055481)
(X_131  0.667451024055481)
(X_132  0.6596078872680664)
(X_133  0.6439216136932373)
(X_134  0.6282353401184082)
(X_135  0.6164706349372864)
(X_136  0.5011764764785767)
(X_137  0.5654902458190918)
(X_138  0.55372554063797)
(X_139  0.5498039722442627)
(X_140  0.4305882453918457)
(X_141  0.5498039722442627)
(X_142  0.5929412245750427)
(X_143  0.5325490236282349)
(X_144  0.5364705920219421)
(X_145  0.6164706349372864)
(X_146  0.6047059297561646)
(X_147  0.5850980877876282)
(X_148  0.6086274981498718)
(X_149  0.6478431820869446)
(X_150  0.6909804344177246)
(X_151  0.634509801864624)
(X_152  0.6501960754394531)
(X_153  0.6541176438331604)
(X_154  0.7184314131736755)
(X_155  0.6909804344177246)
(X_156  0.6478431820869446)
(X_157  0.6556863188743591)
(X_158  0.6713725924491882)
(X_159  0.6949020028114319)
(X_160  0.7066667079925537)
(X_161  0.7066667079925537)
(X_162  0.6870588660240173)
(X_163  0.6713725924491882)
(X_164  0.6125490665435791)
(X_165  0.5929412245750427)
(X_166  0.5694118142127991)
(X_167  0.5615686774253845)
(X_168  0.5380392074584961)
(X_169  0.5772549510002136)
(X_170  0.64000004529953)
(X_171  0.6792157292366028)
(X_172  0.6635294556617737)
(X_173  0.6203922033309937)
(X_174  0.5929412245750427)
(X_175  0.5929412245750427)
(X_176  0.6321569085121155)
(X_177  0.5835294127464294)
(X_178  0.6188235282897949)
(X_179  0.6384313702583313)
(X_180  0.6541176438331604)
(X_181  0.661960780620575)
(X_182  0.6423529386520386)
(X_183  0.6949020028114319)
(X_184  0.6556863188743591)
(X_185  0.6517647504806519)
(X_186  0.6596078872680664)
(X_187  0.6870588660240173)
(X_188  0.7184314131736755)
(X_189  0.7301961183547974)
(X_190  0.7184314131736755)
(X_191  0.6988235712051392)
(X_192  0.6321569085121155)
(X_193  0.59686279296875)
(X_194  0.55372554063797)
(X_195  0.5341176390647888)
(X_196  0.55372554063797)
(X_197  0.5850980877876282)
(X_198  0.6478431820869446)
(X_199  0.6909804344177246)
(X_200  0.667451024055481)
(X_201  0.6086274981498718)
(X_202  0.5929412245750427)
(X_203  0.6203922033309937)
(X_204  0.6596078872680664)
(X_205  0.6031372547149658)
(X_206  0.6266666650772095)
(X_207  0.6423529386520386)
(X_208  0.6541176438331604)
(X_209  0.7458823919296265)
(X_210  0.7301961183547974)
(X_211  0.7066667079925537)
(X_212  0.6149019598960876)
(X_213  0.667451024055481)
(X_214  0.6439216136932373)
(X_215  0.6556863188743591)
(X_216  0.6909804344177246)
(X_217  0.7223529815673828)
(X_218  0.7223529815673828)
(X_219  0.7145098447799683)
(X_220  0.6556863188743591)
(X_221  0.6125490665435791)
(X_222  0.55372554063797)
(X_223  0.5145097970962524)
(X_224  0.5262745022773743)
(X_225  0.5929412245750427)
(X_226  0.6596078872680664)
(X_227  0.6635294556617737)
(X_228  0.6164706349372864)
(X_229  0.5850980877876282)
(X_230  0.5286274552345276)
(X_231  0.5678431391716003)
(X_232  0.6070588231086731)
(X_233  0.6149019598960876)
(X_234  0.634509801864624)
(X_235  0.6541176438331604)
(X_236  0.6698039174079895)
(X_237  0.7498039603233337)
(X_238  0.7380392551422119)
(X_239  0.6423529386520386)
(X_240  0.6227450966835022)
(X_241  0.6031372547149658)
(X_242  0.5952941179275513)
(X_243  0.6031372547149658)
(X_244  0.6909804344177246)
(X_245  0.6909804344177246)
(X_246  0.7027451395988464)
(X_247  0.7223529815673828)
(X_248  0.6478431820869446)
(X_249  0.5929412245750427)
(X_250  0.5341176390647888)
(X_251  0.49882352352142334)
(X_252  0.5380392074584961)
(X_253  0.6125490665435791)
(X_254  0.6713725924491882)
(X_255  0.6517647504806519)
(X_256  0.6086274981498718)
(X_257  0.6047059297561646)
(X_258  0.6439216136932373)
(X_259  0.5992156863212585)
(X_260  0.6227450966835022)
(X_261  0.6305882334709167)
(X_262  0.6462745070457458)
(X_263  0.6658823490142822)
(X_264  0.6815686225891113)
(X_265  0.7615686655044556)
(X_266  0.7458823919296265)
(X_267  0.6541176438331604)
(X_268  0.6266666650772095)
(X_269  0.6070588231086731)
(X_270  0.5992156863212585)
(X_271  0.6070588231086731)
(X_272  0.6109803915023804)
(X_273  0.6909804344177246)
(X_274  0.7066667079925537)
(X_275  0.7262745499610901)
(X_276  0.6635294556617737)
(X_277  0.6047059297561646)
(X_278  0.5301960706710815)
(X_279  0.4909803867340088)
(X_280  0.46980395913124084)
(X_281  0.5560784339904785)
(X_282  0.6831372976303101)
(X_283  0.64000004529953)
(X_284  0.6047059297561646)
(X_285  0.6360784769058228)
(X_286  0.6109803915023804)
(X_287  0.6384313702583313)
(X_288  0.6462745070457458)
(X_289  0.6541176438331604)
(X_290  0.6658823490142822)
(X_291  0.6815686225891113)
(X_292  0.6933333277702332)
(X_293  0.7733333706855774)
(X_294  0.7576470971107483)
(X_295  0.6658823490142822)
(X_296  0.634509801864624)
(X_297  0.6188235282897949)
(X_298  0.6070588231086731)
(X_299  0.6149019598960876)
(X_300  0.6149019598960876)
(X_301  0.6149019598960876)
(X_302  0.7066667079925537)
(X_303  0.7262745499610901)
(X_304  0.6870588660240173)
(X_305  0.6203922033309937)
(X_306  0.5341176390647888)
(X_307  0.48313724994659424)
(X_308  0.4776470959186554)
(X_309  0.5717647075653076)
(X_310  0.6909804344177246)
(X_311  0.6360784769058228)
(X_312  0.6164706349372864)
(X_313  0.5952941179275513)
(X_314  0.6541176438331604)
(X_315  0.661960780620575)
(X_316  0.661960780620575)
(X_317  0.6658823490142822)
(X_318  0.677647054195404)
(X_319  0.6933333277702332)
(X_320  0.7011764645576477)
(X_321  0.7811765074729919)
(X_322  0.6854901909828186)
(X_323  0.6737254858016968)
(X_324  0.6501960754394531)
(X_325  0.6305882334709167)
(X_326  0.6188235282897949)
(X_327  0.6188235282897949)
(X_328  0.6188235282897949)
(X_329  0.6149019598960876)
(X_330  0.7027451395988464)
(X_331  0.7223529815673828)
(X_332  0.710588276386261)
(X_333  0.64000004529953)
(X_334  0.5419608354568481)
(X_335  0.47921568155288696)
(X_336  0.4972549378871918)
(X_337  0.5756862759590149)
(X_338  0.6831372976303101)
(X_339  0.6360784769058228)
(X_340  0.6360784769058228)
(X_341  0.6266666650772095)
(X_342  0.6737254858016968)
(X_343  0.6698039174079895)
(X_344  0.6737254858016968)
(X_345  0.6737254858016968)
(X_346  0.6815686225891113)
(X_347  0.6972548961639404)
(X_348  0.705098032951355)
(X_349  0.7850980758666992)
(X_350  0.7733333706855774)
(X_351  0.7615686655044556)
(X_352  0.661960780620575)
(X_353  0.6423529386520386)
(X_354  0.6266666650772095)
(X_355  0.6227450966835022)
(X_356  0.6188235282897949)
(X_357  0.6070588231086731)
(X_358  0.6149019598960876)
(X_359  0.710588276386261)
(X_360  0.7223529815673828)
(X_361  0.6596078872680664)
(X_362  0.5615686774253845)
(X_363  0.4870588183403015)
(X_364  0.5325490236282349)
(X_365  0.6517647504806519)
(X_366  0.6556863188743591)
(X_367  0.6282353401184082)
(X_368  0.5678431391716003)
(X_369  0.6384313702583313)
(X_370  0.677647054195404)
(X_371  0.6698039174079895)
(X_372  0.677647054195404)
(X_373  0.677647054195404)
(X_374  0.6854901909828186)
(X_375  0.6972548961639404)
(X_376  0.7090196013450623)
(X_377  0.7929412126541138)
(X_378  0.7850980758666992)
(X_379  0.7733333706855774)
(X_380  0.7576470971107483)
(X_381  0.6541176438331604)
(X_382  0.634509801864624)
(X_383  0.6266666650772095)
(X_384  0.6149019598960876)
(X_385  0.5952941179275513)
(X_386  0.5992156863212585)
(X_387  0.6109803915023804)
(X_388  0.7262745499610901)
(X_389  0.6792157292366028)
(X_390  0.5890196561813354)
(X_391  0.49882352352142334)
(X_392  0.5796078443527222)
(X_393  0.6439216136932373)
(X_394  0.6164706349372864)
(X_395  0.5325490236282349)
(X_396  0.5717647075653076)
(X_397  0.634509801864624)
(X_398  0.6698039174079895)
(X_399  0.6698039174079895)
(X_400  0.6815686225891113)
(X_401  0.6815686225891113)
(X_402  0.6894117593765259)
(X_403  0.705098032951355)
(X_404  0.796862781047821)
(X_405  0.8007843494415283)
(X_406  0.796862781047821)
(X_407  0.7890196442604065)
(X_408  0.6894117593765259)
(X_409  0.6658823490142822)
(X_410  0.6384313702583313)
(X_411  0.6266666650772095)
(X_412  0.6070588231086731)
(X_413  0.5874509811401367)
(X_414  0.5835294127464294)
(X_415  0.5952941179275513)
(X_416  0.6384313702583313)
(X_417  0.6949020028114319)
(X_418  0.6164706349372864)
(X_419  0.5184313654899597)
(X_420  0.6149019598960876)
(X_421  0.64000004529953)
(X_422  0.5929412245750427)
(X_423  0.5129411816596985)
(X_424  0.5639215707778931)
(X_425  0.6266666650772095)
(X_426  0.661960780620575)
(X_427  0.6737254858016968)
(X_428  0.6854901909828186)
(X_429  0.6854901909828186)
(X_430  0.6933333277702332)
(X_431  0.7090196013450623)
(X_432  0.7247058749198914)
(X_433  0.8125490546226501)
(X_434  0.8086274862289429)
(X_435  0.8007843494415283)
(X_436  0.7772549390792847)
(X_437  0.6698039174079895)
(X_438  0.6423529386520386)
(X_439  0.6266666650772095)
(X_440  0.6031372547149658)
(X_441  0.6596078872680664)
(X_442  0.5756862759590149)
(X_443  0.5835294127464294)
(X_444  0.634509801864624)
(X_445  0.6988235712051392)
(X_446  0.6321569085121155)
(X_447  0.5301960706710815)
(X_448  0.6070588231086731)
(X_449  0.6360784769058228)
(X_450  0.5890196561813354)
(X_451  0.5090196132659912)
(X_452  0.5600000023841858)
(X_453  0.6188235282897949)
(X_454  0.661960780620575)
(X_455  0.6737254858016968)
(X_456  0.6894117593765259)
(X_457  0.6933333277702332)
(X_458  0.705098032951355)
(X_459  0.7129411697387695)
(X_460  0.796862781047821)
(X_461  0.8007843494415283)
(X_462  0.796862781047821)
(X_463  0.7168627381324768)
(X_464  0.705098032951355)
(X_465  0.677647054195404)
(X_466  0.6384313702583313)
(X_467  0.6031372547149658)
(X_468  0.5835294127464294)
(X_469  0.5756862759590149)
(X_470  0.5717647075653076)
(X_471  0.5717647075653076)
(X_472  0.6031372547149658)
(X_473  0.7027451395988464)
(X_474  0.6556863188743591)
(X_475  0.5498039722442627)
(X_476  0.6149019598960876)
(X_477  0.6321569085121155)
(X_478  0.48549023270606995)
(X_479  0.4737255275249481)
(X_480  0.5247058868408203)
(X_481  0.5992156863212585)
(X_482  0.6501960754394531)
(X_483  0.6698039174079895)
(X_484  0.6854901909828186)
(X_485  0.6894117593765259)
(X_486  0.7011764645576477)
(X_487  0.7090196013450623)
(X_488  0.7168627381324768)
(X_489  0.8007843494415283)
(X_490  0.8007843494415283)
(X_491  0.8007843494415283)
(X_492  0.7890196442604065)
(X_493  0.6815686225891113)
(X_494  0.6501960754394531)
(X_495  0.6188235282897949)
(X_496  0.6031372547149658)
(X_497  0.591372549533844)
(X_498  0.5835294127464294)
(X_499  0.5796078443527222)
(X_500  0.6109803915023804)
(X_501  0.6305882334709167)
(X_502  0.6752941608428955)
(X_503  0.5850980877876282)
(X_504  0.6870588660240173)
(X_505  0.6086274981498718)
(X_506  0.44235295057296753)
(X_507  0.42274510860443115)
(X_508  0.4776470959186554)
(X_509  0.5639215707778931)
(X_510  0.6305882334709167)
(X_511  0.6580392122268677)
(X_512  0.6815686225891113)
(X_513  0.6854901909828186)
(X_514  0.6933333277702332)
(X_515  0.705098032951355)
(X_516  0.7129411697387695)
(X_517  0.8007843494415283)
(X_518  0.8047059178352356)
(X_519  0.8047059178352356)
(X_520  0.6894117593765259)
(X_521  0.6698039174079895)
(X_522  0.6462745070457458)
(X_523  0.6227450966835022)
(X_524  0.6070588231086731)
(X_525  0.5952941179275513)
(X_526  0.5835294127464294)
(X_527  0.5717647075653076)
(X_528  0.6070588231086731)
(X_529  0.6305882334709167)
(X_530  0.6909804344177246)
(X_531  0.6203922033309937)
(X_532  0.6517647504806519)
(X_533  0.5772549510002136)
(X_534  0.49882352352142334)
(X_535  0.40705883502960205)
(X_536  0.46980395913124084)
(X_537  0.5560784339904785)
(X_538  0.6188235282897949)
(X_539  0.6462745070457458)
(X_540  0.677647054195404)
(X_541  0.6854901909828186)
(X_542  0.6933333277702332)
(X_543  0.7011764645576477)
(X_544  0.7129411697387695)
(X_545  0.8007843494415283)
(X_546  0.8086274862289429)
(X_547  0.8125490546226501)
(X_548  0.6894117593765259)
(X_549  0.677647054195404)
(X_550  0.661960780620575)
(X_551  0.6462745070457458)
(X_552  0.634509801864624)
(X_553  0.6188235282897949)
(X_554  0.6031372547149658)
(X_555  0.5874509811401367)
(X_556  0.5952941179275513)
(X_557  0.6188235282897949)
(X_558  0.6870588660240173)
(X_559  0.64000004529953)
(X_560  0.6243137717247009)
(X_561  0.5772549510002136)
(X_562  0.45411765575408936)
(X_563  0.45803922414779663)
(X_564  0.5168627500534058)
(X_565  0.5874509811401367)
(X_566  0.6384313702583313)
(X_567  0.661960780620575)
(X_568  0.6854901909828186)
(X_569  0.6894117593765259)
(X_570  0.6933333277702332)
(X_571  0.705098032951355)
(X_572  0.7129411697387695)
(X_573  0.8047059178352356)
(X_574  0.8125490546226501)
(X_575  0.8164706230163574)
(X_576  0.7207843065261841)
(X_577  0.7129411697387695)
(X_578  0.7011764645576477)
(X_579  0.6933333277702332)
(X_580  0.6854901909828186)
(X_581  0.6698039174079895)
(X_582  0.6501960754394531)
(X_583  0.6384313702583313)
(X_584  0.5992156863212585)
(X_585  0.6149019598960876)
(X_586  0.6870588660240173)
(X_587  0.6556863188743591)
(X_588  0.6243137717247009)
(X_589  0.6125490665435791)
(X_590  0.5325490236282349)
(X_591  0.6321569085121155)
(X_592  0.6792157292366028)
(X_593  0.7262745499610901)
(X_594  0.7576470971107483)
(X_595  0.7733333706855774)
(X_596  0.7772549390792847)
(X_597  0.6972548961639404)
(X_598  0.7011764645576477)
(X_599  0.7090196013450623)
(X_600  0.7168627381324768)
(X_601  0.8086274862289429)
(X_602  0.8164706230163574)
(X_603  0.8203921914100647)
(X_604  0.7286274433135986)
(X_605  0.7207843065261841)
(X_606  0.7129411697387695)
(X_607  0.7090196013450623)
(X_608  0.705098032951355)
(X_609  0.6933333277702332)
(X_610  0.6737254858016968)
(X_611  0.661960780620575)
(X_612  0.7066667079925537)
(X_613  0.710588276386261)
(X_614  0.6949020028114319)
(X_615  0.667451024055481)
(X_616  0.64000004529953)
(X_617  0.6596078872680664)
(X_618  0.6870588660240173)
(X_619  0.7145098447799683)
(X_620  0.7380392551422119)
(X_621  0.7615686655044556)
(X_622  0.7811765074729919)
(X_623  0.7929412126541138)
(X_624  0.7090196013450623)
(X_625  0.7890196442604065)
(X_626  0.7090196013450623)
(X_627  0.7129411697387695)
(X_628  0.7207843065261841)
(X_629  0.8086274862289429)
(X_630  0.7403921484947205)
(X_631  0.7443137168884277)
(X_632  0.7168627381324768)
(X_633  0.7129411697387695)
(X_634  0.705098032951355)
(X_635  0.7011764645576477)
(X_636  0.7011764645576477)
(X_637  0.6933333277702332)
(X_638  0.677647054195404)
(X_639  0.6658823490142822)
(X_640  0.7341176867485046)
(X_641  0.7223529815673828)
(X_642  0.6949020028114319)
(X_643  0.6635294556617737)
(X_644  0.6478431820869446)
(X_645  0.6831372976303101)
(X_646  0.7262745499610901)
(X_647  0.753725528717041)
(X_648  0.7615686655044556)
(X_649  0.7694118022918701)
(X_650  0.7850980758666992)
(X_651  0.7168627381324768)
(X_652  0.7168627381324768)
(X_653  0.7168627381324768)
(X_654  0.7168627381324768)
(X_655  0.796862781047821)
(X_656  0.8007843494415283)
(X_657  0.8125490546226501)
(X_658  0.8203921914100647)
(X_659  0.824313759803772)
(X_660  0.7286274433135986)
(X_661  0.7207843065261841)
(X_662  0.7129411697387695)
(X_663  0.7090196013450623)
(X_664  0.7890196442604065)
(X_665  0.705098032951355)
(X_666  0.6933333277702332)
(X_667  0.6815686225891113)
(X_668  0.6658823490142822)
(X_669  0.6462745070457458)
(X_670  0.6909804344177246)
(X_671  0.6556863188743591)
(X_672  0.667451024055481)
(X_673  0.6949020028114319)
(X_674  0.7341176867485046)
(X_675  0.7615686655044556)
(X_676  0.7694118022918701)
(X_677  0.6972548961639404)
(X_678  0.7890196442604065)
(X_679  0.8007843494415283)
(X_680  0.8086274862289429)
(X_681  0.8047059178352356)
(X_682  0.7247058749198914)
(X_683  0.8125490546226501)
(X_684  0.8203921914100647)
(X_685  0.8282353281974792)
(X_686  0.8282353281974792)
(X_687  0.824313759803772)
(X_688  0.748235285282135)
(X_689  0.7364705801010132)
(X_690  0.7247058749198914)
(X_691  0.8007843494415283)
(X_692  0.7168627381324768)
(X_693  0.7129411697387695)
(X_694  0.7011764645576477)
(X_695  0.6894117593765259)
(X_696  0.6658823490142822)
(X_697  0.6541176438331604)
(X_698  0.6266666650772095)
(X_699  0.5952941179275513)
(X_700  0.6713725924491882)
(X_701  0.6988235712051392)
(X_702  0.7380392551422119)
(X_703  0.7615686655044556)
(X_704  0.7733333706855774)
(X_705  0.7811765074729919)
(X_706  0.7929412126541138)
(X_707  0.7207843065261841)
(X_708  0.8086274862289429)
(X_709  0.8047059178352356)
(X_710  0.8047059178352356)
(X_711  0.8125490546226501)
(X_712  0.824313759803772)
(X_713  0.8282353281974792)
(X_714  0.8282353281974792)
(X_715  0.824313759803772)
(X_716  0.7403921484947205)
(X_717  0.7247058749198914)
(X_718  0.7929412126541138)
(X_719  0.7890196442604065)
(X_720  0.7890196442604065)
(X_721  0.7090196013450623)
(X_722  0.6972548961639404)
(X_723  0.6854901909828186)
(X_724  0.6658823490142822)
(X_725  0.6580392122268677)
(X_726  0.6266666650772095)
(X_727  0.591372549533844)
(X_728  0.5952941179275513)
(X_729  0.6227450966835022)
(X_730  0.661960780620575)
(X_731  0.7694118022918701)
(X_732  0.7772549390792847)
(X_733  0.7850980758666992)
(X_734  0.796862781047821)
(X_735  0.8086274862289429)
(X_736  0.8047059178352356)
(X_737  0.8047059178352356)
(X_738  0.8047059178352356)
(X_739  0.8125490546226501)
(X_740  0.824313759803772)
(X_741  0.8282353281974792)
(X_742  0.8282353281974792)
(X_743  0.8203921914100647)
(X_744  0.8047059178352356)
(X_745  0.7890196442604065)
(X_746  0.7733333706855774)
(X_747  0.7733333706855774)
(X_748  0.7811765074729919)
(X_749  0.7811765074729919)
(X_750  0.6894117593765259)
(X_751  0.7576470971107483)
(X_752  0.6737254858016968)
(X_753  0.6580392122268677)
(X_754  0.7027451395988464)
(X_755  0.5835294127464294)
(X_756  0.5992156863212585)
(X_757  0.6266666650772095)
(X_758  0.7458823919296265)
(X_759  0.7733333706855774)
(X_760  0.7811765074729919)
(X_761  0.7890196442604065)
(X_762  0.8007843494415283)
(X_763  0.8125490546226501)
(X_764  0.8047059178352356)
(X_765  0.8047059178352356)
(X_766  0.8047059178352356)
(X_767  0.8164706230163574)
(X_768  0.8282353281974792)
(X_769  0.8321568965911865)
(X_770  0.824313759803772)
(X_771  0.7403921484947205)
(X_772  0.7929412126541138)
(X_773  0.7733333706855774)
(X_774  0.753725528717041)
(X_775  0.753725528717041)
(X_776  0.7694118022918701)
(X_777  0.7772549390792847)
(X_778  0.7654902338981628)
(X_779  0.753725528717041)
(X_780  0.7576470971107483)
(X_781  0.7419608235359192)
(X_782  0.6188235282897949)
(X_783  0.6556863188743591)
(Y_0 -0.4473203718662262))