((X_0  0.3458823561668396)
(X_1  0.44784313440322876)
(X_2  0.5262745022773743)
(X_3  0.5341176390647888)
(X_4  0.522352933883667)
(X_5  0.5105882287025452)
(X_6  0.4556862711906433)
(X_7  0.38901960849761963)
(X_8  0.35372549295425415)
(X_9  0.2854902148246765)
(X_10  0.34431374073028564)
(X_11  0.4266666769981384)
(X_12  0.5286274552345276)
(X_13  0.4619608223438263)
(X_14  0.520784318447113)
(X_15  0.5011764764785767)
(X_16  0.4031372666358948)
(X_17  0.320784330368042)
(X_18  0.21882353723049164)
(X_19  0.17568626999855042)
(X_20  0.20705881714820862)
(X_21  0.3615686297416687)
(X_22  0.4243137240409851)
(X_23  0.4556862711906433)
(X_24  0.4909803867340088)
(X_25  0.46352940797805786)
(X_26  0.3521568775177002)
(X_27  0.32470589876174927)
(X_28  0.3050980567932129)
(X_29  0.37568628787994385)
(X_30  0.5145097970962524)
(X_31  0.5262745022773743)
(X_32  0.5301960706710815)
(X_33  0.5419608354568481)
(X_34  0.5419608354568481)
(X_35  0.522352933883667)
(X_36  0.47921568155288696)
(X_37  0.47921568155288696)
(X_38  0.4266666769981384)
(X_39  0.4737255275249481)
(X_40  0.5443137288093567)
(X_41  0.46588239073753357)
(X_42  0.5286274552345276)
(X_43  0.5129411816596985)
(X_44  0.4188235402107239)
(X_45  0.3717647194862366)
(X_46  0.320784330368042)
(X_47  0.3811764717102051)
(X_48  0.408627450466156)
(X_49  0.4439215660095215)
(X_50  0.46352940797805786)
(X_51  0.46745097637176514)
(X_52  0.5262745022773743)
(X_53  0.4870588183403015)
(X_54  0.35607844591140747)
(X_55  0.320784330368042)
(X_56  0.29725492000579834)
(X_57  0.4282352924346924)
(X_58  0.4870588183403015)
(X_59  0.5262745022773743)
(X_60  0.5419608354568481)
(X_61  0.5615686774253845)
(X_62  0.5890196561813354)
(X_63  0.6125490665435791)
(X_64  0.6086274981498718)
(X_65  0.59686279296875)
(X_66  0.5168627500534058)
(X_67  0.5247058868408203)
(X_68  0.5639215707778931)
(X_69  0.48156866431236267)
(X_70  0.548235297203064)
(X_71  0.5325490236282349)
(X_72  0.5576471090316772)
(X_73  0.45803922414779663)
(X_74  0.44235295057296753)
(X_75  0.434509813785553)
(X_76  0.5105882287025452)
(X_77  0.5027450919151306)
(X_78  0.48313724994659424)
(X_79  0.46352940797805786)
(X_80  0.5615686774253845)
(X_81  0.4305882453918457)
(X_82  0.363921582698822)
(X_83  0.31294119358062744)
(X_84  0.26196080446243286)
(X_85  0.3968627452850342)
(X_86  0.4870588183403015)
(X_87  0.5654902458190918)
(X_88  0.5129411816596985)
(X_89  0.5850980877876282)
(X_90  0.59686279296875)
(X_91  0.5403921604156494)
(X_92  0.5796078443527222)
(X_93  0.5678431391716003)
(X_94  0.5600000023841858)
(X_95  0.6439216136932373)
(X_96  0.6870588660240173)
(X_97  0.6164706349372864)
(X_98  0.6792157292366028)
(X_99  0.6556863188743591)
(X_100  0.5992156863212585)
(X_101  0.591372549533844)
(X_102  0.5796078443527222)
(X_103  0.5639215707778931)
(X_104  0.5403921604156494)
(X_105  0.5090196132659912)
(X_106  0.46980395913124084)
(X_107  0.44235295057296753)
(X_108  0.5694118142127991)
(X_109  0.434509813785553)
(X_110  0.36000001430511475)
(X_111  0.3050980567932129)
(X_112  0.25019609928131104)
(X_113  0.3168627619743347)
(X_114  0.5066666603088379)
(X_115  0.6125490665435791)
(X_116  0.6517647504806519)
(X_117  0.5600000023841858)
(X_118  0.5443137288093567)
(X_119  0.5443137288093567)
(X_120  0.520784318447113)
(X_121  0.5129411816596985)
(X_122  0.5168627500534058)
(X_123  0.6282353401184082)
(X_124  0.7184314131736755)
(X_125  0.6752941608428955)
(X_126  0.7301961183547974)
(X_127  0.6831372976303101)
(X_128  0.5403921604156494)
(X_129  0.548235297203064)
(X_130  0.5639215707778931)
(X_131  0.5756862759590149)
(X_132  0.5717647075653076)
(X_133  0.5443137288093567)
(X_134  0.5011764764785767)
(X_135  0.4737255275249481)
(X_136  0.55372554063797)
(X_137  0.4149019718170166)
(X_138  0.34039217233657837)
(X_139  0.2894117832183838)
(X_140  0.3262745141983032)
(X_141  0.3168627619743347)
(X_142  0.4305882453918457)
(X_143  0.6125490665435791)
(X_144  0.667451024055481)
(X_145  0.5874509811401367)
(X_146  0.5521568655967712)
(X_147  0.520784318447113)
(X_148  0.3992156982421875)
(X_149  0.3835294246673584)
(X_150  0.39137256145477295)
(X_151  0.5380392074584961)
(X_152  0.6909804344177246)
(X_153  0.6831372976303101)
(X_154  0.6462745070457458)
(X_155  0.5639215707778931)
(X_156  0.3717647194862366)
(X_157  0.3992156982421875)
(X_158  0.45411765575408936)
(X_159  0.5168627500534058)
(X_160  0.5600000023841858)
(X_161  0.5639215707778931)
(X_162  0.5325490236282349)
(X_163  0.5011764764785767)
(X_164  0.45803922414779663)
(X_165  0.39137256145477295)
(X_166  0.30901962518692017)
(X_167  0.2541176676750183)
(X_168  0.23058824241161346)
(X_169  0.320784330368042)
(X_170  0.434509813785553)
(X_171  0.5286274552345276)
(X_172  0.591372549533844)
(X_173  0.591372549533844)
(X_174  0.5168627500534058)
(X_175  0.4305882453918457)
(X_176  0.3325490355491638)
(X_177  0.3772549033164978)
(X_178  0.3733333349227905)
(X_179  0.46352940797805786)
(X_180  0.6596078872680664)
(X_181  0.6831372976303101)
(X_182  0.7066667079925537)
(X_183  0.5090196132659912)
(X_184  0.32862746715545654)
(X_185  0.3482353091239929)
(X_186  0.3952941298484802)
(X_187  0.4776470959186554)
(X_188  0.5600000023841858)
(X_189  0.6070588231086731)
(X_190  0.6070588231086731)
(X_191  0.591372549533844)
(X_192  0.45803922414779663)
(X_193  0.3796078562736511)
(X_194  0.27764707803726196)
(X_195  0.2109804004430771)
(X_196  0.2266666740179062)
(X_197  0.34039217233657837)
(X_198  0.46588239073753357)
(X_199  0.5560784339904785)
(X_200  0.6149019598960876)
(X_201  0.6031372547149658)
(X_202  0.4776470959186554)
(X_203  0.34039217233657837)
(X_204  0.3521568775177002)
(X_205  0.3772549033164978)
(X_206  0.3576470613479614)
(X_207  0.45176470279693604)
(X_208  0.6752941608428955)
(X_209  0.634509801864624)
(X_210  0.6462745070457458)
(X_211  0.5050980448722839)
(X_212  0.38901960849761963)
(X_213  0.29725492000579834)
(X_214  0.31294119358062744)
(X_215  0.37568628787994385)
(X_216  0.4737255275249481)
(X_217  0.5521568655967712)
(X_218  0.5835294127464294)
(X_219  0.5874509811401367)
(X_220  0.46588239073753357)
(X_221  0.37568628787994385)
(X_222  0.2580392360687256)
(X_223  0.1796078383922577)
(X_224  0.24627451598644257)
(X_225  0.3717647194862366)
(X_226  0.4501960873603821)
(X_227  0.5835294127464294)
(X_228  0.5717647075653076)
(X_229  0.43843138217926025)
(X_230  0.4870588183403015)
(X_231  0.41647058725357056)
(X_232  0.3811764717102051)
(X_233  0.38901960849761963)
(X_234  0.3615686297416687)
(X_235  0.4752941131591797)
(X_236  0.6360784769058228)
(X_237  0.6462745070457458)
(X_238  0.6501960754394531)
(X_239  0.6203922033309937)
(X_240  0.3811764717102051)
(X_241  0.365490198135376)
(X_242  0.4243137240409851)
(X_243  0.4909803867340088)
(X_244  0.46980395913124084)
(X_245  0.5874509811401367)
(X_246  0.6266666650772095)
(X_247  0.5364705920219421)
(X_248  0.48549023270606995)
(X_249  0.36000001430511475)
(X_250  0.21882353723049164)
(X_251  0.1482352912425995)
(X_252  0.2698039412498474)
(X_253  0.3952941298484802)
(X_254  0.46980395913124084)
(X_255  0.5678431391716003)
(X_256  0.5325490236282349)
(X_257  0.4109804034233093)
(X_258  0.3874509930610657)
(X_259  0.4125490188598633)
(X_260  0.3772549033164978)
(X_261  0.3929411768913269)
(X_262  0.3772549033164978)
(X_263  0.49882352352142334)
(X_264  0.6596078872680664)
(X_265  0.6658823490142822)
(X_266  0.6698039174079895)
(X_267  0.64000004529953)
(X_268  0.4556862711906433)
(X_269  0.38901960849761963)
(X_270  0.3811764717102051)
(X_271  0.41647058725357056)
(X_272  0.4713725447654724)
(X_273  0.5090196132659912)
(X_274  0.5835294127464294)
(X_275  0.5403921604156494)
(X_276  0.48156866431236267)
(X_277  0.3521568775177002)
(X_278  0.20705881714820862)
(X_279  0.13254901766777039)
(X_280  0.3576470613479614)
(X_281  0.4870588183403015)
(X_282  0.48549023270606995)
(X_283  0.5286274552345276)
(X_284  0.46588239073753357)
(X_285  0.363921582698822)
(X_286  0.4282352924346924)
(X_287  0.3929411768913269)
(X_288  0.3615686297416687)
(X_289  0.3968627452850342)
(X_290  0.40078431367874146)
(X_291  0.5262745022773743)
(X_292  0.6792157292366028)
(X_293  0.677647054195404)
(X_294  0.677647054195404)
(X_295  0.6478431820869446)
(X_296  0.5576471090316772)
(X_297  0.4399999976158142)
(X_298  0.3772549033164978)
(X_299  0.3929411768913269)
(X_300  0.43607842922210693)
(X_301  0.5341176390647888)
(X_302  0.5403921604156494)
(X_303  0.5560784339904785)
(X_304  0.4776470959186554)
(X_305  0.34431374073028564)
(X_306  0.19137254357337952)
(X_307  0.10901961475610733)
(X_308  0.3262745141983032)
(X_309  0.46745097637176514)
(X_310  0.4894118010997772)
(X_311  0.4776470959186554)
(X_312  0.39137256145477295)
(X_313  0.3968627452850342)
(X_314  0.3811764717102051)
(X_315  0.3615686297416687)
(X_316  0.3498039245605469)
(X_317  0.40470588207244873)
(X_318  0.4282352924346924)
(X_319  0.5576471090316772)
(X_320  0.6949020028114319)
(X_321  0.6737254858016968)
(X_322  0.7498039603233337)
(X_323  0.64000004529953)
(X_324  0.6047059297561646)
(X_325  0.47921568155288696)
(X_326  0.38901960849761963)
(X_327  0.40078431367874146)
(X_328  0.44784313440322876)
(X_329  0.5066666603088379)
(X_330  0.4972549378871918)
(X_331  0.5521568655967712)
(X_332  0.46980395913124084)
(X_333  0.3325490355491638)
(X_334  0.17176470160484314)
(X_335  0.08941177278757095)
(X_336  0.2831372618675232)
(X_337  0.4439215660095215)
(X_338  0.4894118010997772)
(X_339  0.434509813785553)
(X_340  0.3364706039428711)
(X_341  0.3772549033164978)
(X_342  0.35372549295425415)
(X_343  0.3458823561668396)
(X_344  0.365490198135376)
(X_345  0.43215686082839966)
(X_346  0.4713725447654724)
(X_347  0.59686279296875)
(X_348  0.7145098447799683)
(X_349  0.6737254858016968)
(X_350  0.661960780620575)
(X_351  0.5560784339904785)
(X_352  0.6007843613624573)
(X_353  0.4870588183403015)
(X_354  0.38509804010391235)
(X_355  0.3772549033164978)
(X_356  0.42039215564727783)
(X_357  0.4556862711906433)
(X_358  0.5262745022773743)
(X_359  0.5403921604156494)
(X_360  0.45411765575408936)
(X_361  0.3168627619743347)
(X_362  0.15607842803001404)
(X_363  0.06980392336845398)
(X_364  0.2635294198989868)
(X_365  0.3482353091239929)
(X_366  0.4894118010997772)
(X_367  0.3952941298484802)
(X_368  0.3733333349227905)
(X_369  0.3811764717102051)
(X_370  0.35372549295425415)
(X_371  0.3498039245605469)
(X_372  0.38901960849761963)
(X_373  0.46745097637176514)
(X_374  0.5184313654899597)
(X_375  0.6360784769058228)
(X_376  0.7341176867485046)
(X_377  0.6815686225891113)
(X_378  0.6698039174079895)
(X_379  0.5639215707778931)
(X_380  0.5403921604156494)
(X_381  0.5301960706710815)
(X_382  0.40078431367874146)
(X_383  0.3498039245605469)
(X_384  0.3811764717102051)
(X_385  0.41647058725357056)
(X_386  0.49882352352142334)
(X_387  0.6243137717247009)
(X_388  0.42274510860443115)
(X_389  0.2894117832183838)
(X_390  0.13647058606147766)
(X_391  0.05411764979362488)
(X_392  0.2635294198989868)
(X_393  0.3364706039428711)
(X_394  0.4776470959186554)
(X_395  0.4282352924346924)
(X_396  0.3301960825920105)
(X_397  0.3733333349227905)
(X_398  0.3498039245605469)
(X_399  0.35372549295425415)
(X_400  0.3929411768913269)
(X_401  0.48313724994659424)
(X_402  0.5419608354568481)
(X_403  0.6556863188743591)
(X_404  0.6658823490142822)
(X_405  0.6854901909828186)
(X_406  0.6737254858016968)
(X_407  0.5756862759590149)
(X_408  0.64000004529953)
(X_409  0.5890196561813354)
(X_410  0.4556862711906433)
(X_411  0.3615686297416687)
(X_412  0.3733333349227905)
(X_413  0.3968627452850342)
(X_414  0.4713725447654724)
(X_415  0.6047059297561646)
(X_416  0.46745097637176514)
(X_417  0.2580392360687256)
(X_418  0.1129411831498146)
(X_419  0.038431376218795776)
(X_420  0.2635294198989868)
(X_421  0.32470589876174927)
(X_422  0.45803922414779663)
(X_423  0.38901960849761963)
(X_424  0.29098039865493774)
(X_425  0.3576470613479614)
(X_426  0.33803921937942505)
(X_427  0.3498039245605469)
(X_428  0.38509804010391235)
(X_429  0.48313724994659424)
(X_430  0.5419608354568481)
(X_431  0.6556863188743591)
(X_432  0.7419608235359192)
(X_433  0.677647054195404)
(X_434  0.6698039174079895)
(X_435  0.5756862759590149)
(X_436  0.5443137288093567)
(X_437  0.6164706349372864)
(X_438  0.49490195512771606)
(X_439  0.3811764717102051)
(X_440  0.3772549033164978)
(X_441  0.3011764883995056)
(X_442  0.43607842922210693)
(X_443  0.5576471090316772)
(X_444  0.4439215660095215)
(X_445  0.23843137919902802)
(X_446  0.09333334118127823)
(X_447  0.02666667103767395)
(X_448  0.2360784411430359)
(X_449  0.40705883502960205)
(X_450  0.3364706039428711)
(X_451  0.3811764717102051)
(X_452  0.38509804010391235)
(X_453  0.3968627452850342)
(X_454  0.3458823561668396)
(X_455  0.38509804010391235)
(X_456  0.38901960849761963)
(X_457  0.4282352924346924)
(X_458  0.522352933883667)
(X_459  0.6478431820869446)
(X_460  0.6698039174079895)
(X_461  0.6894117593765259)
(X_462  0.6266666650772095)
(X_463  0.64000004529953)
(X_464  0.6596078872680664)
(X_465  0.6086274981498718)
(X_466  0.5419608354568481)
(X_467  0.408627450466156)
(X_468  0.3576470613479614)
(X_469  0.3772549033164978)
(X_470  0.4243137240409851)
(X_471  0.5733333826065063)
(X_472  0.4399999976158142)
(X_473  0.17176470160484314)
(X_474  0.04627451300621033)
(X_475  0.0345098078250885)
(X_476  0.24784314632415771)
(X_477  0.4188235402107239)
(X_478  0.408627450466156)
(X_479  0.3341176509857178)
(X_480  0.3145098090171814)
(X_481  0.33803921937942505)
(X_482  0.28705883026123047)
(X_483  0.30274510383605957)
(X_484  0.3145098090171814)
(X_485  0.3615686297416687)
(X_486  0.46745097637176514)
(X_487  0.6164706349372864)
(X_488  0.7458823919296265)
(X_489  0.6972548961639404)
(X_490  0.634509801864624)
(X_491  0.5639215707778931)
(X_492  0.5796078443527222)
(X_493  0.6282353401184082)
(X_494  0.5733333826065063)
(X_495  0.41647058725357056)
(X_496  0.32235294580459595)
(X_497  0.32235294580459595)
(X_498  0.38509804010391235)
(X_499  0.5576471090316772)
(X_500  0.43607842922210693)
(X_501  0.24784314632415771)
(X_502  0.04235294461250305)
(X_503  0.0345098078250885)
(X_504  0.1952941119670868)
(X_505  0.4031372666358948)
(X_506  0.3772549033164978)
(X_507  0.30274510383605957)
(X_508  0.294901967048645)
(X_509  0.35372549295425415)
(X_510  0.3458823561668396)
(X_511  0.36941176652908325)
(X_512  0.41647058725357056)
(X_513  0.4439215660095215)
(X_514  0.5301960706710815)
(X_515  0.6596078872680664)
(X_516  0.7615686655044556)
(X_517  0.6894117593765259)
(X_518  0.5992156863212585)
(X_519  0.5090196132659912)
(X_520  0.5733333826065063)
(X_521  0.5576471090316772)
(X_522  0.5301960706710815)
(X_523  0.408627450466156)
(X_524  0.3301960825920105)
(X_525  0.3145098090171814)
(X_526  0.33803921937942505)
(X_527  0.4752941131591797)
(X_528  0.4243137240409851)
(X_529  0.2360784411430359)
(X_530  0.038431376218795776)
(X_531  0.0345098078250885)
(X_532  0.23450981080532074)
(X_533  0.363921582698822)
(X_534  0.26196080446243286)
(X_535  0.35372549295425415)
(X_536  0.40078431367874146)
(X_537  0.4909803867340088)
(X_538  0.5341176390647888)
(X_539  0.5929412245750427)
(X_540  0.6047059297561646)
(X_541  0.6086274981498718)
(X_542  0.6439216136932373)
(X_543  0.7223529815673828)
(X_544  0.7850980758666992)
(X_545  0.677647054195404)
(X_546  0.5678431391716003)
(X_547  0.4619608223438263)
(X_548  0.522352933883667)
(X_549  0.4713725447654724)
(X_550  0.42039215564727783)
(X_551  0.32235294580459595)
(X_552  0.30274510383605957)
(X_553  0.31843137741088867)
(X_554  0.3301960825920105)
(X_555  0.4399999976158142)
(X_556  0.408627450466156)
(X_557  0.22431373596191406)
(X_558  0.030588239431381226)
(X_559  0.0345098078250885)
(X_560  0.26588237285614014)
(X_561  0.3325490355491638)
(X_562  0.3576470613479614)
(X_563  0.4870588183403015)
(X_564  0.5654902458190918)
(X_565  0.6282353401184082)
(X_566  0.6596078872680664)
(X_567  0.7301961183547974)
(X_568  0.6792157292366028)
(X_569  0.667451024055481)
(X_570  0.6792157292366028)
(X_571  0.7341176867485046)
(X_572  0.7850980758666992)
(X_573  0.6854901909828186)
(X_574  0.591372549533844)
(X_575  0.5050980448722839)
(X_576  0.5850980877876282)
(X_577  0.5145097970962524)
(X_578  0.43215686082839966)
(X_579  0.30666667222976685)
(X_580  0.2674509882926941)
(X_581  0.294901967048645)
(X_582  0.3262745141983032)
(X_583  0.4556862711906433)
(X_584  0.38901960849761963)
(X_585  0.21254903078079224)
(X_586  0.022745102643966675)
(X_587  0.030588239431381226)
(X_588  0.28156864643096924)
(X_589  0.35607844591140747)
(X_590  0.4399999976158142)
(X_591  0.5364705920219421)
(X_592  0.591372549533844)
(X_593  0.6031372547149658)
(X_594  0.5952941179275513)
(X_595  0.6266666650772095)
(X_596  0.6188235282897949)
(X_597  0.6870588660240173)
(X_598  0.6949020028114319)
(X_599  0.7380392551422119)
(X_600  0.7850980758666992)
(X_601  0.6972548961639404)
(X_602  0.634509801864624)
(X_603  0.5717647075653076)
(X_604  0.6282353401184082)
(X_605  0.6243137717247009)
(X_606  0.6086274981498718)
(X_607  0.4909803867340088)
(X_608  0.3929411768913269)
(X_609  0.3341176509857178)
(X_610  0.2988235354423523)
(X_611  0.40078431367874146)
(X_612  0.29725492000579834)
(X_613  0.12078431993722916)
(X_614  0.0188235305249691)
(X_615  0.030588239431381226)
(X_616  0.29725492000579834)
(X_617  0.4305882453918457)
(X_618  0.4737255275249481)
(X_619  0.6031372547149658)
(X_620  0.6031372547149658)
(X_621  0.6266666650772095)
(X_622  0.6227450966835022)
(X_623  0.6149019598960876)
(X_624  0.7341176867485046)
(X_625  0.6462745070457458)
(X_626  0.7341176867485046)
(X_627  0.7654902338981628)
(X_628  0.7929412126541138)
(X_629  0.705098032951355)
(X_630  0.7341176867485046)
(X_631  0.6870588660240173)
(X_632  0.6596078872680664)
(X_633  0.6792157292366028)
(X_634  0.7184314131736755)
(X_635  0.6596078872680664)
(X_636  0.5850980877876282)
(X_637  0.4713725447654724)
(X_638  0.3301960825920105)
(X_639  0.3419607877731323)
(X_640  0.2854902148246765)
(X_641  0.1129411831498146)
(X_642  0.014901962131261826)
(X_643  0.030588239431381226)
(X_644  0.30901962518692017)
(X_645  0.4972549378871918)
(X_646  0.548235297203064)
(X_647  0.6149019598960876)
(X_648  0.5756862759590149)
(X_649  0.6501960754394531)
(X_650  0.6894117593765259)
(X_651  0.7498039603233337)
(X_652  0.7380392551422119)
(X_653  0.7380392551422119)
(X_654  0.7498039603233337)
(X_655  0.6972548961639404)
(X_656  0.7168627381324768)
(X_657  0.705098032951355)
(X_658  0.6580392122268677)
(X_659  0.6188235282897949)
(X_660  0.7301961183547974)
(X_661  0.6831372976303101)
(X_662  0.6713725924491882)
(X_663  0.6478431820869446)
(X_664  0.5835294127464294)
(X_665  0.59686279296875)
(X_666  0.4243137240409851)
(X_667  0.3811764717102051)
(X_668  0.3576470613479614)
(X_669  0.1850980520248413)
(X_670  0.01098039373755455)
(X_671  0.030588239431381226)
(X_672  0.32862746715545654)
(X_673  0.4737255275249481)
(X_674  0.5678431391716003)
(X_675  0.591372549533844)
(X_676  0.634509801864624)
(X_677  0.7458823919296265)
(X_678  0.6698039174079895)
(X_679  0.677647054195404)
(X_680  0.6698039174079895)
(X_681  0.6815686225891113)
(X_682  0.7811765074729919)
(X_683  0.7207843065261841)
(X_684  0.7247058749198914)
(X_685  0.7090196013450623)
(X_686  0.6815686225891113)
(X_687  0.6580392122268677)
(X_688  0.7301961183547974)
(X_689  0.7262745499610901)
(X_690  0.6949020028114319)
(X_691  0.5796078443527222)
(X_692  0.6478431820869446)
(X_693  0.6243137717247009)
(X_694  0.5419608354568481)
(X_695  0.44784313440322876)
(X_696  0.3262745141983032)
(X_697  0.16156862676143646)
(X_698  0.11843137443065643)
(X_699  0.10274510085582733)
(X_700  0.320784330368042)
(X_701  0.46588239073753357)
(X_702  0.5639215707778931)
(X_703  0.5874509811401367)
(X_704  0.6305882334709167)
(X_705  0.6658823490142822)
(X_706  0.6698039174079895)
(X_707  0.7576470971107483)
(X_708  0.6698039174079895)
(X_709  0.6815686225891113)
(X_710  0.7011764645576477)
(X_711  0.7207843065261841)
(X_712  0.7247058749198914)
(X_713  0.7090196013450623)
(X_714  0.6815686225891113)
(X_715  0.6580392122268677)
(X_716  0.7262745499610901)
(X_717  0.7223529815673828)
(X_718  0.6188235282897949)
(X_719  0.5952941179275513)
(X_720  0.591372549533844)
(X_721  0.6556863188743591)
(X_722  0.5772549510002136)
(X_723  0.4909803867340088)
(X_724  0.3105882406234741)
(X_725  0.14980392158031464)
(X_726  0.11450980603694916)
(X_727  0.10274510085582733)
(X_728  0.38509804010391235)
(X_729  0.5341176390647888)
(X_730  0.6321569085121155)
(X_731  0.5835294127464294)
(X_732  0.6305882334709167)
(X_733  0.661960780620575)
(X_734  0.6698039174079895)
(X_735  0.677647054195404)
(X_736  0.6698039174079895)
(X_737  0.6815686225891113)
(X_738  0.7011764645576477)
(X_739  0.7207843065261841)
(X_740  0.7286274433135986)
(X_741  0.7129411697387695)
(X_742  0.6854901909828186)
(X_743  0.661960780620575)
(X_744  0.6462745070457458)
(X_745  0.6462745070457458)
(X_746  0.6305882334709167)
(X_747  0.6070588231086731)
(X_748  0.6031372547149658)
(X_749  0.5874509811401367)
(X_750  0.5929412245750427)
(X_751  0.4266666769981384)
(X_752  0.28705883026123047)
(X_753  0.1380392163991928)
(X_754  0.030588239431381226)
(X_755  0.1066666692495346)
(X_756  0.3733333349227905)
(X_757  0.522352933883667)
(X_758  0.5443137288093567)
(X_759  0.5796078443527222)
(X_760  0.6266666650772095)
(X_761  0.661960780620575)
(X_762  0.6658823490142822)
(X_763  0.6737254858016968)
(X_764  0.6698039174079895)
(X_765  0.6815686225891113)
(X_766  0.7011764645576477)
(X_767  0.7207843065261841)
(X_768  0.7286274433135986)
(X_769  0.7168627381324768)
(X_770  0.6894117593765259)
(X_771  0.7458823919296265)
(X_772  0.6541176438331604)
(X_773  0.6580392122268677)
(X_774  0.6423529386520386)
(X_775  0.6109803915023804)
(X_776  0.5952941179275513)
(X_777  0.5678431391716003)
(X_778  0.48549023270606995)
(X_779  0.3992156982421875)
(X_780  0.18745097517967224)
(X_781  0.04235294461250305)
(X_782  0.1066666692495346)
(X_783  0.02666667103767395)
(Y_0 1.1209511756896973))