((X_0  0.33789217472076416)
(X_1  0.2799946665763855)
(X_2  0.2512989938259125)
(X_3  0.14645376801490784)
(X_4  -0.02269519492983818)
(X_5  -0.01930311694741249)
(X_6  0.04877198860049248)
(X_7  0.19007202982902527)
(X_8  0.6097579598426819)
(X_9  0.8155838251113892)
(X_10  0.88229900598526)
(X_11  0.8322618007659912)
(X_12  0.8918508291244507)
(X_13  0.9233789443969727)
(X_14  0.9119887948036194)
(X_15  0.9054191708564758)
(X_16  0.8588594198226929)
(X_17  0.6908519864082336)
(X_18  0.3757432997226715)
(X_19  0.09282363951206207)
(X_20  0.004848312586545944)
(X_21  0.03120476007461548)
(X_22  0.0546904131770134)
(X_23  0.13991346955299377)
(X_24  0.31347784399986267)
(X_25  0.41417360305786133)
(X_26  0.4890497624874115)
(X_27  0.5912044048309326)
(X_28  0.4972243309020996)
(X_29  0.44868141412734985)
(X_30  0.415288507938385)
(X_31  0.3583396375179291)
(X_32  0.236964613199234)
(X_33  0.049590859562158585)
(X_34  -0.008189741522073746)
(X_35  0.10182910412549973)
(X_36  0.2829197943210602)
(X_37  0.6515552997589111)
(X_38  0.7783790826797485)
(X_39  0.8506003618240356)
(X_40  0.9186105728149414)
(X_41  0.8768415451049805)
(X_42  0.8768633604049683)
(X_43  0.8908460140228271)
(X_44  0.7112737894058228)
(X_45  0.6050744652748108)
(X_46  0.35300809144973755)
(X_47  0.0313088521361351)
(X_48  0.023557372391223907)
(X_49  0.005479447543621063)
(X_50  0.17149949073791504)
(X_51  0.42770305275917053)
(X_52  0.47276318073272705)
(X_53  0.49629145860671997)
(X_54  0.5663418769836426)
(X_55  0.6452754139900208)
(X_56  0.5592230558395386)
(X_57  0.5377769470214844)
(X_58  0.5182478427886963)
(X_59  0.4719155430793762)
(X_60  0.41845905780792236)
(X_61  0.14106051623821259)
(X_62  -0.025521568953990936)
(X_63  0.0046226829290390015)
(X_64  0.2533249258995056)
(X_65  0.5479600429534912)
(X_66  0.7257835268974304)
(X_67  0.7957408428192139)
(X_68  0.8690584897994995)
(X_69  0.788741409778595)
(X_70  0.7824640274047852)
(X_71  0.8581802248954773)
(X_72  0.6696412563323975)
(X_73  0.5994294285774231)
(X_74  0.363393098115921)
(X_75  0.14285610616207123)
(X_76  0.07266072928905487)
(X_77  0.1301501840353012)
(X_78  0.3500291109085083)
(X_79  0.5415030717849731)
(X_80  0.6371641159057617)
(X_81  0.602421224117279)
(X_82  0.6204379200935364)
(X_83  0.5673242211341858)
(X_84  0.6016969084739685)
(X_85  0.5493168234825134)
(X_86  0.5950928926467896)
(X_87  0.5491969585418701)
(X_88  0.4906042814254761)
(X_89  0.3167665898799896)
(X_90  0.24054691195487976)
(X_91  0.12237952649593353)
(X_92  0.40175938606262207)
(X_93  0.6043179631233215)
(X_94  0.6097545027732849)
(X_95  0.7682238817214966)
(X_96  0.8383986949920654)
(X_97  0.8081099987030029)
(X_98  0.7825258374214172)
(X_99  0.734639585018158)
(X_100  0.6559029817581177)
(X_101  0.6006523966789246)
(X_102  0.515530526638031)
(X_103  0.31982532143592834)
(X_104  0.3039640784263611)
(X_105  0.3608120381832123)
(X_106  0.5212048292160034)
(X_107  0.6238584518432617)
(X_108  0.630120575428009)
(X_109  0.6420969367027283)
(X_110  0.603630006313324)
(X_111  0.5016784071922302)
(X_112  0.48532092571258545)
(X_113  0.6245837807655334)
(X_114  0.6794847249984741)
(X_115  0.6109781861305237)
(X_116  0.5375651717185974)
(X_117  0.5990071892738342)
(X_118  0.5928117632865906)
(X_119  0.5039805173873901)
(X_120  0.6174783110618591)
(X_121  0.6832244396209717)
(X_122  0.6339802145957947)
(X_123  0.7306902408599854)
(X_124  0.7730864882469177)
(X_125  0.7414405345916748)
(X_126  0.7385376691818237)
(X_127  0.7275067567825317)
(X_128  0.7255908846855164)
(X_129  0.6576986908912659)
(X_130  0.6206033229827881)
(X_131  0.6549546122550964)
(X_132  0.6415207982063293)
(X_133  0.6229373812675476)
(X_134  0.665587842464447)
(X_135  0.6152071952819824)
(X_136  0.6917399168014526)
(X_137  0.6750548481941223)
(X_138  0.5646997094154358)
(X_139  0.4824235737323761)
(X_140  0.442143976688385)
(X_141  0.6124693155288696)
(X_142  0.6623486280441284)
(X_143  0.6076062321662903)
(X_144  0.607254147529602)
(X_145  0.6817651987075806)
(X_146  0.6982707977294922)
(X_147  0.7259389162063599)
(X_148  0.7132919430732727)
(X_149  0.7453781366348267)
(X_150  0.7332358956336975)
(X_151  0.7566694617271423)
(X_152  0.7121235728263855)
(X_153  0.6777331233024597)
(X_154  0.7568433284759521)
(X_155  0.7881149053573608)
(X_156  0.778326690196991)
(X_157  0.771514892578125)
(X_158  0.7503693699836731)
(X_159  0.8101112246513367)
(X_160  0.7046710252761841)
(X_161  0.7234254479408264)
(X_162  0.6640148758888245)
(X_163  0.646731436252594)
(X_164  0.6425949335098267)
(X_165  0.6174604892730713)
(X_166  0.5097299218177795)
(X_167  0.4386153221130371)
(X_168  0.38642969727516174)
(X_169  0.46031591296195984)
(X_170  0.6070951223373413)
(X_171  0.6191776394844055)
(X_172  0.6893717050552368)
(X_173  0.6583677530288696)
(X_174  0.694887638092041)
(X_175  0.6989878416061401)
(X_176  0.7721258401870728)
(X_177  0.7841282486915588)
(X_178  0.7801069021224976)
(X_179  0.823032557964325)
(X_180  0.7433322668075562)
(X_181  0.7510108351707458)
(X_182  0.7490849494934082)
(X_183  0.807720959186554)
(X_184  0.7701766490936279)
(X_185  0.7172568440437317)
(X_186  0.7591502666473389)
(X_187  0.813602089881897)
(X_188  0.7437101602554321)
(X_189  0.688366711139679)
(X_190  0.7454885244369507)
(X_191  0.6733300089836121)
(X_192  0.6382991671562195)
(X_193  0.5284526348114014)
(X_194  0.4322243332862854)
(X_195  0.2881731688976288)
(X_196  0.25409337878227234)
(X_197  0.38643163442611694)
(X_198  0.515669584274292)
(X_199  0.6641993522644043)
(X_200  0.7174500823020935)
(X_201  0.7084542512893677)
(X_202  0.7553210258483887)
(X_203  0.7650374174118042)
(X_204  0.7039073705673218)
(X_205  0.6416763663291931)
(X_206  0.6659343838691711)
(X_207  0.7491694092750549)
(X_208  0.8376102447509766)
(X_209  0.7563937306404114)
(X_210  0.8077065944671631)
(X_211  0.8136259913444519)
(X_212  0.7279592156410217)
(X_213  0.7270538806915283)
(X_214  0.6946534514427185)
(X_215  0.7916916012763977)
(X_216  0.7611846923828125)
(X_217  0.7814267873764038)
(X_218  0.7552722692489624)
(X_219  0.7363854646682739)
(X_220  0.5738916993141174)
(X_221  0.46944040060043335)
(X_222  0.3238798677921295)
(X_223  0.19673126935958862)
(X_224  0.22127962112426758)
(X_225  0.307986319065094)
(X_226  0.49687835574150085)
(X_227  0.6266599893569946)
(X_228  0.731212317943573)
(X_229  0.8164476752281189)
(X_230  0.784761369228363)
(X_231  0.6547521948814392)
(X_232  0.6198450326919556)
(X_233  0.6173601746559143)
(X_234  0.6086017489433289)
(X_235  0.7610867619514465)
(X_236  0.8391819596290588)
(X_237  0.8519225716590881)
(X_238  0.8374040722846985)
(X_239  0.8673170804977417)
(X_240  0.7109314799308777)
(X_241  0.6628431081771851)
(X_242  0.6312053799629211)
(X_243  0.6985676288604736)
(X_244  0.700649082660675)
(X_245  0.8188435435295105)
(X_246  0.7891951203346252)
(X_247  0.7310341000556946)
(X_248  0.5961949825286865)
(X_249  0.342245876789093)
(X_250  0.2594558298587799)
(X_251  0.14292971789836884)
(X_252  0.16963154077529907)
(X_253  0.2695513963699341)
(X_254  0.4853389859199524)
(X_255  0.5771377086639404)
(X_256  0.6956713199615479)
(X_257  0.780471682548523)
(X_258  0.7250893115997314)
(X_259  0.6554419994354248)
(X_260  0.599374532699585)
(X_261  0.5058122873306274)
(X_262  0.5544813275337219)
(X_263  0.6858775019645691)
(X_264  0.8018682599067688)
(X_265  0.8341840505599976)
(X_266  0.8763682842254639)
(X_267  0.8344363570213318)
(X_268  0.7296409010887146)
(X_269  0.6029675006866455)
(X_270  0.5564640760421753)
(X_271  0.6664608716964722)
(X_272  0.7211424112319946)
(X_273  0.7328370213508606)
(X_274  0.7329649329185486)
(X_275  0.6702957153320312)
(X_276  0.5931367874145508)
(X_277  0.3514057695865631)
(X_278  0.2263994961977005)
(X_279  0.14052791893482208)
(X_280  0.15448015928268433)
(X_281  0.2820383608341217)
(X_282  0.4196540415287018)
(X_283  0.6332564353942871)
(X_284  0.6659791469573975)
(X_285  0.6339750289916992)
(X_286  0.6125069856643677)
(X_287  0.5198001861572266)
(X_288  0.5272855162620544)
(X_289  0.48298317193984985)
(X_290  0.5651624798774719)
(X_291  0.6788426041603088)
(X_292  0.7696711421012878)
(X_293  0.8711305856704712)
(X_294  0.8169465065002441)
(X_295  0.8687816858291626)
(X_296  0.7745193243026733)
(X_297  0.612180233001709)
(X_298  0.5310783982276917)
(X_299  0.5787813663482666)
(X_300  0.5961378812789917)
(X_301  0.6173629760742188)
(X_302  0.7233116030693054)
(X_303  0.7426968216896057)
(X_304  0.566193699836731)
(X_305  0.3352436423301697)
(X_306  0.23721818625926971)
(X_307  0.10505072772502899)
(X_308  0.14084406197071075)
(X_309  0.27119824290275574)
(X_310  0.5039230585098267)
(X_311  0.6405414342880249)
(X_312  0.6384681463241577)
(X_313  0.5810814499855042)
(X_314  0.523184597492218)
(X_315  0.49138525128364563)
(X_316  0.48615598678588867)
(X_317  0.48305782675743103)
(X_318  0.5433518290519714)
(X_319  0.7408761978149414)
(X_320  0.8442289233207703)
(X_321  0.8238333463668823)
(X_322  0.8315914273262024)
(X_323  0.8341651558876038)
(X_324  0.8157591223716736)
(X_325  0.696053683757782)
(X_326  0.533163845539093)
(X_327  0.5697790384292603)
(X_328  0.5753536224365234)
(X_329  0.6355315446853638)
(X_330  0.6530668139457703)
(X_331  0.7179197072982788)
(X_332  0.6227763295173645)
(X_333  0.44408586621284485)
(X_334  0.15658724308013916)
(X_335  0.03723998740315437)
(X_336  0.05958976596593857)
(X_337  0.28787633776664734)
(X_338  0.49787700176239014)
(X_339  0.6810802817344666)
(X_340  0.6871750354766846)
(X_341  0.6005843281745911)
(X_342  0.5176498889923096)
(X_343  0.483654260635376)
(X_344  0.4617699384689331)
(X_345  0.5433560609817505)
(X_346  0.5851543545722961)
(X_347  0.7353947162628174)
(X_348  0.8478280901908875)
(X_349  0.8491735458374023)
(X_350  0.8637871146202087)
(X_351  0.8168792128562927)
(X_352  0.7912380695343018)
(X_353  0.7501144409179688)
(X_354  0.6110823154449463)
(X_355  0.5836989879608154)
(X_356  0.5889092683792114)
(X_357  0.5623611211776733)
(X_358  0.6020189523696899)
(X_359  0.695156455039978)
(X_360  0.687488317489624)
(X_361  0.44533029198646545)
(X_362  0.1846272051334381)
(X_363  0.05473516881465912)
(X_364  0.034747447818517685)
(X_365  0.26966381072998047)
(X_366  0.5445724129676819)
(X_367  0.7001333236694336)
(X_368  0.602867066860199)
(X_369  0.556984543800354)
(X_370  0.4041591286659241)
(X_371  0.45325735211372375)
(X_372  0.456849604845047)
(X_373  0.4698706865310669)
(X_374  0.5974753499031067)
(X_375  0.7233061194419861)
(X_376  0.8361765742301941)
(X_377  0.8602076172828674)
(X_378  0.853814959526062)
(X_379  0.8544741868972778)
(X_380  0.8663714528083801)
(X_381  0.7625789642333984)
(X_382  0.6554715037345886)
(X_383  0.5422055125236511)
(X_384  0.5258984565734863)
(X_385  0.5108753442764282)
(X_386  0.5594402551651001)
(X_387  0.6502512693405151)
(X_388  0.6792894601821899)
(X_389  0.47887885570526123)
(X_390  0.19545042514801025)
(X_391  -0.013473739847540855)
(X_392  0.06857722997665405)
(X_393  0.3004239499568939)
(X_394  0.5911229848861694)
(X_395  0.6429755091667175)
(X_396  0.5997075438499451)
(X_397  0.4705273509025574)
(X_398  0.37038782238960266)
(X_399  0.392304390668869)
(X_400  0.448110431432724)
(X_401  0.513260006904602)
(X_402  0.6289129257202148)
(X_403  0.698968231678009)
(X_404  0.8133032917976379)
(X_405  0.8483169078826904)
(X_406  0.8995400071144104)
(X_407  0.8832487463951111)
(X_408  0.8831807374954224)
(X_409  0.8079705238342285)
(X_410  0.6268830895423889)
(X_411  0.4537453353404999)
(X_412  0.4516856372356415)
(X_413  0.46050509810447693)
(X_414  0.5004825592041016)
(X_415  0.6570164561271667)
(X_416  0.6612711548805237)
(X_417  0.4873580038547516)
(X_418  0.16318506002426147)
(X_419  0.0029408596456050873)
(X_420  -0.009740931913256645)
(X_421  0.2758050560951233)
(X_422  0.5432052612304688)
(X_423  0.6170834302902222)
(X_424  0.4748704135417938)
(X_425  0.4175493121147156)
(X_426  0.4101642668247223)
(X_427  0.42622697353363037)
(X_428  0.49757179617881775)
(X_429  0.49647191166877747)
(X_430  0.5712831020355225)
(X_431  0.7045760154724121)
(X_432  0.7991916537284851)
(X_433  0.9050790071487427)
(X_434  0.8638374209403992)
(X_435  0.8825475573539734)
(X_436  0.771302342414856)
(X_437  0.8070119023323059)
(X_438  0.7209917306900024)
(X_439  0.541052520275116)
(X_440  0.49347633123397827)
(X_441  0.5374085903167725)
(X_442  0.4664376378059387)
(X_443  0.5743955373764038)
(X_444  0.6565195918083191)
(X_445  0.49992239475250244)
(X_446  0.10827258229255676)
(X_447  -0.011980729177594185)
(X_448  0.029372453689575195)
(X_449  0.21001113951206207)
(X_450  0.6332591772079468)
(X_451  0.5362668037414551)
(X_452  0.529428243637085)
(X_453  0.41604480147361755)
(X_454  0.3719249665737152)
(X_455  0.3809867799282074)
(X_456  0.43626460433006287)
(X_457  0.5318407416343689)
(X_458  0.6349250078201294)
(X_459  0.6893661618232727)
(X_460  0.8243329524993896)
(X_461  0.8384009003639221)
(X_462  0.8454081416130066)
(X_463  0.879463791847229)
(X_464  0.850047767162323)
(X_465  0.8061250448226929)
(X_466  0.7559971213340759)
(X_467  0.5945898294448853)
(X_468  0.48286622762680054)
(X_469  0.3773976266384125)
(X_470  0.42353636026382446)
(X_471  0.548254132270813)
(X_472  0.6130908727645874)
(X_473  0.6413979530334473)
(X_474  0.11985450983047485)
(X_475  0.0012122057378292084)
(X_476  0.056210123002529144)
(X_477  0.23460212349891663)
(X_478  0.5854173302650452)
(X_479  0.5125747323036194)
(X_480  0.43100860714912415)
(X_481  0.38481274247169495)
(X_482  0.43115755915641785)
(X_483  0.4816374182701111)
(X_484  0.4733087718486786)
(X_485  0.5593351125717163)
(X_486  0.680302619934082)
(X_487  0.7228735685348511)
(X_488  0.8506746888160706)
(X_489  0.8625491261482239)
(X_490  0.8957736492156982)
(X_491  0.834159255027771)
(X_492  0.8127319812774658)
(X_493  0.8009445071220398)
(X_494  0.769322395324707)
(X_495  0.7278473377227783)
(X_496  0.5544987916946411)
(X_497  0.43569689989089966)
(X_498  0.45906734466552734)
(X_499  0.4846850335597992)
(X_500  0.6076890826225281)
(X_501  0.5685596466064453)
(X_502  0.1728062927722931)
(X_503  0.038442619144916534)
(X_504  -0.0055204518139362335)
(X_505  0.22063219547271729)
(X_506  0.5533220171928406)
(X_507  0.46302488446235657)
(X_508  0.390909343957901)
(X_509  0.3636423945426941)
(X_510  0.4051675796508789)
(X_511  0.478887677192688)
(X_512  0.432189404964447)
(X_513  0.5214982628822327)
(X_514  0.5741121768951416)
(X_515  0.7525817155838013)
(X_516  0.8672328591346741)
(X_517  0.8682608604431152)
(X_518  0.8521341681480408)
(X_519  0.8954178094863892)
(X_520  0.8002451658248901)
(X_521  0.7960304021835327)
(X_522  0.8042829036712646)
(X_523  0.7447564601898193)
(X_524  0.6735731363296509)
(X_525  0.49862366914749146)
(X_526  0.4501217007637024)
(X_527  0.4627915322780609)
(X_528  0.5326561331748962)
(X_529  0.5465037822723389)
(X_530  0.13380590081214905)
(X_531  0.029155246913433075)
(X_532  0.0006130635738372803)
(X_533  0.1584939807653427)
(X_534  0.5871906280517578)
(X_535  0.5406480431556702)
(X_536  0.4474985897541046)
(X_537  0.46841004490852356)
(X_538  0.48450618982315063)
(X_539  0.5128650069236755)
(X_540  0.4667016267776489)
(X_541  0.5118844509124756)
(X_542  0.5226593613624573)
(X_543  0.7316702008247375)
(X_544  0.8019406795501709)
(X_545  0.8519710302352905)
(X_546  0.854537844657898)
(X_547  0.8871346712112427)
(X_548  0.8980223536491394)
(X_549  0.8520642518997192)
(X_550  0.8225698471069336)
(X_551  0.7543062567710876)
(X_552  0.6494756937026978)
(X_553  0.5256111025810242)
(X_554  0.4288802444934845)
(X_555  0.3905099630355835)
(X_556  0.5559045076370239)
(X_557  0.564060628414154)
(X_558  0.17077699303627014)
(X_559  0.02211252599954605)
(X_560  -0.03967573121190071)
(X_561  0.11257141828536987)
(X_562  0.5099398493766785)
(X_563  0.5339750051498413)
(X_564  0.555463433265686)
(X_565  0.5774558186531067)
(X_566  0.6982272863388062)
(X_567  0.7151240110397339)
(X_568  0.6373623013496399)
(X_569  0.6463623046875)
(X_570  0.6483058333396912)
(X_571  0.7158814072608948)
(X_572  0.811545193195343)
(X_573  0.879574716091156)
(X_574  0.8812506198883057)
(X_575  0.9112082123756409)
(X_576  0.8346137404441833)
(X_577  0.786513090133667)
(X_578  0.8070208430290222)
(X_579  0.7294642329216003)
(X_580  0.660544216632843)
(X_581  0.48736777901649475)
(X_582  0.43748313188552856)
(X_583  0.41762489080429077)
(X_584  0.5673556327819824)
(X_585  0.5248848795890808)
(X_586  0.17147380113601685)
(X_587  0.03186001628637314)
(X_588  0.03437969833612442)
(X_589  0.046722158789634705)
(X_590  0.5248492956161499)
(X_591  0.5921602249145508)
(X_592  0.6901183724403381)
(X_593  0.7512556910514832)
(X_594  0.8150298595428467)
(X_595  0.7866631746292114)
(X_596  0.8072566986083984)
(X_597  0.7838294506072998)
(X_598  0.7663743495941162)
(X_599  0.8187884092330933)
(X_600  0.838577389717102)
(X_601  0.8359296917915344)
(X_602  0.8663312792778015)
(X_603  0.9052631855010986)
(X_604  0.7816653251647949)
(X_605  0.8120502233505249)
(X_606  0.7574668526649475)
(X_607  0.8386565446853638)
(X_608  0.748294472694397)
(X_609  0.6529631614685059)
(X_610  0.4896915853023529)
(X_611  0.49262475967407227)
(X_612  0.47915196418762207)
(X_613  0.5387946963310242)
(X_614  0.11664959788322449)
(X_615  -0.009558741003274918)
(X_616  0.006591349840164185)
(X_617  0.05445130541920662)
(X_618  0.5341002941131592)
(X_619  0.7039889693260193)
(X_620  0.7440412044525146)
(X_621  0.7340171337127686)
(X_622  0.7761279344558716)
(X_623  0.7729113698005676)
(X_624  0.8403900265693665)
(X_625  0.8257367014884949)
(X_626  0.8140425682067871)
(X_627  0.8494489789009094)
(X_628  0.8346201777458191)
(X_629  0.8772034645080566)
(X_630  0.8851625919342041)
(X_631  0.9057174921035767)
(X_632  0.7984885573387146)
(X_633  0.8424643874168396)
(X_634  0.8611713647842407)
(X_635  0.8552721738815308)
(X_636  0.8373019695281982)
(X_637  0.728929877281189)
(X_638  0.6670852899551392)
(X_639  0.6301621198654175)
(X_640  0.5841575264930725)
(X_641  0.5711559653282166)
(X_642  0.14433975517749786)
(X_643  0.039221614599227905)
(X_644  0.05958952009677887)
(X_645  0.03709685057401657)
(X_646  0.471902072429657)
(X_647  0.6342686414718628)
(X_648  0.722524106502533)
(X_649  0.7946329712867737)
(X_650  0.8387506604194641)
(X_651  0.8218520283699036)
(X_652  0.7898154258728027)
(X_653  0.8339108824729919)
(X_654  0.8623757362365723)
(X_655  0.8982420563697815)
(X_656  0.8750984072685242)
(X_657  0.901160478591919)
(X_658  0.8892645835876465)
(X_659  0.8595528602600098)
(X_660  0.9114621877670288)
(X_661  0.8736106753349304)
(X_662  0.8798773288726807)
(X_663  0.8257243633270264)
(X_664  0.7948291897773743)
(X_665  0.8063876628875732)
(X_666  0.7603758573532104)
(X_667  0.7939738631248474)
(X_668  0.6688761115074158)
(X_669  0.6336537599563599)
(X_670  0.19292578101158142)
(X_671  -0.007338322699069977)
(X_672  0.005546927452087402)
(X_673  0.08922554552555084)
(X_674  0.3902841806411743)
(X_675  0.6472341418266296)
(X_676  0.7190714478492737)
(X_677  0.7695115208625793)
(X_678  0.8167102336883545)
(X_679  0.8867651224136353)
(X_680  0.8501858711242676)
(X_681  0.9098912477493286)
(X_682  0.916064977645874)
(X_683  0.9097099900245667)
(X_684  0.8654043674468994)
(X_685  0.8792785406112671)
(X_686  0.9113962054252625)
(X_687  0.9351654052734375)
(X_688  0.9167934060096741)
(X_689  0.9248604774475098)
(X_690  0.865181028842926)
(X_691  0.8779119253158569)
(X_692  0.9020903706550598)
(X_693  0.866570234298706)
(X_694  0.8001328110694885)
(X_695  0.794163167476654)
(X_696  0.7012725472450256)
(X_697  0.6295881271362305)
(X_698  0.1867121160030365)
(X_699  0.039156474173069)
(X_700  -0.02236626297235489)
(X_701  0.05629560723900795)
(X_702  0.36198166012763977)
(X_703  0.6667793989181519)
(X_704  0.768743634223938)
(X_705  0.8025695085525513)
(X_706  0.7968339323997498)
(X_707  0.8727172017097473)
(X_708  0.9152620434761047)
(X_709  0.8591951131820679)
(X_710  0.8772886991500854)
(X_711  0.8963367342948914)
(X_712  0.9174321889877319)
(X_713  0.879217803478241)
(X_714  0.8782987594604492)
(X_715  0.8770083785057068)
(X_716  0.9211709499359131)
(X_717  0.9054511189460754)
(X_718  0.8837262988090515)
(X_719  0.8849630355834961)
(X_720  0.8764612078666687)
(X_721  0.8686189651489258)
(X_722  0.8562551140785217)
(X_723  0.8009514808654785)
(X_724  0.7181358933448792)
(X_725  0.6710814833641052)
(X_726  0.14739225804805756)
(X_727  0.028433628380298615)
(X_728  0.037926770746707916)
(X_729  0.04311220347881317)
(X_730  0.3405945897102356)
(X_731  0.6877402663230896)
(X_732  0.7546501159667969)
(X_733  0.7805579304695129)
(X_734  0.85672926902771)
(X_735  0.8557639122009277)
(X_736  0.9249034523963928)
(X_737  0.8988173007965088)
(X_738  0.880291223526001)
(X_739  0.9399017095565796)
(X_740  0.956781804561615)
(X_741  0.9170489311218262)
(X_742  0.9239920377731323)
(X_743  0.9562604427337646)
(X_744  0.8765475153923035)
(X_745  0.8841027617454529)
(X_746  0.9061298966407776)
(X_747  0.8447384834289551)
(X_748  0.858176052570343)
(X_749  0.8435210585594177)
(X_750  0.8193420767784119)
(X_751  0.8044673204421997)
(X_752  0.7461227774620056)
(X_753  0.6092258095741272)
(X_754  0.1724534034729004)
(X_755  0.011360310018062592)
(X_756  -0.03645804524421692)
(X_757  -0.036964625120162964)
(X_758  0.35365134477615356)
(X_759  0.6676455140113831)
(X_760  0.7735164165496826)
(X_761  0.8005419373512268)
(X_762  0.830715537071228)
(X_763  0.8663032650947571)
(X_764  0.8905476927757263)
(X_765  0.9191609025001526)
(X_766  0.9082388877868652)
(X_767  0.8965660929679871)
(X_768  0.8959483504295349)
(X_769  0.8927434682846069)
(X_770  0.9008040428161621)
(X_771  0.8934638500213623)
(X_772  0.8988978266716003)
(X_773  0.8991806507110596)
(X_774  0.8914724588394165)
(X_775  0.9062622785568237)
(X_776  0.8715501427650452)
(X_777  0.8655504584312439)
(X_778  0.8259941935539246)
(X_779  0.8464778661727905)
(X_780  0.7706537246704102)
(X_781  0.6425834894180298)
(X_782  0.18506506085395813)
(X_783  0.043493300676345825)
(Y_0 0.004044085741043091))