((X_0  0.2698039412498474)
(X_1  0.2266666740179062)
(X_2  0.21490196883678436)
(X_3  0.2266666740179062)
(X_4  0.24627451598644257)
(X_5  0.3050980567932129)
(X_6  0.32470589876174927)
(X_7  0.2737255096435547)
(X_8  0.31294119358062744)
(X_9  0.408627450466156)
(X_10  0.4752941131591797)
(X_11  0.55372554063797)
(X_12  0.5615686774253845)
(X_13  0.5184313654899597)
(X_14  0.522352933883667)
(X_15  0.5615686774253845)
(X_16  0.710588276386261)
(X_17  0.7772549390792847)
(X_18  0.7184314131736755)
(X_19  0.6439216136932373)
(X_20  0.6047059297561646)
(X_21  0.37568628787994385)
(X_22  0.24627451598644257)
(X_23  0.2854902148246765)
(X_24  0.4031372666358948)
(X_25  0.26588237285614014)
(X_26  0.2792156934738159)
(X_27  0.2635294198989868)
(X_28  0.3301960825920105)
(X_29  0.27137255668640137)
(X_30  0.2227451056241989)
(X_31  0.320784330368042)
(X_32  0.3796078562736511)
(X_33  0.4305882453918457)
(X_34  0.5011764764785767)
(X_35  0.5364705920219421)
(X_36  0.4933333694934845)
(X_37  0.5011764764785767)
(X_38  0.6282353401184082)
(X_39  0.6713725924491882)
(X_40  0.6360784769058228)
(X_41  0.5576471090316772)
(X_42  0.5262745022773743)
(X_43  0.55372554063797)
(X_44  0.5850980877876282)
(X_45  0.6792157292366028)
(X_46  0.6243137717247009)
(X_47  0.434509813785553)
(X_48  0.42274510860443115)
(X_49  0.3952941298484802)
(X_50  0.3952941298484802)
(X_51  0.48549023270606995)
(X_52  0.5286274552345276)
(X_53  0.29725492000579834)
(X_54  0.25568628311157227)
(X_55  0.2792156934738159)
(X_56  0.3968627452850342)
(X_57  0.2737255096435547)
(X_58  0.2737255096435547)
(X_59  0.3011764883995056)
(X_60  0.3168627619743347)
(X_61  0.3835294246673584)
(X_62  0.46980395913124084)
(X_63  0.5011764764785767)
(X_64  0.5090196132659912)
(X_65  0.5286274552345276)
(X_66  0.667451024055481)
(X_67  0.7184314131736755)
(X_68  0.6831372976303101)
(X_69  0.5929412245750427)
(X_70  0.55372554063797)
(X_71  0.5733333826065063)
(X_72  0.5717647075653076)
(X_73  0.7066667079925537)
(X_74  0.6321569085121155)
(X_75  0.55372554063797)
(X_76  0.5403921604156494)
(X_77  0.5796078443527222)
(X_78  0.5403921604156494)
(X_79  0.5286274552345276)
(X_80  0.4501960873603821)
(X_81  0.38901960849761963)
(X_82  0.33803921937942505)
(X_83  0.3811764717102051)
(X_84  0.4282352924346924)
(X_85  0.39137256145477295)
(X_86  0.3952941298484802)
(X_87  0.32862746715545654)
(X_88  0.4243137240409851)
(X_89  0.4972549378871918)
(X_90  0.5835294127464294)
(X_91  0.6086274981498718)
(X_92  0.46745097637176514)
(X_93  0.5145097970962524)
(X_94  0.6164706349372864)
(X_95  0.6266666650772095)
(X_96  0.6227450966835022)
(X_97  0.5521568655967712)
(X_98  0.5247058868408203)
(X_99  0.5521568655967712)
(X_100  0.7027451395988464)
(X_101  0.7066667079925537)
(X_102  0.6439216136932373)
(X_103  0.6203922033309937)
(X_104  0.6909804344177246)
(X_105  0.710588276386261)
(X_106  0.64000004529953)
(X_107  0.5890196561813354)
(X_108  0.3796078562736511)
(X_109  0.5027450919151306)
(X_110  0.5262745022773743)
(X_111  0.4909803867340088)
(X_112  0.4439215660095215)
(X_113  0.5419608354568481)
(X_114  0.5286274552345276)
(X_115  0.5011764764785767)
(X_116  0.5011764764785767)
(X_117  0.6792157292366028)
(X_118  0.6792157292366028)
(X_119  0.5576471090316772)
(X_120  0.408627450466156)
(X_121  0.4752941131591797)
(X_122  0.6047059297561646)
(X_123  0.6423529386520386)
(X_124  0.6541176438331604)
(X_125  0.5952941179275513)
(X_126  0.5717647075653076)
(X_127  0.6031372547149658)
(X_128  0.7145098447799683)
(X_129  0.6949020028114319)
(X_130  0.6635294556617737)
(X_131  0.6478431820869446)
(X_132  0.6439216136932373)
(X_133  0.6321569085121155)
(X_134  0.6635294556617737)
(X_135  0.7380392551422119)
(X_136  0.5403921604156494)
(X_137  0.667451024055481)
(X_138  0.6282353401184082)
(X_139  0.5184313654899597)
(X_140  0.4188235402107239)
(X_141  0.5654902458190918)
(X_142  0.6831372976303101)
(X_143  0.6423529386520386)
(X_144  0.5639215707778931)
(X_145  0.5458824038505554)
(X_146  0.43215686082839966)
(X_147  0.31843137741088867)
(X_148  0.3929411768913269)
(X_149  0.4596078395843506)
(X_150  0.5850980877876282)
(X_151  0.6227450966835022)
(X_152  0.6384313702583313)
(X_153  0.591372549533844)
(X_154  0.6713725924491882)
(X_155  0.7145098447799683)
(X_156  0.824313759803772)
(X_157  0.7419608235359192)
(X_158  0.6949020028114319)
(X_159  0.6949020028114319)
(X_160  0.667451024055481)
(X_161  0.6243137717247009)
(X_162  0.64000004529953)
(X_163  0.6949020028114319)
(X_164  0.7066667079925537)
(X_165  0.6909804344177246)
(X_166  0.6086274981498718)
(X_167  0.5458824038505554)
(X_168  0.5262745022773743)
(X_169  0.5929412245750427)
(X_170  0.7027451395988464)
(X_171  0.7262745499610901)
(X_172  0.6086274981498718)
(X_173  0.4909803867340088)
(X_174  0.4243137240409851)
(X_175  0.3772549033164978)
(X_176  0.4243137240409851)
(X_177  0.3952941298484802)
(X_178  0.4972549378871918)
(X_179  0.591372549533844)
(X_180  0.5992156863212585)
(X_181  0.5678431391716003)
(X_182  0.5874509811401367)
(X_183  0.7301961183547974)
(X_184  0.8400000333786011)
(X_185  0.7380392551422119)
(X_186  0.6831372976303101)
(X_187  0.6870588660240173)
(X_188  0.667451024055481)
(X_189  0.6203922033309937)
(X_190  0.55372554063797)
(X_191  0.49490195512771606)
(X_192  0.6047059297561646)
(X_193  0.6752941608428955)
(X_194  0.6596078872680664)
(X_195  0.6086274981498718)
(X_196  0.5654902458190918)
(X_197  0.6596078872680664)
(X_198  0.7223529815673828)
(X_199  0.6282353401184082)
(X_200  0.49882352352142334)
(X_201  0.49490195512771606)
(X_202  0.5419608354568481)
(X_203  0.5301960706710815)
(X_204  0.5262745022773743)
(X_205  0.4737255275249481)
(X_206  0.5443137288093567)
(X_207  0.6070588231086731)
(X_208  0.5952941179275513)
(X_209  0.64000004529953)
(X_210  0.6713725924491882)
(X_211  0.7419608235359192)
(X_212  0.6854901909828186)
(X_213  0.7341176867485046)
(X_214  0.7184314131736755)
(X_215  0.6870588660240173)
(X_216  0.6360784769058228)
(X_217  0.6243137717247009)
(X_218  0.6047059297561646)
(X_219  0.5458824038505554)
(X_220  0.5380392074584961)
(X_221  0.7615686655044556)
(X_222  0.796862781047821)
(X_223  0.6478431820869446)
(X_224  0.59686279296875)
(X_225  0.8007843494415283)
(X_226  0.6713725924491882)
(X_227  0.40078431367874146)
(X_228  0.3733333349227905)
(X_229  0.3929411768913269)
(X_230  0.32862746715545654)
(X_231  0.4501960873603821)
(X_232  0.43843138217926025)
(X_233  0.3992156982421875)
(X_234  0.45803922414779663)
(X_235  0.591372549533844)
(X_236  0.6188235282897949)
(X_237  0.6282353401184082)
(X_238  0.6321569085121155)
(X_239  0.6423529386520386)
(X_240  0.6854901909828186)
(X_241  0.6658823490142822)
(X_242  0.661960780620575)
(X_243  0.6698039174079895)
(X_244  0.7380392551422119)
(X_245  0.6988235712051392)
(X_246  0.667451024055481)
(X_247  0.6517647504806519)
(X_248  0.5733333826065063)
(X_249  0.6243137717247009)
(X_250  0.6556863188743591)
(X_251  0.6360784769058228)
(X_252  0.6243137717247009)
(X_253  0.6909804344177246)
(X_254  0.55372554063797)
(X_255  0.3811764717102051)
(X_256  0.365490198135376)
(X_257  0.3262745141983032)
(X_258  0.30666667222976685)
(X_259  0.32470589876174927)
(X_260  0.40705883502960205)
(X_261  0.4149019718170166)
(X_262  0.4776470959186554)
(X_263  0.5639215707778931)
(X_264  0.5796078443527222)
(X_265  0.6203922033309937)
(X_266  0.6321569085121155)
(X_267  0.6070588231086731)
(X_268  0.5952941179275513)
(X_269  0.6031372547149658)
(X_270  0.6305882334709167)
(X_271  0.6737254858016968)
(X_272  0.6972548961639404)
(X_273  0.7694118022918701)
(X_274  0.7654902338981628)
(X_275  0.7694118022918701)
(X_276  0.6635294556617737)
(X_277  0.5733333826065063)
(X_278  0.49882352352142334)
(X_279  0.4909803867340088)
(X_280  0.6541176438331604)
(X_281  0.5521568655967712)
(X_282  0.4909803867340088)
(X_283  0.4282352924346924)
(X_284  0.41647058725357056)
(X_285  0.3576470613479614)
(X_286  0.26588237285614014)
(X_287  0.34431374073028564)
(X_288  0.39137256145477295)
(X_289  0.434509813785553)
(X_290  0.5090196132659912)
(X_291  0.5639215707778931)
(X_292  0.5835294127464294)
(X_293  0.6635294556617737)
(X_294  0.6831372976303101)
(X_295  0.6305882334709167)
(X_296  0.6658823490142822)
(X_297  0.6698039174079895)
(X_298  0.6854901909828186)
(X_299  0.705098032951355)
(X_300  0.6933333277702332)
(X_301  0.6658823490142822)
(X_302  0.7301961183547974)
(X_303  0.7301961183547974)
(X_304  0.7498039603233337)
(X_305  0.5890196561813354)
(X_306  0.46745097637176514)
(X_307  0.48313724994659424)
(X_308  0.5717647075653076)
(X_309  0.40705883502960205)
(X_310  0.36941176652908325)
(X_311  0.3576470613479614)
(X_312  0.3458823561668396)
(X_313  0.2541176676750183)
(X_314  0.30901962518692017)
(X_315  0.3835294246673584)
(X_316  0.3874509930610657)
(X_317  0.42274510860443115)
(X_318  0.4972549378871918)
(X_319  0.5874509811401367)
(X_320  0.6384313702583313)
(X_321  0.7301961183547974)
(X_322  0.6698039174079895)
(X_323  0.6972548961639404)
(X_324  0.6658823490142822)
(X_325  0.6658823490142822)
(X_326  0.677647054195404)
(X_327  0.6933333277702332)
(X_328  0.6854901909828186)
(X_329  0.6698039174079895)
(X_330  0.7498039603233337)
(X_331  0.7654902338981628)
(X_332  0.7615686655044556)
(X_333  0.64000004529953)
(X_334  0.5105882287025452)
(X_335  0.4556862711906433)
(X_336  0.4619608223438263)
(X_337  0.3678431510925293)
(X_338  0.40078431367874146)
(X_339  0.38509804010391235)
(X_340  0.3576470613479614)
(X_341  0.32862746715545654)
(X_342  0.4305882453918457)
(X_343  0.48156866431236267)
(X_344  0.4031372666358948)
(X_345  0.3952941298484802)
(X_346  0.4737255275249481)
(X_347  0.6188235282897949)
(X_348  0.6972548961639404)
(X_349  0.7694118022918701)
(X_350  0.7811765074729919)
(X_351  0.824313759803772)
(X_352  0.6737254858016968)
(X_353  0.6658823490142822)
(X_354  0.6658823490142822)
(X_355  0.677647054195404)
(X_356  0.6815686225891113)
(X_357  0.677647054195404)
(X_358  0.6933333277702332)
(X_359  0.796862781047821)
(X_360  0.7576470971107483)
(X_361  0.6870588660240173)
(X_362  0.5498039722442627)
(X_363  0.42039215564727783)
(X_364  0.37568628787994385)
(X_365  0.46352940797805786)
(X_366  0.4752941131591797)
(X_367  0.44784313440322876)
(X_368  0.3482353091239929)
(X_369  0.4188235402107239)
(X_370  0.5011764764785767)
(X_371  0.5090196132659912)
(X_372  0.4266666769981384)
(X_373  0.4188235402107239)
(X_374  0.5050980448722839)
(X_375  0.6658823490142822)
(X_376  0.7443137168884277)
(X_377  0.8007843494415283)
(X_378  0.8007843494415283)
(X_379  0.8517647385597229)
(X_380  0.8321568965911865)
(X_381  0.7207843065261841)
(X_382  0.6933333277702332)
(X_383  0.6854901909828186)
(X_384  0.6737254858016968)
(X_385  0.6580392122268677)
(X_386  0.6541176438331604)
(X_387  0.661960780620575)
(X_388  0.7576470971107483)
(X_389  0.6870588660240173)
(X_390  0.5341176390647888)
(X_391  0.3968627452850342)
(X_392  0.2423529475927353)
(X_393  0.3733333349227905)
(X_394  0.3811764717102051)
(X_395  0.2698039412498474)
(X_396  0.2854902148246765)
(X_397  0.3521568775177002)
(X_398  0.39137256145477295)
(X_399  0.3796078562736511)
(X_400  0.40705883502960205)
(X_401  0.45411765575408936)
(X_402  0.5678431391716003)
(X_403  0.6894117593765259)
(X_404  0.8282353281974792)
(X_405  0.8203921914100647)
(X_406  0.8282353281974792)
(X_407  0.8556863069534302)
(X_408  0.7207843065261841)
(X_409  0.6854901909828186)
(X_410  0.661960780620575)
(X_411  0.6737254858016968)
(X_412  0.6894117593765259)
(X_413  0.6815686225891113)
(X_414  0.661960780620575)
(X_415  0.6541176438331604)
(X_416  0.6384313702583313)
(X_417  0.6360784769058228)
(X_418  0.5027450919151306)
(X_419  0.38901960849761963)
(X_420  0.3011764883995056)
(X_421  0.41647058725357056)
(X_422  0.38509804010391235)
(X_423  0.27764707803726196)
(X_424  0.3325490355491638)
(X_425  0.3952941298484802)
(X_426  0.4109804034233093)
(X_427  0.40705883502960205)
(X_428  0.34039217233657837)
(X_429  0.45803922414779663)
(X_430  0.5952941179275513)
(X_431  0.6737254858016968)
(X_432  0.7090196013450623)
(X_433  0.8125490546226501)
(X_434  0.8321568965911865)
(X_435  0.8400000333786011)
(X_436  0.8125490546226501)
(X_437  0.6933333277702332)
(X_438  0.6658823490142822)
(X_439  0.6737254858016968)
(X_440  0.6815686225891113)
(X_441  0.7380392551422119)
(X_442  0.6188235282897949)
(X_443  0.5874509811401367)
(X_444  0.5952941179275513)
(X_445  0.6360784769058228)
(X_446  0.5811765193939209)
(X_447  0.5380392074584961)
(X_448  0.34431374073028564)
(X_449  0.4125490188598633)
(X_450  0.38509804010391235)
(X_451  0.2698039412498474)
(X_452  0.2737255096435547)
(X_453  0.3168627619743347)
(X_454  0.363921582698822)
(X_455  0.3835294246673584)
(X_456  0.36000001430511475)
(X_457  0.4776470959186554)
(X_458  0.6501960754394531)
(X_459  0.7364705801010132)
(X_460  0.8203921914100647)
(X_461  0.8478431701660156)
(X_462  0.867451012134552)
(X_463  0.7521568536758423)
(X_464  0.7599999904632568)
(X_465  0.705098032951355)
(X_466  0.7011764645576477)
(X_467  0.7207843065261841)
(X_468  0.705098032951355)
(X_469  0.677647054195404)
(X_470  0.6227450966835022)
(X_471  0.5443137288093567)
(X_472  0.5364705920219421)
(X_473  0.5890196561813354)
(X_474  0.5576471090316772)
(X_475  0.5419608354568481)
(X_476  0.2698039412498474)
(X_477  0.36941176652908325)
(X_478  0.3168627619743347)
(X_479  0.3482353091239929)
(X_480  0.3717647194862366)
(X_481  0.3678431510925293)
(X_482  0.31294119358062744)
(X_483  0.2541176676750183)
(X_484  0.3011764883995056)
(X_485  0.42274510860443115)
(X_486  0.5992156863212585)
(X_487  0.6972548961639404)
(X_488  0.7168627381324768)
(X_489  0.8400000333786011)
(X_490  0.8713725805282593)
(X_491  0.8439216017723083)
(X_492  0.7733333706855774)
(X_493  0.6384313702583313)
(X_494  0.6384313702583313)
(X_495  0.6737254858016968)
(X_496  0.6815686225891113)
(X_497  0.677647054195404)
(X_498  0.6462745070457458)
(X_499  0.5874509811401367)
(X_500  0.5247058868408203)
(X_501  0.4972549378871918)
(X_502  0.5380392074584961)
(X_503  0.5066666603088379)
(X_504  0.3929411768913269)
(X_505  0.408627450466156)
(X_506  0.34431374073028564)
(X_507  0.3482353091239929)
(X_508  0.35607844591140747)
(X_509  0.363921582698822)
(X_510  0.3482353091239929)
(X_511  0.32470589876174927)
(X_512  0.3325490355491638)
(X_513  0.44235295057296753)
(X_514  0.5992156863212585)
(X_515  0.6815686225891113)
(X_516  0.6933333277702332)
(X_517  0.8125490546226501)
(X_518  0.8400000333786011)
(X_519  0.8086274862289429)
(X_520  0.7443137168884277)
(X_521  0.6698039174079895)
(X_522  0.6462745070457458)
(X_523  0.661960780620575)
(X_524  0.6501960754394531)
(X_525  0.6305882334709167)
(X_526  0.5952941179275513)
(X_527  0.5364705920219421)
(X_528  0.5364705920219421)
(X_529  0.5168627500534058)
(X_530  0.5733333826065063)
(X_531  0.5576471090316772)
(X_532  0.25960785150527954)
(X_533  0.32235294580459595)
(X_534  0.3733333349227905)
(X_535  0.28156864643096924)
(X_536  0.23843137919902802)
(X_537  0.20705881714820862)
(X_538  0.1952941119670868)
(X_539  0.19137254357337952)
(X_540  0.2541176676750183)
(X_541  0.363921582698822)
(X_542  0.5286274552345276)
(X_543  0.6305882334709167)
(X_544  0.6737254858016968)
(X_545  0.824313759803772)
(X_546  0.8752941489219666)
(X_547  0.8596078753471375)
(X_548  0.7443137168884277)
(X_549  0.6658823490142822)
(X_550  0.6541176438331604)
(X_551  0.6933333277702332)
(X_552  0.6933333277702332)
(X_553  0.6854901909828186)
(X_554  0.661960780620575)
(X_555  0.6188235282897949)
(X_556  0.5129411816596985)
(X_557  0.4933333694934845)
(X_558  0.5301960706710815)
(X_559  0.4909803867340088)
(X_560  0.3419607877731323)
(X_561  0.3576470613479614)
(X_562  0.2698039412498474)
(X_563  0.2227451056241989)
(X_564  0.19137254357337952)
(X_565  0.19137254357337952)
(X_566  0.2109804004430771)
(X_567  0.2227451056241989)
(X_568  0.2854902148246765)
(X_569  0.3796078562736511)
(X_570  0.520784318447113)
(X_571  0.6070588231086731)
(X_572  0.6384313702583313)
(X_573  0.7850980758666992)
(X_574  0.8360784649848938)
(X_575  0.8203921914100647)
(X_576  0.677647054195404)
(X_577  0.5992156863212585)
(X_578  0.5952941179275513)
(X_579  0.6501960754394531)
(X_580  0.6580392122268677)
(X_581  0.6423529386520386)
(X_582  0.6188235282897949)
(X_583  0.5796078443527222)
(X_584  0.5521568655967712)
(X_585  0.5364705920219421)
(X_586  0.5733333826065063)
(X_587  0.5262745022773743)
(X_588  0.44784313440322876)
(X_589  0.3968627452850342)
(X_590  0.24627451598644257)
(X_591  0.294901967048645)
(X_592  0.3419607877731323)
(X_593  0.43215686082839966)
(X_594  0.49490195512771606)
(X_595  0.5145097970962524)
(X_596  0.5772549510002136)
(X_597  0.5600000023841858)
(X_598  0.6541176438331604)
(X_599  0.6894117593765259)
(X_600  0.677647054195404)
(X_601  0.7890196442604065)
(X_602  0.8125490546226501)
(X_603  0.7772549390792847)
(X_604  0.6698039174079895)
(X_605  0.5796078443527222)
(X_606  0.5717647075653076)
(X_607  0.6188235282897949)
(X_608  0.6188235282897949)
(X_609  0.5874509811401367)
(X_610  0.5560784339904785)
(X_611  0.520784318447113)
(X_612  0.5380392074584961)
(X_613  0.5341176390647888)
(X_614  0.5027450919151306)
(X_615  0.46352940797805786)
(X_616  0.2792156934738159)
(X_617  0.32235294580459595)
(X_618  0.3772549033164978)
(X_619  0.43607842922210693)
(X_620  0.49882352352142334)
(X_621  0.5458824038505554)
(X_622  0.55372554063797)
(X_623  0.5380392074584961)
(X_624  0.5756862759590149)
(X_625  0.7145098447799683)
(X_626  0.7207843065261841)
(X_627  0.7560784220695496)
(X_628  0.7521568536758423)
(X_629  0.8713725805282593)
(X_630  0.8227450847625732)
(X_631  0.7952941060066223)
(X_632  0.6541176438331604)
(X_633  0.5600000023841858)
(X_634  0.5521568655967712)
(X_635  0.6188235282897949)
(X_636  0.634509801864624)
(X_637  0.6188235282897949)
(X_638  0.6109803915023804)
(X_639  0.591372549533844)
(X_640  0.5654902458190918)
(X_641  0.55372554063797)
(X_642  0.49882352352142334)
(X_643  0.4243137240409851)
(X_644  0.40078431367874146)
(X_645  0.5027450919151306)
(X_646  0.6047059297561646)
(X_647  0.6439216136932373)
(X_648  0.64000004529953)
(X_649  0.6556863188743591)
(X_650  0.6949020028114319)
(X_651  0.6501960754394531)
(X_652  0.6188235282897949)
(X_653  0.6658823490142822)
(X_654  0.7403921484947205)
(X_655  0.8360784649848938)
(X_656  0.8203921914100647)
(X_657  0.8517647385597229)
(X_658  0.8752941489219666)
(X_659  0.8400000333786011)
(X_660  0.6384313702583313)
(X_661  0.5247058868408203)
(X_662  0.4894118010997772)
(X_663  0.520784318447113)
(X_664  0.5890196561813354)
(X_665  0.4737255275249481)
(X_666  0.45803922414779663)
(X_667  0.43843138217926025)
(X_668  0.4305882453918457)
(X_669  0.42274510860443115)
(X_670  0.44784313440322876)
(X_671  0.3733333349227905)
(X_672  0.6321569085121155)
(X_673  0.6282353401184082)
(X_674  0.6282353401184082)
(X_675  0.64000004529953)
(X_676  0.667451024055481)
(X_677  0.6149019598960876)
(X_678  0.7184314131736755)
(X_679  0.7301961183547974)
(X_680  0.753725528717041)
(X_681  0.8047059178352356)
(X_682  0.7443137168884277)
(X_683  0.8007843494415283)
(X_684  0.8047059178352356)
(X_685  0.8439216017723083)
(X_686  0.8556863069534302)
(X_687  0.8360784649848938)
(X_688  0.6854901909828186)
(X_689  0.6109803915023804)
(X_690  0.5756862759590149)
(X_691  0.6478431820869446)
(X_692  0.5403921604156494)
(X_693  0.5168627500534058)
(X_694  0.4933333694934845)
(X_695  0.4462745189666748)
(X_696  0.3992156982421875)
(X_697  0.3874509930610657)
(X_698  0.26588237285614014)
(X_699  0.12470588833093643)
(X_700  0.6243137717247009)
(X_701  0.6282353401184082)
(X_702  0.6439216136932373)
(X_703  0.6635294556617737)
(X_704  0.6831372976303101)
(X_705  0.7027451395988464)
(X_706  0.710588276386261)
(X_707  0.634509801864624)
(X_708  0.7458823919296265)
(X_709  0.8086274862289429)
(X_710  0.8439216017723083)
(X_711  0.8360784649848938)
(X_712  0.8478431701660156)
(X_713  0.8870588541030884)
(X_714  0.8909804224967957)
(X_715  0.8635294437408447)
(X_716  0.6894117593765259)
(X_717  0.634509801864624)
(X_718  0.7066667079925537)
(X_719  0.7223529815673828)
(X_720  0.7145098447799683)
(X_721  0.6305882334709167)
(X_722  0.6305882334709167)
(X_723  0.6031372547149658)
(X_724  0.5717647075653076)
(X_725  0.548235297203064)
(X_726  0.4031372666358948)
(X_727  0.24627451598644257)
(X_728  0.5756862759590149)
(X_729  0.591372549533844)
(X_730  0.6188235282897949)
(X_731  0.7262745499610901)
(X_732  0.7419608235359192)
(X_733  0.7458823919296265)
(X_734  0.7419608235359192)
(X_735  0.7380392551422119)
(X_736  0.7301961183547974)
(X_737  0.796862781047821)
(X_738  0.8400000333786011)
(X_739  0.8400000333786011)
(X_740  0.8517647385597229)
(X_741  0.8831372857093811)
(X_742  0.8752941489219666)
(X_743  0.8360784649848938)
(X_744  0.6988235712051392)
(X_745  0.6635294556617737)
(X_746  0.6870588660240173)
(X_747  0.7262745499610901)
(X_748  0.7301961183547974)
(X_749  0.7458823919296265)
(X_750  0.6894117593765259)
(X_751  0.7576470971107483)
(X_752  0.7011764645576477)
(X_753  0.6972548961639404)
(X_754  0.667451024055481)
(X_755  0.46588239073753357)
(X_756  0.6149019598960876)
(X_757  0.6384313702583313)
(X_758  0.7498039603233337)
(X_759  0.7733333706855774)
(X_760  0.7850980758666992)
(X_761  0.7850980758666992)
(X_762  0.7772549390792847)
(X_763  0.7733333706855774)
(X_764  0.7419608235359192)
(X_765  0.8007843494415283)
(X_766  0.8360784649848938)
(X_767  0.824313759803772)
(X_768  0.8282353281974792)
(X_769  0.8517647385597229)
(X_770  0.8321568965911865)
(X_771  0.705098032951355)
(X_772  0.710588276386261)
(X_773  0.6909804344177246)
(X_774  0.7301961183547974)
(X_775  0.7694118022918701)
(X_776  0.7654902338981628)
(X_777  0.7811765074729919)
(X_778  0.8125490546226501)
(X_779  0.8125490546226501)
(X_780  0.7811765074729919)
(X_781  0.8125490546226501)
(X_782  0.6894117593765259)
(X_783  0.7066667079925537)
(Y_0 -1.2680556774139404))