((X_0  0.5184313654899597)
(X_1  0.6243137717247009)
(X_2  0.6949020028114319)
(X_3  0.6792157292366028)
(X_4  0.6556863188743591)
(X_5  0.7066667079925537)
(X_6  0.7850980758666992)
(X_7  0.8360784649848938)
(X_8  0.8596078753471375)
(X_9  0.7011764645576477)
(X_10  0.6541176438331604)
(X_11  0.6266666650772095)
(X_12  0.6894117593765259)
(X_13  0.7403921484947205)
(X_14  0.7207843065261841)
(X_15  0.7835294008255005)
(X_16  0.8933333158493042)
(X_17  0.7874509692192078)
(X_18  0.7717646956443787)
(X_19  0.7168627381324768)
(X_20  0.5403921604156494)
(X_21  0.5694118142127991)
(X_22  0.6478431820869446)
(X_23  0.6596078872680664)
(X_24  0.6596078872680664)
(X_25  0.6792157292366028)
(X_26  0.6188235282897949)
(X_27  0.6149019598960876)
(X_28  0.46588239073753357)
(X_29  0.4894118010997772)
(X_30  0.6203922033309937)
(X_31  0.6831372976303101)
(X_32  0.7380392551422119)
(X_33  0.7694118022918701)
(X_34  0.796862781047821)
(X_35  0.8164706230163574)
(X_36  0.9223529696464539)
(X_37  0.8909804224967957)
(X_38  0.8109803795814514)
(X_39  0.7678431272506714)
(X_40  0.7443137168884277)
(X_41  0.6933333277702332)
(X_42  0.6305882334709167)
(X_43  0.705098032951355)
(X_44  0.748235285282135)
(X_45  0.6815686225891113)
(X_46  0.7247058749198914)
(X_47  0.8752941489219666)
(X_48  0.8439216017723083)
(X_49  0.8007843494415283)
(X_50  0.7733333706855774)
(X_51  0.7223529815673828)
(X_52  0.6831372976303101)
(X_53  0.6752941608428955)
(X_54  0.5835294127464294)
(X_55  0.5678431391716003)
(X_56  0.4188235402107239)
(X_57  0.5341176390647888)
(X_58  0.6321569085121155)
(X_59  0.753725528717041)
(X_60  0.8086274862289429)
(X_61  0.8007843494415283)
(X_62  0.8203921914100647)
(X_63  0.8635294437408447)
(X_64  0.9066666960716248)
(X_65  0.8517647385597229)
(X_66  0.7717646956443787)
(X_67  0.7599999904632568)
(X_68  0.7678431272506714)
(X_69  0.7403921484947205)
(X_70  0.7090196013450623)
(X_71  0.8109803795814514)
(X_72  0.8556863069534302)
(X_73  0.7521568536758423)
(X_74  0.7835294008255005)
(X_75  0.8345097899436951)
(X_76  0.8949019908905029)
(X_77  0.8047059178352356)
(X_78  0.7419608235359192)
(X_79  0.7301961183547974)
(X_80  0.7184314131736755)
(X_81  0.5952941179275513)
(X_82  0.5364705920219421)
(X_83  0.4972549378871918)
(X_84  0.39137256145477295)
(X_85  0.5341176390647888)
(X_86  0.6635294556617737)
(X_87  0.8047059178352356)
(X_88  0.7992156744003296)
(X_89  0.8792157173156738)
(X_90  0.8596078753471375)
(X_91  0.7835294008255005)
(X_92  0.7796078324317932)
(X_93  0.6541176438331604)
(X_94  0.6149019598960876)
(X_95  0.7380392551422119)
(X_96  0.8478431701660156)
(X_97  0.8792157173156738)
(X_98  0.8360784649848938)
(X_99  0.910588264465332)
(X_100  0.7835294008255005)
(X_101  0.7364705801010132)
(X_102  0.705098032951355)
(X_103  0.748235285282135)
(X_104  0.7835294008255005)
(X_105  0.7286274433135986)
(X_106  0.6894117593765259)
(X_107  0.7247058749198914)
(X_108  0.7890196442604065)
(X_109  0.6305882334709167)
(X_110  0.5247058868408203)
(X_111  0.45803922414779663)
(X_112  0.4188235402107239)
(X_113  0.46588239073753357)
(X_114  0.6439216136932373)
(X_115  0.7850980758666992)
(X_116  0.9301961064338684)
(X_117  0.8933333158493042)
(X_118  0.791372537612915)
(X_119  0.661960780620575)
(X_120  0.5952941179275513)
(X_121  0.48156866431236267)
(X_122  0.4737255275249481)
(X_123  0.6635294556617737)
(X_124  0.8517647385597229)
(X_125  0.9301961064338684)
(X_126  0.8752941489219666)
(X_127  0.9145098328590393)
(X_128  0.7560784220695496)
(X_129  0.6109803915023804)
(X_130  0.5050980448722839)
(X_131  0.5952941179275513)
(X_132  0.7599999904632568)
(X_133  0.7992156744003296)
(X_134  0.7639215588569641)
(X_135  0.7678431272506714)
(X_136  0.8478431701660156)
(X_137  0.6658823490142822)
(X_138  0.5364705920219421)
(X_139  0.4501960873603821)
(X_140  0.4752941131591797)
(X_141  0.5050980448722839)
(X_142  0.6305882334709167)
(X_143  0.8086274862289429)
(X_144  0.8831372857093811)
(X_145  0.8109803795814514)
(X_146  0.7011764645576477)
(X_147  0.5717647075653076)
(X_148  0.46588239073753357)
(X_149  0.3992156982421875)
(X_150  0.4188235402107239)
(X_151  0.5850980877876282)
(X_152  0.7733333706855774)
(X_153  0.9066666960716248)
(X_154  0.8423529267311096)
(X_155  0.9168627262115479)
(X_156  0.7090196013450623)
(X_157  0.5090196132659912)
(X_158  0.3796078562736511)
(X_159  0.4462745189666748)
(X_160  0.5796078443527222)
(X_161  0.6815686225891113)
(X_162  0.7678431272506714)
(X_163  0.8384313583374023)
(X_164  0.7717646956443787)
(X_165  0.661960780620575)
(X_166  0.5247058868408203)
(X_167  0.4305882453918457)
(X_168  0.3874509930610657)
(X_169  0.5443137288093567)
(X_170  0.7247058749198914)
(X_171  0.791372537612915)
(X_172  0.7364705801010132)
(X_173  0.6384313702583313)
(X_174  0.5639215707778931)
(X_175  0.5286274552345276)
(X_176  0.4933333694934845)
(X_177  0.5262745022773743)
(X_178  0.5184313654899597)
(X_179  0.5458824038505554)
(X_180  0.7066667079925537)
(X_181  0.8635294437408447)
(X_182  0.9027451276779175)
(X_183  0.8933333158493042)
(X_184  0.6031372547149658)
(X_185  0.4149019718170166)
(X_186  0.34039217233657837)
(X_187  0.3835294246673584)
(X_188  0.42274510860443115)
(X_189  0.5443137288093567)
(X_190  0.7560784220695496)
(X_191  0.8972548842430115)
(X_192  0.7639215588569641)
(X_193  0.661960780620575)
(X_194  0.5286274552345276)
(X_195  0.43843138217926025)
(X_196  0.45411765575408936)
(X_197  0.5639215707778931)
(X_198  0.7207843065261841)
(X_199  0.8070588111877441)
(X_200  0.7364705801010132)
(X_201  0.5796078443527222)
(X_202  0.4776470959186554)
(X_203  0.45803922414779663)
(X_204  0.3874509930610657)
(X_205  0.45176470279693604)
(X_206  0.48313724994659424)
(X_207  0.5576471090316772)
(X_208  0.7694118022918701)
(X_209  0.8737254738807678)
(X_210  0.8776470422744751)
(X_211  0.8933333158493042)
(X_212  0.7223529815673828)
(X_213  0.4305882453918457)
(X_214  0.3835294246673584)
(X_215  0.4462745189666748)
(X_216  0.4462745189666748)
(X_217  0.5168627500534058)
(X_218  0.661960780620575)
(X_219  0.7168627381324768)
(X_220  0.7874509692192078)
(X_221  0.6972548961639404)
(X_222  0.5717647075653076)
(X_223  0.48156866431236267)
(X_224  0.5129411816596985)
(X_225  0.6462745070457458)
(X_226  0.8305882215499878)
(X_227  0.6972548961639404)
(X_228  0.5874509811401367)
(X_229  0.5835294127464294)
(X_230  0.5145097970962524)
(X_231  0.48313724994659424)
(X_232  0.47921568155288696)
(X_233  0.4713725447654724)
(X_234  0.46352940797805786)
(X_235  0.59686279296875)
(X_236  0.8439216017723083)
(X_237  0.8737254738807678)
(X_238  0.8737254738807678)
(X_239  0.9890196323394775)
(X_240  0.7341176867485046)
(X_241  0.49882352352142334)
(X_242  0.4399999976158142)
(X_243  0.48313724994659424)
(X_244  0.434509813785553)
(X_245  0.4619608223438263)
(X_246  0.5011764764785767)
(X_247  0.6149019598960876)
(X_248  0.7952941060066223)
(X_249  0.8031372427940369)
(X_250  0.5952941179275513)
(X_251  0.5090196132659912)
(X_252  0.5247058868408203)
(X_253  0.7129411697387695)
(X_254  0.8070588111877441)
(X_255  0.634509801864624)
(X_256  0.5090196132659912)
(X_257  0.5011764764785767)
(X_258  0.45803922414779663)
(X_259  0.5654902458190918)
(X_260  0.5027450919151306)
(X_261  0.5066666603088379)
(X_262  0.5145097970962524)
(X_263  0.6556863188743591)
(X_264  0.8792157173156738)
(X_265  0.8933333158493042)
(X_266  0.8854901790618896)
(X_267  0.9850980639457703)
(X_268  0.8556863069534302)
(X_269  0.6164706349372864)
(X_270  0.5066666603088379)
(X_271  0.46745097637176514)
(X_272  0.4596078395843506)
(X_273  0.4188235402107239)
(X_274  0.45411765575408936)
(X_275  0.5364705920219421)
(X_276  0.7247058749198914)
(X_277  0.8227450847625732)
(X_278  0.7011764645576477)
(X_279  0.5521568655967712)
(X_280  0.6713725924491882)
(X_281  0.9027451276779175)
(X_282  0.7756862640380859)
(X_283  0.5756862759590149)
(X_284  0.45803922414779663)
(X_285  0.3678431510925293)
(X_286  0.4125490188598633)
(X_287  0.40470588207244873)
(X_288  0.4909803867340088)
(X_289  0.5145097970962524)
(X_290  0.5615686774253845)
(X_291  0.710588276386261)
(X_292  0.910588264465332)
(X_293  0.9168627262115479)
(X_294  0.9011764526367188)
(X_295  0.9772549271583557)
(X_296  0.8360784649848938)
(X_297  0.6596078872680664)
(X_298  0.5576471090316772)
(X_299  0.46745097637176514)
(X_300  0.45176470279693604)
(X_301  0.5380392074584961)
(X_302  0.5090196132659912)
(X_303  0.5600000023841858)
(X_304  0.591372549533844)
(X_305  0.7756862640380859)
(X_306  0.7835294008255005)
(X_307  0.5992156863212585)
(X_308  0.6792157292366028)
(X_309  0.8988235592842102)
(X_310  0.6462745070457458)
(X_311  0.5168627500534058)
(X_312  0.5247058868408203)
(X_313  0.5380392074584961)
(X_314  0.5380392074584961)
(X_315  0.4870588183403015)
(X_316  0.45176470279693604)
(X_317  0.49882352352142334)
(X_318  0.5929412245750427)
(X_319  0.753725528717041)
(X_320  0.9223529696464539)
(X_321  0.9207842946052551)
(X_322  0.9929412007331848)
(X_323  0.9694117903709412)
(X_324  0.8988235592842102)
(X_325  0.7890196442604065)
(X_326  0.6988235712051392)
(X_327  0.5262745022773743)
(X_328  0.4243137240409851)
(X_329  0.46745097637176514)
(X_330  0.39137256145477295)
(X_331  0.3952941298484802)
(X_332  0.5011764764785767)
(X_333  0.6972548961639404)
(X_334  0.7952941060066223)
(X_335  0.6384313702583313)
(X_336  0.7498039603233337)
(X_337  0.8792157173156738)
(X_338  0.5011764764785767)
(X_339  0.36000001430511475)
(X_340  0.3796078562736511)
(X_341  0.3929411768913269)
(X_342  0.4399999976158142)
(X_343  0.40078431367874146)
(X_344  0.4556862711906433)
(X_345  0.5145097970962524)
(X_346  0.6439216136932373)
(X_347  0.8007843494415283)
(X_348  0.9301961064338684)
(X_349  0.9247058629989624)
(X_350  0.9247058629989624)
(X_351  0.8815686106681824)
(X_352  0.7929412126541138)
(X_353  0.7458823919296265)
(X_354  0.7184314131736755)
(X_355  0.55372554063797)
(X_356  0.4243137240409851)
(X_357  0.45176470279693604)
(X_358  0.4752941131591797)
(X_359  0.4149019718170166)
(X_360  0.48549023270606995)
(X_361  0.6149019598960876)
(X_362  0.7443137168884277)
(X_363  0.6815686225891113)
(X_364  0.7458823919296265)
(X_365  0.7403921484947205)
(X_366  0.4933333694934845)
(X_367  0.4031372666358948)
(X_368  0.49490195512771606)
(X_369  0.43607842922210693)
(X_370  0.5066666603088379)
(X_371  0.5027450919151306)
(X_372  0.5027450919151306)
(X_373  0.5615686774253845)
(X_374  0.710588276386261)
(X_375  0.8517647385597229)
(X_376  0.938039243221283)
(X_377  0.9247058629989624)
(X_378  0.9403921365737915)
(X_379  0.8815686106681824)
(X_380  0.7874509692192078)
(X_381  0.8164706230163574)
(X_382  0.7929412126541138)
(X_383  0.6282353401184082)
(X_384  0.45176470279693604)
(X_385  0.41647058725357056)
(X_386  0.41647058725357056)
(X_387  0.4596078395843506)
(X_388  0.4305882453918457)
(X_389  0.5090196132659912)
(X_390  0.6501960754394531)
(X_391  0.7129411697387695)
(X_392  0.8047059178352356)
(X_393  0.6815686225891113)
(X_394  0.4776470959186554)
(X_395  0.49882352352142334)
(X_396  0.47921568155288696)
(X_397  0.3929411768913269)
(X_398  0.3929411768913269)
(X_399  0.35372549295425415)
(X_400  0.522352933883667)
(X_401  0.5772549510002136)
(X_402  0.7341176867485046)
(X_403  0.8635294437408447)
(X_404  0.8384313583374023)
(X_405  0.9129411578178406)
(X_406  0.9443137049674988)
(X_407  0.8854901790618896)
(X_408  0.8203921914100647)
(X_409  0.7576470971107483)
(X_410  0.7811765074729919)
(X_411  0.7027451395988464)
(X_412  0.5615686774253845)
(X_413  0.4870588183403015)
(X_414  0.46745097637176514)
(X_415  0.5262745022773743)
(X_416  0.43607842922210693)
(X_417  0.43843138217926025)
(X_418  0.5796078443527222)
(X_419  0.7247058749198914)
(X_420  0.8164706230163574)
(X_421  0.5600000023841858)
(X_422  0.3521568775177002)
(X_423  0.4282352924346924)
(X_424  0.4870588183403015)
(X_425  0.4870588183403015)
(X_426  0.4909803867340088)
(X_427  0.44784313440322876)
(X_428  0.49882352352142334)
(X_429  0.5576471090316772)
(X_430  0.7184314131736755)
(X_431  0.8439216017723083)
(X_432  0.8909804224967957)
(X_433  0.8933333158493042)
(X_434  0.9403921365737915)
(X_435  0.8815686106681824)
(X_436  0.8031372427940369)
(X_437  0.7929412126541138)
(X_438  0.8203921914100647)
(X_439  0.7733333706855774)
(X_440  0.6086274981498718)
(X_441  0.3717647194862366)
(X_442  0.35372549295425415)
(X_443  0.3811764717102051)
(X_444  0.42039215564727783)
(X_445  0.4501960873603821)
(X_446  0.5756862759590149)
(X_447  0.7364705801010132)
(X_448  0.7694118022918701)
(X_449  0.5521568655967712)
(X_450  0.4776470959186554)
(X_451  0.4596078395843506)
(X_452  0.408627450466156)
(X_453  0.45176470279693604)
(X_454  0.4439215660095215)
(X_455  0.4439215660095215)
(X_456  0.45176470279693604)
(X_457  0.5184313654899597)
(X_458  0.6517647504806519)
(X_459  0.8047059178352356)
(X_460  0.8698039054870605)
(X_461  0.8345097899436951)
(X_462  0.9207842946052551)
(X_463  0.9968627691268921)
(X_464  0.8596078753471375)
(X_465  0.8164706230163574)
(X_466  0.8478431701660156)
(X_467  0.8086274862289429)
(X_468  0.6949020028114319)
(X_469  0.5498039722442627)
(X_470  0.4243137240409851)
(X_471  0.44784313440322876)
(X_472  0.46745097637176514)
(X_473  0.39137256145477295)
(X_474  0.45411765575408936)
(X_475  0.7168627381324768)
(X_476  0.7615686655044556)
(X_477  0.42274510860443115)
(X_478  0.3968627452850342)
(X_479  0.3968627452850342)
(X_480  0.408627450466156)
(X_481  0.41647058725357056)
(X_482  0.40470588207244873)
(X_483  0.4596078395843506)
(X_484  0.4439215660095215)
(X_485  0.4870588183403015)
(X_486  0.6047059297561646)
(X_487  0.7654902338981628)
(X_488  0.9458823800086975)
(X_489  0.8580392003059387)
(X_490  0.9364705681800842)
(X_491  0.9168627262115479)
(X_492  0.7443137168884277)
(X_493  0.7850980758666992)
(X_494  0.8360784649848938)
(X_495  0.8203921914100647)
(X_496  0.7301961183547974)
(X_497  0.5772549510002136)
(X_498  0.4125490188598633)
(X_499  0.3929411768913269)
(X_500  0.43607842922210693)
(X_501  0.47921568155288696)
(X_502  0.46588239073753357)
(X_503  0.6972548961639404)
(X_504  0.5717647075653076)
(X_505  0.3482353091239929)
(X_506  0.3929411768913269)
(X_507  0.4596078395843506)
(X_508  0.4909803867340088)
(X_509  0.46745097637176514)
(X_510  0.41647058725357056)
(X_511  0.45176470279693604)
(X_512  0.38901960849761963)
(X_513  0.408627450466156)
(X_514  0.5066666603088379)
(X_515  0.6792157292366028)
(X_516  0.8988235592842102)
(X_517  0.8462744951248169)
(X_518  0.932548999786377)
(X_519  0.8933333158493042)
(X_520  0.8713725805282593)
(X_521  0.824313759803772)
(X_522  0.8556863069534302)
(X_523  0.8321568965911865)
(X_524  0.7419608235359192)
(X_525  0.5811765193939209)
(X_526  0.38901960849761963)
(X_527  0.3419607877731323)
(X_528  0.3615686297416687)
(X_529  0.4243137240409851)
(X_530  0.42274510860443115)
(X_531  0.6462745070457458)
(X_532  0.5129411816596985)
(X_533  0.3874509930610657)
(X_534  0.36000001430511475)
(X_535  0.3968627452850342)
(X_536  0.3576470613479614)
(X_537  0.3733333349227905)
(X_538  0.3615686297416687)
(X_539  0.38901960849761963)
(X_540  0.4596078395843506)
(X_541  0.46745097637176514)
(X_542  0.5341176390647888)
(X_543  0.6752941608428955)
(X_544  0.8792157173156738)
(X_545  0.8266666531562805)
(X_546  0.9090195894241333)
(X_547  0.861960768699646)
(X_548  0.8125490546226501)
(X_549  0.7615686655044556)
(X_550  0.7850980758666992)
(X_551  0.753725528717041)
(X_552  0.6792157292366028)
(X_553  0.5654902458190918)
(X_554  0.42039215564727783)
(X_555  0.3929411768913269)
(X_556  0.4125490188598633)
(X_557  0.4282352924346924)
(X_558  0.36000001430511475)
(X_559  0.5443137288093567)
(X_560  0.4462745189666748)
(X_561  0.32470589876174927)
(X_562  0.365490198135376)
(X_563  0.30666667222976685)
(X_564  0.3105882406234741)
(X_565  0.43607842922210693)
(X_566  0.5419608354568481)
(X_567  0.64000004529953)
(X_568  0.667451024055481)
(X_569  0.667451024055481)
(X_570  0.7027451395988464)
(X_571  0.7811765074729919)
(X_572  0.9223529696464539)
(X_573  0.8345097899436951)
(X_574  0.9011764526367188)
(X_575  0.8501960635185242)
(X_576  0.7654902338981628)
(X_577  0.7184314131736755)
(X_578  0.7262745499610901)
(X_579  0.6635294556617737)
(X_580  0.5654902458190918)
(X_581  0.4556862711906433)
(X_582  0.3301960825920105)
(X_583  0.32235294580459595)
(X_584  0.4713725447654724)
(X_585  0.46745097637176514)
(X_586  0.3521568775177002)
(X_587  0.48549023270606995)
(X_588  0.31294119358062744)
(X_589  0.23058824241161346)
(X_590  0.40470588207244873)
(X_591  0.45411765575408936)
(X_592  0.5521568655967712)
(X_593  0.6423529386520386)
(X_594  0.6933333277702332)
(X_595  0.7678431272506714)
(X_596  0.6972548961639404)
(X_597  0.7811765074729919)
(X_598  0.8007843494415283)
(X_599  0.8439216017723083)
(X_600  0.9537255167961121)
(X_601  0.8541176319122314)
(X_602  0.9207842946052551)
(X_603  0.8658823370933533)
(X_604  0.7576470971107483)
(X_605  0.7262745499610901)
(X_606  0.7458823919296265)
(X_607  0.6792157292366028)
(X_608  0.5811765193939209)
(X_609  0.47921568155288696)
(X_610  0.3498039245605469)
(X_611  0.3341176509857178)
(X_612  0.26588237285614014)
(X_613  0.31294119358062744)
(X_614  0.36000001430511475)
(X_615  0.5443137288093567)
(X_616  0.32862746715545654)
(X_617  0.36000001430511475)
(X_618  0.5560784339904785)
(X_619  0.6933333277702332)
(X_620  0.7443137168884277)
(X_621  0.7639215588569641)
(X_622  0.7090196013450623)
(X_623  0.6933333277702332)
(X_624  0.8203921914100647)
(X_625  0.7403921484947205)
(X_626  0.8282353281974792)
(X_627  0.8596078753471375)
(X_628  0.9733333587646484)
(X_629  0.8737254738807678)
(X_630  1.0164705514907837)
(X_631  0.9537255167961121)
(X_632  0.753725528717041)
(X_633  0.7341176867485046)
(X_634  0.7850980758666992)
(X_635  0.7772549390792847)
(X_636  0.7654902338981628)
(X_637  0.7380392551422119)
(X_638  0.6478431820869446)
(X_639  0.64000004529953)
(X_640  0.3364706039428711)
(X_641  0.32862746715545654)
(X_642  0.3482353091239929)
(X_643  0.5560784339904785)
(X_644  0.43843138217926025)
(X_645  0.5639215707778931)
(X_646  0.7286274433135986)
(X_647  0.7011764645576477)
(X_648  0.6854901909828186)
(X_649  0.8070588111877441)
(X_650  0.8501960635185242)
(X_651  0.9184314012527466)
(X_652  0.910588264465332)
(X_653  0.8988235592842102)
(X_654  0.8831372857093811)
(X_655  0.8227450847625732)
(X_656  0.9286274313926697)
(X_657  0.9011764526367188)
(X_658  0.9443137049674988)
(X_659  0.861960768699646)
(X_660  0.910588264465332)
(X_661  0.867451012134552)
(X_662  0.8949019908905029)
(X_663  0.8870588541030884)
(X_664  0.818823516368866)
(X_665  0.9027451276779175)
(X_666  0.824313759803772)
(X_667  0.8125490546226501)
(X_668  0.7694118022918701)
(X_669  0.5890196561813354)
(X_670  0.3364706039428711)
(X_671  0.45803922414779663)
(X_672  0.634509801864624)
(X_673  0.6658823490142822)
(X_674  0.7129411697387695)
(X_675  0.7599999904632568)
(X_676  0.8070588111877441)
(X_677  0.9223529696464539)
(X_678  0.8541176319122314)
(X_679  0.8541176319122314)
(X_680  0.8149019479751587)
(X_681  0.8266666531562805)
(X_682  0.8635294437408447)
(X_683  0.8384313583374023)
(X_684  0.905098021030426)
(X_685  0.932548999786377)
(X_686  0.9560784101486206)
(X_687  0.8933333158493042)
(X_688  0.8596078753471375)
(X_689  0.8635294437408447)
(X_690  0.8635294437408447)
(X_691  0.7756862640380859)
(X_692  0.8556863069534302)
(X_693  0.8517647385597229)
(X_694  0.8400000333786011)
(X_695  0.824313759803772)
(X_696  0.8635294437408447)
(X_697  0.7654902338981628)
(X_698  0.6164706349372864)
(X_699  0.5066666603088379)
(X_700  0.6501960754394531)
(X_701  0.7011764645576477)
(X_702  0.7599999904632568)
(X_703  0.7992156744003296)
(X_704  0.8266666531562805)
(X_705  0.8462744951248169)
(X_706  0.8462744951248169)
(X_707  0.9184314012527466)
(X_708  0.8501960635185242)
(X_709  0.8698039054870605)
(X_710  0.8423529267311096)
(X_711  0.8972548842430115)
(X_712  0.9443137049674988)
(X_713  0.9364705681800842)
(X_714  0.9168627262115479)
(X_715  0.8266666531562805)
(X_716  0.7223529815673828)
(X_717  0.7262745499610901)
(X_718  0.6423529386520386)
(X_719  0.6305882334709167)
(X_720  0.6266666650772095)
(X_721  0.710588276386261)
(X_722  0.7027451395988464)
(X_723  0.6870588660240173)
(X_724  0.7223529815673828)
(X_725  0.7380392551422119)
(X_726  0.710588276386261)
(X_727  0.6360784769058228)
(X_728  0.7184314131736755)
(X_729  0.7929412126541138)
(X_730  0.8713725805282593)
(X_731  0.8266666531562805)
(X_732  0.8384313583374023)
(X_733  0.8462744951248169)
(X_734  0.8462744951248169)
(X_735  0.8384313583374023)
(X_736  0.8737254738807678)
(X_737  0.8854901790618896)
(X_738  0.8423529267311096)
(X_739  0.8776470422744751)
(X_740  0.905098021030426)
(X_741  0.8698039054870605)
(X_742  0.8305882215499878)
(X_743  0.7247058749198914)
(X_744  0.6423529386520386)
(X_745  0.6462745070457458)
(X_746  0.634509801864624)
(X_747  0.6109803915023804)
(X_748  0.6031372547149658)
(X_749  0.6149019598960876)
(X_750  0.6988235712051392)
(X_751  0.6070588231086731)
(X_752  0.6321569085121155)
(X_753  0.710588276386261)
(X_754  0.677647054195404)
(X_755  0.7223529815673828)
(X_756  0.6752941608428955)
(X_757  0.7733333706855774)
(X_758  0.791372537612915)
(X_759  0.8227450847625732)
(X_760  0.8227450847625732)
(X_761  0.8384313583374023)
(X_762  0.8580392003059387)
(X_763  0.861960768699646)
(X_764  0.8933333158493042)
(X_765  0.8776470422744751)
(X_766  0.791372537612915)
(X_767  0.7952941060066223)
(X_768  0.8109803795814514)
(X_769  0.7874509692192078)
(X_770  0.7599999904632568)
(X_771  0.7458823919296265)
(X_772  0.6541176438331604)
(X_773  0.6658823490142822)
(X_774  0.6462745070457458)
(X_775  0.6109803915023804)
(X_776  0.5992156863212585)
(X_777  0.6188235282897949)
(X_778  0.6305882334709167)
(X_779  0.6227450966835022)
(X_780  0.5835294127464294)
(X_781  0.6266666650772095)
(X_782  0.7301961183547974)
(X_783  0.6266666650772095)
(Y_0 0.5366247892379761))