((X_0  0.4909803867340088)
(X_1  0.5694118142127991)
(X_2  0.5341176390647888)
(X_3  0.46352940797805786)
(X_4  0.47921568155288696)
(X_5  0.4713725447654724)
(X_6  0.43607842922210693)
(X_7  0.45176470279693604)
(X_8  0.4870588183403015)
(X_9  0.434509813785553)
(X_10  0.4619608223438263)
(X_11  0.46980395913124084)
(X_12  0.4619608223438263)
(X_13  0.4619608223438263)
(X_14  0.48549023270606995)
(X_15  0.5129411816596985)
(X_16  0.45411765575408936)
(X_17  0.5129411816596985)
(X_18  0.4188235402107239)
(X_19  0.4109804034233093)
(X_20  0.4109804034233093)
(X_21  0.4439215660095215)
(X_22  0.49882352352142334)
(X_23  0.49490195512771606)
(X_24  0.5301960706710815)
(X_25  0.5811765193939209)
(X_26  0.5090196132659912)
(X_27  0.4501960873603821)
(X_28  0.32862746715545654)
(X_29  0.46980395913124084)
(X_30  0.5772549510002136)
(X_31  0.5262745022773743)
(X_32  0.55372554063797)
(X_33  0.6086274981498718)
(X_34  0.6596078872680664)
(X_35  0.7184314131736755)
(X_36  0.7027451395988464)
(X_37  0.667451024055481)
(X_38  0.5717647075653076)
(X_39  0.5796078443527222)
(X_40  0.5600000023841858)
(X_41  0.5286274552345276)
(X_42  0.5364705920219421)
(X_43  0.5756862759590149)
(X_44  0.5403921604156494)
(X_45  0.6031372547149658)
(X_46  0.5756862759590149)
(X_47  0.7027451395988464)
(X_48  0.7145098447799683)
(X_49  0.6439216136932373)
(X_50  0.64000004529953)
(X_51  0.59686279296875)
(X_52  0.5615686774253845)
(X_53  0.5654902458190918)
(X_54  0.46588239073753357)
(X_55  0.4188235402107239)
(X_56  0.3011764883995056)
(X_57  0.5027450919151306)
(X_58  0.5498039722442627)
(X_59  0.5301960706710815)
(X_60  0.5694118142127991)
(X_61  0.6321569085121155)
(X_62  0.6713725924491882)
(X_63  0.6988235712051392)
(X_64  0.6792157292366028)
(X_65  0.59686279296875)
(X_66  0.5850980877876282)
(X_67  0.5796078443527222)
(X_68  0.5952941179275513)
(X_69  0.5403921604156494)
(X_70  0.5286274552345276)
(X_71  0.5796078443527222)
(X_72  0.710588276386261)
(X_73  0.5992156863212585)
(X_74  0.5443137288093567)
(X_75  0.6109803915023804)
(X_76  0.7380392551422119)
(X_77  0.6909804344177246)
(X_78  0.6478431820869446)
(X_79  0.5694118142127991)
(X_80  0.6125490665435791)
(X_81  0.46588239073753357)
(X_82  0.3952941298484802)
(X_83  0.363921582698822)
(X_84  0.2894117832183838)
(X_85  0.408627450466156)
(X_86  0.47921568155288696)
(X_87  0.5850980877876282)
(X_88  0.6109803915023804)
(X_89  0.710588276386261)
(X_90  0.6556863188743591)
(X_91  0.5286274552345276)
(X_92  0.4188235402107239)
(X_93  0.3325490355491638)
(X_94  0.3717647194862366)
(X_95  0.6360784769058228)
(X_96  0.7458823919296265)
(X_97  0.710588276386261)
(X_98  0.6949020028114319)
(X_99  0.7458823919296265)
(X_100  0.5756862759590149)
(X_101  0.40705883502960205)
(X_102  0.3050980567932129)
(X_103  0.3952941298484802)
(X_104  0.5364705920219421)
(X_105  0.6266666650772095)
(X_106  0.6698039174079895)
(X_107  0.6501960754394531)
(X_108  0.667451024055481)
(X_109  0.4501960873603821)
(X_110  0.32470589876174927)
(X_111  0.3011764883995056)
(X_112  0.27764707803726196)
(X_113  0.27764707803726196)
(X_114  0.48313724994659424)
(X_115  0.6909804344177246)
(X_116  0.7694118022918701)
(X_117  0.5992156863212585)
(X_118  0.45411765575408936)
(X_119  0.3678431510925293)
(X_120  0.21490196883678436)
(X_121  0.13254901766777039)
(X_122  0.1952941119670868)
(X_123  0.5027450919151306)
(X_124  0.6752941608428955)
(X_125  0.6949020028114319)
(X_126  0.6949020028114319)
(X_127  0.7380392551422119)
(X_128  0.4619608223438263)
(X_129  0.24627451598644257)
(X_130  0.1639215648174286)
(X_131  0.23843137919902802)
(X_132  0.35607844591140747)
(X_133  0.5050980448722839)
(X_134  0.6423529386520386)
(X_135  0.7286274433135986)
(X_136  0.7066667079925537)
(X_137  0.4462745189666748)
(X_138  0.28156864643096924)
(X_139  0.2423529475927353)
(X_140  0.30274510383605957)
(X_141  0.2580392360687256)
(X_142  0.45803922414779663)
(X_143  0.7419608235359192)
(X_144  0.7184314131736755)
(X_145  0.4619608223438263)
(X_146  0.31294119358062744)
(X_147  0.23450981080532074)
(X_148  0.2580392360687256)
(X_149  0.18745097517967224)
(X_150  0.21490196883678436)
(X_151  0.4752941131591797)
(X_152  0.6635294556617737)
(X_153  0.7419608235359192)
(X_154  0.677647054195404)
(X_155  0.6933333277702332)
(X_156  0.3678431510925293)
(X_157  0.1796078383922577)
(X_158  0.18745097517967224)
(X_159  0.23843137919902802)
(X_160  0.23450981080532074)
(X_161  0.320784330368042)
(X_162  0.4776470959186554)
(X_163  0.6305882334709167)
(X_164  0.6462745070457458)
(X_165  0.45803922414779663)
(X_166  0.26588237285614014)
(X_167  0.1952941119670868)
(X_168  0.15215685963630676)
(X_169  0.2541176676750183)
(X_170  0.48549023270606995)
(X_171  0.6423529386520386)
(X_172  0.5756862759590149)
(X_173  0.4501960873603821)
(X_174  0.363921582698822)
(X_175  0.2894117832183838)
(X_176  0.2109804004430771)
(X_177  0.25568628311157227)
(X_178  0.2674509882926941)
(X_179  0.3968627452850342)
(X_180  0.5850980877876282)
(X_181  0.7184314131736755)
(X_182  0.7341176867485046)
(X_183  0.6188235282897949)
(X_184  0.32470589876174927)
(X_185  0.12078431993722916)
(X_186  0.18745097517967224)
(X_187  0.2698039412498474)
(X_188  0.2541176676750183)
(X_189  0.32470589876174927)
(X_190  0.4501960873603821)
(X_191  0.6031372547149658)
(X_192  0.6501960754394531)
(X_193  0.4737255275249481)
(X_194  0.2698039412498474)
(X_195  0.1639215648174286)
(X_196  0.20313724875450134)
(X_197  0.30901962518692017)
(X_198  0.4933333694934845)
(X_199  0.5639215707778931)
(X_200  0.46588239073753357)
(X_201  0.39137256145477295)
(X_202  0.3168627619743347)
(X_203  0.1952941119670868)
(X_204  0.17176470160484314)
(X_205  0.25960785150527954)
(X_206  0.294901967048645)
(X_207  0.408627450466156)
(X_208  0.6086274981498718)
(X_209  0.6933333277702332)
(X_210  0.705098032951355)
(X_211  0.6266666650772095)
(X_212  0.4752941131591797)
(X_213  0.10901961475610733)
(X_214  0.1286274492740631)
(X_215  0.2109804004430771)
(X_216  0.21882353723049164)
(X_217  0.2854902148246765)
(X_218  0.35607844591140747)
(X_219  0.45803922414779663)
(X_220  0.6501960754394531)
(X_221  0.48549023270606995)
(X_222  0.27764707803726196)
(X_223  0.15215685963630676)
(X_224  0.14039215445518494)
(X_225  0.39137256145477295)
(X_226  0.5952941179275513)
(X_227  0.5050980448722839)
(X_228  0.34431374073028564)
(X_229  0.29333335161209106)
(X_230  0.33803921937942505)
(X_231  0.32235294580459595)
(X_232  0.2635294198989868)
(X_233  0.32235294580459595)
(X_234  0.3419607877731323)
(X_235  0.49490195512771606)
(X_236  0.667451024055481)
(X_237  0.6423529386520386)
(X_238  0.6815686225891113)
(X_239  0.7458823919296265)
(X_240  0.6164706349372864)
(X_241  0.3341176509857178)
(X_242  0.25960785150527954)
(X_243  0.3458823561668396)
(X_244  0.2698039412498474)
(X_245  0.31294119358062744)
(X_246  0.3952941298484802)
(X_247  0.3717647194862366)
(X_248  0.5247058868408203)
(X_249  0.6188235282897949)
(X_250  0.32470589876174927)
(X_251  0.11686275154352188)
(X_252  0.2792156934738159)
(X_253  0.42274510860443115)
(X_254  0.5678431391716003)
(X_255  0.45803922414779663)
(X_256  0.3168627619743347)
(X_257  0.2698039412498474)
(X_258  0.2266666740179062)
(X_259  0.27529412508010864)
(X_260  0.25960785150527954)
(X_261  0.32235294580459595)
(X_262  0.3458823561668396)
(X_263  0.5066666603088379)
(X_264  0.6870588660240173)
(X_265  0.6658823490142822)
(X_266  0.6933333277702332)
(X_267  0.7498039603233337)
(X_268  0.6596078872680664)
(X_269  0.49490195512771606)
(X_270  0.365490198135376)
(X_271  0.3458823561668396)
(X_272  0.3458823561668396)
(X_273  0.2580392360687256)
(X_274  0.2698039412498474)
(X_275  0.29333335161209106)
(X_276  0.4972549378871918)
(X_277  0.6227450966835022)
(X_278  0.37568628787994385)
(X_279  0.1443137228488922)
(X_280  0.3145098090171814)
(X_281  0.5262745022773743)
(X_282  0.520784318447113)
(X_283  0.4031372666358948)
(X_284  0.3011764883995056)
(X_285  0.2698039412498474)
(X_286  0.32235294580459595)
(X_287  0.2831372618675232)
(X_288  0.2792156934738159)
(X_289  0.3615686297416687)
(X_290  0.40470588207244873)
(X_291  0.5615686774253845)
(X_292  0.7262745499610901)
(X_293  0.6894117593765259)
(X_294  0.6972548961639404)
(X_295  0.7380392551422119)
(X_296  0.7027451395988464)
(X_297  0.6360784769058228)
(X_298  0.43607842922210693)
(X_299  0.2831372618675232)
(X_300  0.27137255668640137)
(X_301  0.2792156934738159)
(X_302  0.2423529475927353)
(X_303  0.34431374073028564)
(X_304  0.44235295057296753)
(X_305  0.6070588231086731)
(X_306  0.4266666769981384)
(X_307  0.16784313321113586)
(X_308  0.3419607877731323)
(X_309  0.5615686774253845)
(X_310  0.4894118010997772)
(X_311  0.3521568775177002)
(X_312  0.26588237285614014)
(X_313  0.3145098090171814)
(X_314  0.30274510383605957)
(X_315  0.2674509882926941)
(X_316  0.2360784411430359)
(X_317  0.365490198135376)
(X_318  0.45176470279693604)
(X_319  0.6125490665435791)
(X_320  0.753725528717041)
(X_321  0.7011764645576477)
(X_322  0.705098032951355)
(X_323  0.6658823490142822)
(X_324  0.6949020028114319)
(X_325  0.6635294556617737)
(X_326  0.5145097970962524)
(X_327  0.3145098090171814)
(X_328  0.22431373596191406)
(X_329  0.25568628311157227)
(X_330  0.2698039412498474)
(X_331  0.36000001430511475)
(X_332  0.3835294246673584)
(X_333  0.5717647075653076)
(X_334  0.46980395913124084)
(X_335  0.18352940678596497)
(X_336  0.3772549033164978)
(X_337  0.6164706349372864)
(X_338  0.4737255275249481)
(X_339  0.3011764883995056)
(X_340  0.2109804004430771)
(X_341  0.2360784411430359)
(X_342  0.24000000953674316)
(X_343  0.20470589399337769)
(X_344  0.16549021005630493)
(X_345  0.3458823561668396)
(X_346  0.47921568155288696)
(X_347  0.6439216136932373)
(X_348  0.7654902338981628)
(X_349  0.7011764645576477)
(X_350  0.7168627381324768)
(X_351  0.6894117593765259)
(X_352  0.6752941608428955)
(X_353  0.6439216136932373)
(X_354  0.6282353401184082)
(X_355  0.4870588183403015)
(X_356  0.27137255668640137)
(X_357  0.24784314632415771)
(X_358  0.32235294580459595)
(X_359  0.21882353723049164)
(X_360  0.36000001430511475)
(X_361  0.5521568655967712)
(X_362  0.5090196132659912)
(X_363  0.19137254357337952)
(X_364  0.3929411768913269)
(X_365  0.5639215707778931)
(X_366  0.44235295057296753)
(X_367  0.2580392360687256)
(X_368  0.27529412508010864)
(X_369  0.22431373596191406)
(X_370  0.25568628311157227)
(X_371  0.2203921675682068)
(X_372  0.2321568727493286)
(X_373  0.4243137240409851)
(X_374  0.5498039722442627)
(X_375  0.6831372976303101)
(X_376  0.7733333706855774)
(X_377  0.6972548961639404)
(X_378  0.7090196013450623)
(X_379  0.6854901909828186)
(X_380  0.6266666650772095)
(X_381  0.6360784769058228)
(X_382  0.6713725924491882)
(X_383  0.5850980877876282)
(X_384  0.31843137741088867)
(X_385  0.24000000953674316)
(X_386  0.29098039865493774)
(X_387  0.24000000953674316)
(X_388  0.3364706039428711)
(X_389  0.5325490236282349)
(X_390  0.5325490236282349)
(X_391  0.18352940678596497)
(X_392  0.3929411768913269)
(X_393  0.5521568655967712)
(X_394  0.3717647194862366)
(X_395  0.27137255668640137)
(X_396  0.25568628311157227)
(X_397  0.2360784411430359)
(X_398  0.28705883026123047)
(X_399  0.251764714717865)
(X_400  0.3458823561668396)
(X_401  0.5066666603088379)
(X_402  0.5890196561813354)
(X_403  0.6909804344177246)
(X_404  0.6933333277702332)
(X_405  0.7011764645576477)
(X_406  0.7090196013450623)
(X_407  0.6698039174079895)
(X_408  0.7184314131736755)
(X_409  0.6517647504806519)
(X_410  0.6478431820869446)
(X_411  0.5890196561813354)
(X_412  0.3929411768913269)
(X_413  0.24784314632415771)
(X_414  0.24784314632415771)
(X_415  0.27137255668640137)
(X_416  0.3419607877731323)
(X_417  0.4737255275249481)
(X_418  0.520784318447113)
(X_419  0.13647058606147766)
(X_420  0.40470588207244873)
(X_421  0.5443137288093567)
(X_422  0.30901962518692017)
(X_423  0.19686275720596313)
(X_424  0.20862746238708496)
(X_425  0.2007843255996704)
(X_426  0.25568628311157227)
(X_427  0.20862746238708496)
(X_428  0.35372549295425415)
(X_429  0.4909803867340088)
(X_430  0.5458824038505554)
(X_431  0.6439216136932373)
(X_432  0.753725528717041)
(X_433  0.7129411697387695)
(X_434  0.7286274433135986)
(X_435  0.6854901909828186)
(X_436  0.6031372547149658)
(X_437  0.6752941608428955)
(X_438  0.6478431820869446)
(X_439  0.6243137717247009)
(X_440  0.5066666603088379)
(X_441  0.19137254357337952)
(X_442  0.16156862676143646)
(X_443  0.24392157793045044)
(X_444  0.25960785150527954)
(X_445  0.40705883502960205)
(X_446  0.48549023270606995)
(X_447  0.08549020439386368)
(X_448  0.38901960849761963)
(X_449  0.5090196132659912)
(X_450  0.29333335161209106)
(X_451  0.294901967048645)
(X_452  0.2674509882926941)
(X_453  0.2007843255996704)
(X_454  0.18901962041854858)
(X_455  0.2831372618675232)
(X_456  0.30274510383605957)
(X_457  0.46352940797805786)
(X_458  0.6086274981498718)
(X_459  0.6713725924491882)
(X_460  0.7341176867485046)
(X_461  0.7325490117073059)
(X_462  0.7443137168884277)
(X_463  0.7772549390792847)
(X_464  0.6792157292366028)
(X_465  0.6125490665435791)
(X_466  0.6792157292366028)
(X_467  0.6596078872680664)
(X_468  0.5419608354568481)
(X_469  0.2988235354423523)
(X_470  0.24784314632415771)
(X_471  0.24392157793045044)
(X_472  0.25960785150527954)
(X_473  0.3678431510925293)
(X_474  0.4305882453918457)
(X_475  0.038431376218795776)
(X_476  0.3301960825920105)
(X_477  0.43843138217926025)
(X_478  0.2792156934738159)
(X_479  0.1850980520248413)
(X_480  0.20470589399337769)
(X_481  0.22431373596191406)
(X_482  0.2360784411430359)
(X_483  0.29098039865493774)
(X_484  0.30274510383605957)
(X_485  0.38901960849761963)
(X_486  0.5184313654899597)
(X_487  0.6478431820869446)
(X_488  0.7419608235359192)
(X_489  0.7011764645576477)
(X_490  0.6933333277702332)
(X_491  0.6737254858016968)
(X_492  0.5717647075653076)
(X_493  0.5850980877876282)
(X_494  0.6478431820869446)
(X_495  0.6203922033309937)
(X_496  0.49882352352142334)
(X_497  0.24784314632415771)
(X_498  0.1850980520248413)
(X_499  0.1576470583677292)
(X_500  0.25960785150527954)
(X_501  0.43215686082839966)
(X_502  0.4149019718170166)
(X_503  0.014901962131261826)
(X_504  0.2580392360687256)
(X_505  0.44235295057296753)
(X_506  0.29098039865493774)
(X_507  0.20862746238708496)
(X_508  0.24000000953674316)
(X_509  0.294901967048645)
(X_510  0.294901967048645)
(X_511  0.2988235354423523)
(X_512  0.27529412508010864)
(X_513  0.294901967048645)
(X_514  0.4243137240409851)
(X_515  0.6360784769058228)
(X_516  0.7772549390792847)
(X_517  0.7207843065261841)
(X_518  0.7129411697387695)
(X_519  0.7325490117073059)
(X_520  0.6752941608428955)
(X_521  0.6203922033309937)
(X_522  0.6752941608428955)
(X_523  0.6321569085121155)
(X_524  0.5105882287025452)
(X_525  0.2792156934738159)
(X_526  0.22431373596191406)
(X_527  0.19686275720596313)
(X_528  0.2164705991744995)
(X_529  0.3772549033164978)
(X_530  0.3717647194862366)
(X_531  -0.008627448230981827)
(X_532  0.2227451056241989)
(X_533  0.3874509930610657)
(X_534  0.1952941119670868)
(X_535  0.22823530435562134)
(X_536  0.2203921675682068)
(X_537  0.21254903078079224)
(X_538  0.19686275720596313)
(X_539  0.2007843255996704)
(X_540  0.24000000953674316)
(X_541  0.25568628311157227)
(X_542  0.3772549033164978)
(X_543  0.5850980877876282)
(X_544  0.7341176867485046)
(X_545  0.6854901909828186)
(X_546  0.6894117593765259)
(X_547  0.705098032951355)
(X_548  0.6282353401184082)
(X_549  0.5772549510002136)
(X_550  0.6203922033309937)
(X_551  0.5458824038505554)
(X_552  0.4243137240409851)
(X_553  0.2321568727493286)
(X_554  0.22823530435562134)
(X_555  0.22823530435562134)
(X_556  0.20470589399337769)
(X_557  0.3419607877731323)
(X_558  0.3521568775177002)
(X_559  -0.008627448230981827)
(X_560  0.21490196883678436)
(X_561  0.320784330368042)
(X_562  0.2164705991744995)
(X_563  0.20470589399337769)
(X_564  0.1537254899740219)
(X_565  0.1066666692495346)
(X_566  0.1537254899740219)
(X_567  0.2360784411430359)
(X_568  0.3811764717102051)
(X_569  0.42039215564727783)
(X_570  0.5105882287025452)
(X_571  0.6282353401184082)
(X_572  0.7262745499610901)
(X_573  0.6854901909828186)
(X_574  0.6815686225891113)
(X_575  0.6698039174079895)
(X_576  0.5772549510002136)
(X_577  0.522352933883667)
(X_578  0.5380392074584961)
(X_579  0.4243137240409851)
(X_580  0.294901967048645)
(X_581  0.1380392163991928)
(X_582  0.17333334684371948)
(X_583  0.19294118881225586)
(X_584  0.2321568727493286)
(X_585  0.33803921937942505)
(X_586  0.35607844591140747)
(X_587  0.007058825343847275)
(X_588  0.25019609928131104)
(X_589  0.2894117832183838)
(X_590  0.1694117784500122)
(X_591  0.1129411831498146)
(X_592  0.0815686285495758)
(X_593  0.08941177278757095)
(X_594  0.2266666740179062)
(X_595  0.37568628787994385)
(X_596  0.45803922414779663)
(X_597  0.59686279296875)
(X_598  0.6517647504806519)
(X_599  0.6949020028114319)
(X_600  0.7498039603233337)
(X_601  0.7247058749198914)
(X_602  0.7286274433135986)
(X_603  0.6972548961639404)
(X_604  0.5733333826065063)
(X_605  0.5184313654899597)
(X_606  0.5184313654899597)
(X_607  0.38901960849761963)
(X_608  0.2674509882926941)
(X_609  0.12627451121807098)
(X_610  0.14588235318660736)
(X_611  0.13411764800548553)
(X_612  0.13254901766777039)
(X_613  0.21490196883678436)
(X_614  0.32862746715545654)
(X_615  0.0031372569501399994)
(X_616  0.20313724875450134)
(X_617  0.23058824241161346)
(X_618  0.05803921818733215)
(X_619  0.13254901766777039)
(X_620  0.18352940678596497)
(X_621  0.26588237285614014)
(X_622  0.4109804034233093)
(X_623  0.5011764764785767)
(X_624  0.5850980877876282)
(X_625  0.5325490236282349)
(X_626  0.6439216136932373)
(X_627  0.6792157292366028)
(X_628  0.7380392551422119)
(X_629  0.7168627381324768)
(X_630  0.8125490546226501)
(X_631  0.7929412126541138)
(X_632  0.6007843613624573)
(X_633  0.5498039722442627)
(X_634  0.5694118142127991)
(X_635  0.48313724994659424)
(X_636  0.408627450466156)
(X_637  0.27137255668640137)
(X_638  0.2321568727493286)
(X_639  0.1537254899740219)
(X_640  0.10117647796869278)
(X_641  0.17176470160484314)
(X_642  0.3011764883995056)
(X_643  -0.000784311443567276)
(X_644  0.17568626999855042)
(X_645  0.23843137919902802)
(X_646  0.1129411831498146)
(X_647  0.2423529475927353)
(X_648  0.35607844591140747)
(X_649  0.48156866431236267)
(X_650  0.5639215707778931)
(X_651  0.6282353401184082)
(X_652  0.6831372976303101)
(X_653  0.667451024055481)
(X_654  0.6752941608428955)
(X_655  0.6423529386520386)
(X_656  0.705098032951355)
(X_657  0.7521568536758423)
(X_658  0.7678431272506714)
(X_659  0.7678431272506714)
(X_660  0.710588276386261)
(X_661  0.667451024055481)
(X_662  0.7145098447799683)
(X_663  0.6031372547149658)
(X_664  0.5835294127464294)
(X_665  0.5380392074584961)
(X_666  0.44784313440322876)
(X_667  0.3145098090171814)
(X_668  0.20862746238708496)
(X_669  0.2635294198989868)
(X_670  0.31294119358062744)
(X_671  0.01098039373755455)
(X_672  0.17568626999855042)
(X_673  0.2580392360687256)
(X_674  0.29725492000579834)
(X_675  0.42274510860443115)
(X_676  0.5443137288093567)
(X_677  0.6478431820869446)
(X_678  0.6188235282897949)
(X_679  0.634509801864624)
(X_680  0.6227450966835022)
(X_681  0.6070588231086731)
(X_682  0.6596078872680664)
(X_683  0.6266666650772095)
(X_684  0.7443137168884277)
(X_685  0.7952941060066223)
(X_686  0.7717646956443787)
(X_687  0.7639215588569641)
(X_688  0.7066667079925537)
(X_689  0.7066667079925537)
(X_690  0.7341176867485046)
(X_691  0.6580392122268677)
(X_692  0.7301961183547974)
(X_693  0.7341176867485046)
(X_694  0.6713725924491882)
(X_695  0.5498039722442627)
(X_696  0.38509804010391235)
(X_697  0.3615686297416687)
(X_698  0.30666667222976685)
(X_699  0.07137255370616913)
(X_700  0.16784313321113586)
(X_701  0.32470589876174927)
(X_702  0.49490195512771606)
(X_703  0.5286274552345276)
(X_704  0.6109803915023804)
(X_705  0.6227450966835022)
(X_706  0.6737254858016968)
(X_707  0.6854901909828186)
(X_708  0.6541176438331604)
(X_709  0.6423529386520386)
(X_710  0.6188235282897949)
(X_711  0.6541176438331604)
(X_712  0.7560784220695496)
(X_713  0.7952941060066223)
(X_714  0.7756862640380859)
(X_715  0.7678431272506714)
(X_716  0.6698039174079895)
(X_717  0.7380392551422119)
(X_718  0.6423529386520386)
(X_719  0.5874509811401367)
(X_720  0.5403921604156494)
(X_721  0.6439216136932373)
(X_722  0.6635294556617737)
(X_723  0.6203922033309937)
(X_724  0.5066666603088379)
(X_725  0.44784313440322876)
(X_726  0.3458823561668396)
(X_727  0.07921569049358368)
(X_728  0.19686275720596313)
(X_729  0.4439215660095215)
(X_730  0.6007843613624573)
(X_731  0.6188235282897949)
(X_732  0.6541176438331604)
(X_733  0.6541176438331604)
(X_734  0.7011764645576477)
(X_735  0.705098032951355)
(X_736  0.7168627381324768)
(X_737  0.7168627381324768)
(X_738  0.6933333277702332)
(X_739  0.7168627381324768)
(X_740  0.7952941060066223)
(X_741  0.8227450847625732)
(X_742  0.8031372427940369)
(X_743  0.8070588111877441)
(X_744  0.7443137168884277)
(X_745  0.7325490117073059)
(X_746  0.6972548961639404)
(X_747  0.5992156863212585)
(X_748  0.5011764764785767)
(X_749  0.5286274552345276)
(X_750  0.6988235712051392)
(X_751  0.6501960754394531)
(X_752  0.6321569085121155)
(X_753  0.522352933883667)
(X_754  0.2854902148246765)
(X_755  0.07137255370616913)
(X_756  0.1537254899740219)
(X_757  0.4556862711906433)
(X_758  0.5717647075653076)
(X_759  0.6501960754394531)
(X_760  0.6658823490142822)
(X_761  0.661960780620575)
(X_762  0.7090196013450623)
(X_763  0.6972548961639404)
(X_764  0.7521568536758423)
(X_765  0.7599999904632568)
(X_766  0.7403921484947205)
(X_767  0.7560784220695496)
(X_768  0.818823516368866)
(X_769  0.8384313583374023)
(X_770  0.8227450847625732)
(X_771  0.9145098328590393)
(X_772  0.7796078324317932)
(X_773  0.7835294008255005)
(X_774  0.7717646956443787)
(X_775  0.677647054195404)
(X_776  0.5600000023841858)
(X_777  0.5678431391716003)
(X_778  0.6580392122268677)
(X_779  0.7011764645576477)
(X_780  0.5992156863212585)
(X_781  0.4501960873603821)
(X_782  0.3419607877731323)
(X_783  -0.028235293924808502)
(Y_0 1.0697994232177734))