((X_0  0.2541176676750183)
(X_1  0.29725492000579834)
(X_2  0.3952941298484802)
(X_3  0.4972549378871918)
(X_4  0.5168627500534058)
(X_5  0.4894118010997772)
(X_6  0.5011764764785767)
(X_7  0.5560784339904785)
(X_8  0.5756862759590149)
(X_9  0.6870588660240173)
(X_10  0.6988235712051392)
(X_11  0.667451024055481)
(X_12  0.6360784769058228)
(X_13  0.64000004529953)
(X_14  0.667451024055481)
(X_15  0.6870588660240173)
(X_16  0.667451024055481)
(X_17  0.6321569085121155)
(X_18  0.6086274981498718)
(X_19  0.6243137717247009)
(X_20  0.6517647504806519)
(X_21  0.5443137288093567)
(X_22  0.45411765575408936)
(X_23  0.37568628787994385)
(X_24  0.32862746715545654)
(X_25  0.35607844591140747)
(X_26  0.44784313440322876)
(X_27  0.43607842922210693)
(X_28  0.48313724994659424)
(X_29  0.4556862711906433)
(X_30  0.40705883502960205)
(X_31  0.5011764764785767)
(X_32  0.5600000023841858)
(X_33  0.548235297203064)
(X_34  0.5364705920219421)
(X_35  0.5443137288093567)
(X_36  0.5874509811401367)
(X_37  0.6188235282897949)
(X_38  0.710588276386261)
(X_39  0.6870588660240173)
(X_40  0.6596078872680664)
(X_41  0.6635294556617737)
(X_42  0.6909804344177246)
(X_43  0.7066667079925537)
(X_44  0.6909804344177246)
(X_45  0.6635294556617737)
(X_46  0.6439216136932373)
(X_47  0.5796078443527222)
(X_48  0.5992156863212585)
(X_49  0.5756862759590149)
(X_50  0.5050980448722839)
(X_51  0.43843138217926025)
(X_52  0.44235295057296753)
(X_53  0.45803922414779663)
(X_54  0.5301960706710815)
(X_55  0.5027450919151306)
(X_56  0.6007843613624573)
(X_57  0.4737255275249481)
(X_58  0.4776470959186554)
(X_59  0.5403921604156494)
(X_60  0.5717647075653076)
(X_61  0.5403921604156494)
(X_62  0.5050980448722839)
(X_63  0.5050980448722839)
(X_64  0.5992156863212585)
(X_65  0.6305882334709167)
(X_66  0.7301961183547974)
(X_67  0.7066667079925537)
(X_68  0.6870588660240173)
(X_69  0.6949020028114319)
(X_70  0.7184314131736755)
(X_71  0.7341176867485046)
(X_72  0.6384313702583313)
(X_73  0.6988235712051392)
(X_74  0.6909804344177246)
(X_75  0.6988235712051392)
(X_76  0.6305882334709167)
(X_77  0.6149019598960876)
(X_78  0.5717647075653076)
(X_79  0.5286274552345276)
(X_80  0.5364705920219421)
(X_81  0.6164706349372864)
(X_82  0.5890196561813354)
(X_83  0.5458824038505554)
(X_84  0.6164706349372864)
(X_85  0.5364705920219421)
(X_86  0.5678431391716003)
(X_87  0.5874509811401367)
(X_88  0.6164706349372864)
(X_89  0.4501960873603821)
(X_90  0.4266666769981384)
(X_91  0.5458824038505554)
(X_92  0.6870588660240173)
(X_93  0.7223529815673828)
(X_94  0.7419608235359192)
(X_95  0.6462745070457458)
(X_96  0.634509801864624)
(X_97  0.6423529386520386)
(X_98  0.661960780620575)
(X_99  0.6698039174079895)
(X_100  0.7262745499610901)
(X_101  0.7184314131736755)
(X_102  0.7145098447799683)
(X_103  0.7223529815673828)
(X_104  0.7262745499610901)
(X_105  0.7184314131736755)
(X_106  0.6988235712051392)
(X_107  0.6792157292366028)
(X_108  0.5756862759590149)
(X_109  0.6478431820869446)
(X_110  0.6125490665435791)
(X_111  0.5654902458190918)
(X_112  0.64000004529953)
(X_113  0.64000004529953)
(X_114  0.5756862759590149)
(X_115  0.5639215707778931)
(X_116  0.48549023270606995)
(X_117  0.4870588183403015)
(X_118  0.49882352352142334)
(X_119  0.5654902458190918)
(X_120  0.6909804344177246)
(X_121  0.7262745499610901)
(X_122  0.7458823919296265)
(X_123  0.661960780620575)
(X_124  0.6541176438331604)
(X_125  0.661960780620575)
(X_126  0.6737254858016968)
(X_127  0.677647054195404)
(X_128  0.7223529815673828)
(X_129  0.7223529815673828)
(X_130  0.7223529815673828)
(X_131  0.7223529815673828)
(X_132  0.7262745499610901)
(X_133  0.7223529815673828)
(X_134  0.7184314131736755)
(X_135  0.7145098447799683)
(X_136  0.6227450966835022)
(X_137  0.6870588660240173)
(X_138  0.6439216136932373)
(X_139  0.59686279296875)
(X_140  0.634509801864624)
(X_141  0.64000004529953)
(X_142  0.5811765193939209)
(X_143  0.48156866431236267)
(X_144  0.4619608223438263)
(X_145  0.5262745022773743)
(X_146  0.5694118142127991)
(X_147  0.64000004529953)
(X_148  0.6988235712051392)
(X_149  0.7301961183547974)
(X_150  0.753725528717041)
(X_151  0.6698039174079895)
(X_152  0.6658823490142822)
(X_153  0.6737254858016968)
(X_154  0.7615686655044556)
(X_155  0.7576470971107483)
(X_156  0.7223529815673828)
(X_157  0.7223529815673828)
(X_158  0.7223529815673828)
(X_159  0.7223529815673828)
(X_160  0.7262745499610901)
(X_161  0.7262745499610901)
(X_162  0.7301961183547974)
(X_163  0.7262745499610901)
(X_164  0.7380392551422119)
(X_165  0.7145098447799683)
(X_166  0.6635294556617737)
(X_167  0.6125490665435791)
(X_168  0.7458823919296265)
(X_169  0.6321569085121155)
(X_170  0.5341176390647888)
(X_171  0.5145097970962524)
(X_172  0.522352933883667)
(X_173  0.5498039722442627)
(X_174  0.6164706349372864)
(X_175  0.6909804344177246)
(X_176  0.7066667079925537)
(X_177  0.6580392122268677)
(X_178  0.6815686225891113)
(X_179  0.6815686225891113)
(X_180  0.677647054195404)
(X_181  0.6854901909828186)
(X_182  0.6854901909828186)
(X_183  0.7576470971107483)
(X_184  0.7341176867485046)
(X_185  0.7301961183547974)
(X_186  0.7262745499610901)
(X_187  0.7301961183547974)
(X_188  0.7380392551422119)
(X_189  0.7419608235359192)
(X_190  0.7380392551422119)
(X_191  0.7341176867485046)
(X_192  0.7576470971107483)
(X_193  0.7262745499610901)
(X_194  0.6713725924491882)
(X_195  0.6164706349372864)
(X_196  0.7145098447799683)
(X_197  0.6243137717247009)
(X_198  0.5419608354568481)
(X_199  0.5145097970962524)
(X_200  0.5066666603088379)
(X_201  0.5262745022773743)
(X_202  0.6047059297561646)
(X_203  0.6988235712051392)
(X_204  0.7145098447799683)
(X_205  0.6658823490142822)
(X_206  0.6894117593765259)
(X_207  0.6894117593765259)
(X_208  0.6894117593765259)
(X_209  0.7733333706855774)
(X_210  0.7694118022918701)
(X_211  0.7615686655044556)
(X_212  0.6698039174079895)
(X_213  0.7419608235359192)
(X_214  0.7380392551422119)
(X_215  0.7419608235359192)
(X_216  0.7498039603233337)
(X_217  0.753725528717041)
(X_218  0.7498039603233337)
(X_219  0.7380392551422119)
(X_220  0.7694118022918701)
(X_221  0.7419608235359192)
(X_222  0.6831372976303101)
(X_223  0.6243137717247009)
(X_224  0.64000004529953)
(X_225  0.6125490665435791)
(X_226  0.5772549510002136)
(X_227  0.5576471090316772)
(X_228  0.5694118142127991)
(X_229  0.6125490665435791)
(X_230  0.5835294127464294)
(X_231  0.6149019598960876)
(X_232  0.6188235282897949)
(X_233  0.6423529386520386)
(X_234  0.6737254858016968)
(X_235  0.6972548961639404)
(X_236  0.705098032951355)
(X_237  0.7811765074729919)
(X_238  0.7733333706855774)
(X_239  0.6933333277702332)
(X_240  0.677647054195404)
(X_241  0.6737254858016968)
(X_242  0.6737254858016968)
(X_243  0.6737254858016968)
(X_244  0.7576470971107483)
(X_245  0.7615686655044556)
(X_246  0.7615686655044556)
(X_247  0.7654902338981628)
(X_248  0.7380392551422119)
(X_249  0.7458823919296265)
(X_250  0.7223529815673828)
(X_251  0.6713725924491882)
(X_252  0.6007843613624573)
(X_253  0.5694118142127991)
(X_254  0.5262745022773743)
(X_255  0.5027450919151306)
(X_256  0.5145097970962524)
(X_257  0.5615686774253845)
(X_258  0.6125490665435791)
(X_259  0.5678431391716003)
(X_260  0.6031372547149658)
(X_261  0.6266666650772095)
(X_262  0.6580392122268677)
(X_263  0.6815686225891113)
(X_264  0.6894117593765259)
(X_265  0.7654902338981628)
(X_266  0.7615686655044556)
(X_267  0.6815686225891113)
(X_268  0.6815686225891113)
(X_269  0.6815686225891113)
(X_270  0.677647054195404)
(X_271  0.6737254858016968)
(X_272  0.6737254858016968)
(X_273  0.7498039603233337)
(X_274  0.7458823919296265)
(X_275  0.7380392551422119)
(X_276  0.7223529815673828)
(X_277  0.7380392551422119)
(X_278  0.7341176867485046)
(X_279  0.7066667079925537)
(X_280  0.4776470959186554)
(X_281  0.4462745189666748)
(X_282  0.4909803867340088)
(X_283  0.47921568155288696)
(X_284  0.5105882287025452)
(X_285  0.5654902458190918)
(X_286  0.548235297203064)
(X_287  0.5835294127464294)
(X_288  0.6109803915023804)
(X_289  0.634509801864624)
(X_290  0.6698039174079895)
(X_291  0.6933333277702332)
(X_292  0.705098032951355)
(X_293  0.7811765074729919)
(X_294  0.7772549390792847)
(X_295  0.6972548961639404)
(X_296  0.6894117593765259)
(X_297  0.6854901909828186)
(X_298  0.6815686225891113)
(X_299  0.677647054195404)
(X_300  0.677647054195404)
(X_301  0.6658823490142822)
(X_302  0.7262745499610901)
(X_303  0.710588276386261)
(X_304  0.6988235712051392)
(X_305  0.7184314131736755)
(X_306  0.7301961183547974)
(X_307  0.7262745499610901)
(X_308  0.4776470959186554)
(X_309  0.4501960873603821)
(X_310  0.5066666603088379)
(X_311  0.5066666603088379)
(X_312  0.5419608354568481)
(X_313  0.5168627500534058)
(X_314  0.5678431391716003)
(X_315  0.5952941179275513)
(X_316  0.6266666650772095)
(X_317  0.6501960754394531)
(X_318  0.6854901909828186)
(X_319  0.7090196013450623)
(X_320  0.7207843065261841)
(X_321  0.8007843494415283)
(X_322  0.7168627381324768)
(X_323  0.7129411697387695)
(X_324  0.6933333277702332)
(X_325  0.6894117593765259)
(X_326  0.6854901909828186)
(X_327  0.6854901909828186)
(X_328  0.6854901909828186)
(X_329  0.6698039174079895)
(X_330  0.7223529815673828)
(X_331  0.6988235712051392)
(X_332  0.6792157292366028)
(X_333  0.6870588660240173)
(X_334  0.6988235712051392)
(X_335  0.6988235712051392)
(X_336  0.4894118010997772)
(X_337  0.46980395913124084)
(X_338  0.5341176390647888)
(X_339  0.5419608354568481)
(X_340  0.5733333826065063)
(X_341  0.5286274552345276)
(X_342  0.5521568655967712)
(X_343  0.5600000023841858)
(X_344  0.6305882334709167)
(X_345  0.6541176438331604)
(X_346  0.6854901909828186)
(X_347  0.7129411697387695)
(X_348  0.7207843065261841)
(X_349  0.8007843494415283)
(X_350  0.796862781047821)
(X_351  0.7929412126541138)
(X_352  0.6933333277702332)
(X_353  0.6854901909828186)
(X_354  0.6854901909828186)
(X_355  0.6933333277702332)
(X_356  0.6972548961639404)
(X_357  0.6815686225891113)
(X_358  0.6501960754394531)
(X_359  0.7027451395988464)
(X_360  0.6635294556617737)
(X_361  0.6556863188743591)
(X_362  0.6478431820869446)
(X_363  0.6517647504806519)
(X_364  0.46588239073753357)
(X_365  0.5341176390647888)
(X_366  0.5341176390647888)
(X_367  0.5615686774253845)
(X_368  0.5286274552345276)
(X_369  0.5717647075653076)
(X_370  0.591372549533844)
(X_371  0.591372549533844)
(X_372  0.6501960754394531)
(X_373  0.6737254858016968)
(X_374  0.705098032951355)
(X_375  0.7286274433135986)
(X_376  0.7364705801010132)
(X_377  0.8125490546226501)
(X_378  0.8086274862289429)
(X_379  0.8047059178352356)
(X_380  0.7772549390792847)
(X_381  0.6854901909828186)
(X_382  0.6815686225891113)
(X_383  0.6894117593765259)
(X_384  0.7011764645576477)
(X_385  0.6894117593765259)
(X_386  0.6580392122268677)
(X_387  0.6266666650772095)
(X_388  0.6635294556617737)
(X_389  0.64000004529953)
(X_390  0.6243137717247009)
(X_391  0.6282353401184082)
(X_392  0.45411765575408936)
(X_393  0.522352933883667)
(X_394  0.5262745022773743)
(X_395  0.48156866431236267)
(X_396  0.5443137288093567)
(X_397  0.5952941179275513)
(X_398  0.6188235282897949)
(X_399  0.6188235282897949)
(X_400  0.6698039174079895)
(X_401  0.6933333277702332)
(X_402  0.7247058749198914)
(X_403  0.7443137168884277)
(X_404  0.8282353281974792)
(X_405  0.8203921914100647)
(X_406  0.8125490546226501)
(X_407  0.8125490546226501)
(X_408  0.705098032951355)
(X_409  0.6894117593765259)
(X_410  0.6737254858016968)
(X_411  0.6815686225891113)
(X_412  0.6933333277702332)
(X_413  0.6854901909828186)
(X_414  0.6501960754394531)
(X_415  0.6227450966835022)
(X_416  0.6031372547149658)
(X_417  0.6517647504806519)
(X_418  0.6360784769058228)
(X_419  0.6439216136932373)
(X_420  0.4894118010997772)
(X_421  0.5458824038505554)
(X_422  0.5301960706710815)
(X_423  0.46980395913124084)
(X_424  0.5129411816596985)
(X_425  0.5560784339904785)
(X_426  0.5717647075653076)
(X_427  0.5678431391716003)
(X_428  0.661960780620575)
(X_429  0.6815686225891113)
(X_430  0.7129411697387695)
(X_431  0.7286274433135986)
(X_432  0.7325490117073059)
(X_433  0.8047059178352356)
(X_434  0.796862781047821)
(X_435  0.7929412126541138)
(X_436  0.7890196442604065)
(X_437  0.6894117593765259)
(X_438  0.6698039174079895)
(X_439  0.6737254858016968)
(X_440  0.6854901909828186)
(X_441  0.753725528717041)
(X_442  0.6423529386520386)
(X_443  0.6109803915023804)
(X_444  0.6266666650772095)
(X_445  0.6713725924491882)
(X_446  0.6556863188743591)
(X_447  0.6635294556617737)
(X_448  0.5286274552345276)
(X_449  0.5694118142127991)
(X_450  0.55372554063797)
(X_451  0.5090196132659912)
(X_452  0.548235297203064)
(X_453  0.5756862759590149)
(X_454  0.5992156863212585)
(X_455  0.6227450966835022)
(X_456  0.6737254858016968)
(X_457  0.6972548961639404)
(X_458  0.7247058749198914)
(X_459  0.7403921484947205)
(X_460  0.8164706230163574)
(X_461  0.8086274862289429)
(X_462  0.8125490546226501)
(X_463  0.7364705801010132)
(X_464  0.705098032951355)
(X_465  0.6894117593765259)
(X_466  0.6815686225891113)
(X_467  0.6815686225891113)
(X_468  0.6894117593765259)
(X_469  0.6933333277702332)
(X_470  0.6815686225891113)
(X_471  0.6698039174079895)
(X_472  0.6501960754394531)
(X_473  0.6949020028114319)
(X_474  0.6360784769058228)
(X_475  0.5811765193939209)
(X_476  0.520784318447113)
(X_477  0.5850980877876282)
(X_478  0.5129411816596985)
(X_479  0.5325490236282349)
(X_480  0.5403921604156494)
(X_481  0.5325490236282349)
(X_482  0.5403921604156494)
(X_483  0.5600000023841858)
(X_484  0.6541176438331604)
(X_485  0.6815686225891113)
(X_486  0.7168627381324768)
(X_487  0.7364705801010132)
(X_488  0.7325490117073059)
(X_489  0.8086274862289429)
(X_490  0.8086274862289429)
(X_491  0.8164706230163574)
(X_492  0.7733333706855774)
(X_493  0.677647054195404)
(X_494  0.6658823490142822)
(X_495  0.6658823490142822)
(X_496  0.6737254858016968)
(X_497  0.677647054195404)
(X_498  0.6658823490142822)
(X_499  0.6541176438331604)
(X_500  0.6580392122268677)
(X_501  0.6305882334709167)
(X_502  0.6635294556617737)
(X_503  0.6243137717247009)
(X_504  0.5811765193939209)
(X_505  0.5890196561813354)
(X_506  0.5286274552345276)
(X_507  0.5403921604156494)
(X_508  0.5325490236282349)
(X_509  0.5247058868408203)
(X_510  0.5403921604156494)
(X_511  0.5678431391716003)
(X_512  0.6384313702583313)
(X_513  0.6698039174079895)
(X_514  0.7090196013450623)
(X_515  0.7364705801010132)
(X_516  0.7403921484947205)
(X_517  0.8164706230163574)
(X_518  0.8164706230163574)
(X_519  0.8203921914100647)
(X_520  0.705098032951355)
(X_521  0.6894117593765259)
(X_522  0.6737254858016968)
(X_523  0.6698039174079895)
(X_524  0.677647054195404)
(X_525  0.677647054195404)
(X_526  0.6698039174079895)
(X_527  0.6580392122268677)
(X_528  0.6266666650772095)
(X_529  0.6031372547149658)
(X_530  0.6360784769058228)
(X_531  0.5929412245750427)
(X_532  0.5850980877876282)
(X_533  0.5929412245750427)
(X_534  0.59686279296875)
(X_535  0.520784318447113)
(X_536  0.5129411816596985)
(X_537  0.5168627500534058)
(X_538  0.5364705920219421)
(X_539  0.5600000023841858)
(X_540  0.6266666650772095)
(X_541  0.661960780620575)
(X_542  0.7090196013450623)
(X_543  0.7403921484947205)
(X_544  0.748235285282135)
(X_545  0.8282353281974792)
(X_546  0.8282353281974792)
(X_547  0.8282353281974792)
(X_548  0.7090196013450623)
(X_549  0.6933333277702332)
(X_550  0.6737254858016968)
(X_551  0.6698039174079895)
(X_552  0.6737254858016968)
(X_553  0.6737254858016968)
(X_554  0.661960780620575)
(X_555  0.6501960754394531)
(X_556  0.6501960754394531)
(X_557  0.634509801864624)
(X_558  0.6752941608428955)
(X_559  0.6321569085121155)
(X_560  0.6086274981498718)
(X_561  0.6164706349372864)
(X_562  0.5364705920219421)
(X_563  0.5364705920219421)
(X_564  0.5286274552345276)
(X_565  0.5247058868408203)
(X_566  0.5090196132659912)
(X_567  0.4972549378871918)
(X_568  0.6149019598960876)
(X_569  0.6541176438331604)
(X_570  0.7011764645576477)
(X_571  0.7325490117073059)
(X_572  0.7443137168884277)
(X_573  0.8203921914100647)
(X_574  0.8203921914100647)
(X_575  0.824313759803772)
(X_576  0.6933333277702332)
(X_577  0.6737254858016968)
(X_578  0.6501960754394531)
(X_579  0.6423529386520386)
(X_580  0.6423529386520386)
(X_581  0.6423529386520386)
(X_582  0.6305882334709167)
(X_583  0.6188235282897949)
(X_584  0.6266666650772095)
(X_585  0.6188235282897949)
(X_586  0.6713725924491882)
(X_587  0.6439216136932373)
(X_588  0.6086274981498718)
(X_589  0.64000004529953)
(X_590  0.5952941179275513)
(X_591  0.6909804344177246)
(X_592  0.6949020028114319)
(X_593  0.6831372976303101)
(X_594  0.6478431820869446)
(X_595  0.6086274981498718)
(X_596  0.6949020028114319)
(X_597  0.6501960754394531)
(X_598  0.6933333277702332)
(X_599  0.7207843065261841)
(X_600  0.7286274433135986)
(X_601  0.8086274862289429)
(X_602  0.8086274862289429)
(X_603  0.8125490546226501)
(X_604  0.6972548961639404)
(X_605  0.6737254858016968)
(X_606  0.6462745070457458)
(X_607  0.634509801864624)
(X_608  0.6305882334709167)
(X_609  0.6305882334709167)
(X_610  0.6188235282897949)
(X_611  0.6070588231086731)
(X_612  0.6478431820869446)
(X_613  0.64000004529953)
(X_614  0.6086274981498718)
(X_615  0.5654902458190918)
(X_616  0.6282353401184082)
(X_617  0.6792157292366028)
(X_618  0.7262745499610901)
(X_619  0.7419608235359192)
(X_620  0.7419608235359192)
(X_621  0.7458823919296265)
(X_622  0.7380392551422119)
(X_623  0.7184314131736755)
(X_624  0.6384313702583313)
(X_625  0.7458823919296265)
(X_626  0.7011764645576477)
(X_627  0.7247058749198914)
(X_628  0.7286274433135986)
(X_629  0.8047059178352356)
(X_630  0.7286274433135986)
(X_631  0.7364705801010132)
(X_632  0.7011764645576477)
(X_633  0.677647054195404)
(X_634  0.6462745070457458)
(X_635  0.6305882334709167)
(X_636  0.6266666650772095)
(X_637  0.6227450966835022)
(X_638  0.6149019598960876)
(X_639  0.6031372547149658)
(X_640  0.6752941608428955)
(X_641  0.6596078872680664)
(X_642  0.6125490665435791)
(X_643  0.55372554063797)
(X_644  0.6792157292366028)
(X_645  0.7262745499610901)
(X_646  0.753725528717041)
(X_647  0.7301961183547974)
(X_648  0.7066667079925537)
(X_649  0.7184314131736755)
(X_650  0.7458823919296265)
(X_651  0.6815686225891113)
(X_652  0.661960780620575)
(X_653  0.6894117593765259)
(X_654  0.7207843065261841)
(X_655  0.8164706230163574)
(X_656  0.8164706230163574)
(X_657  0.8164706230163574)
(X_658  0.8203921914100647)
(X_659  0.8282353281974792)
(X_660  0.6854901909828186)
(X_661  0.6580392122268677)
(X_662  0.6266666650772095)
(X_663  0.6109803915023804)
(X_664  0.6870588660240173)
(X_665  0.6031372547149658)
(X_666  0.591372549533844)
(X_667  0.5835294127464294)
(X_668  0.5952941179275513)
(X_669  0.5756862759590149)
(X_670  0.6086274981498718)
(X_671  0.5498039722442627)
(X_672  0.7262745499610901)
(X_673  0.7341176867485046)
(X_674  0.7341176867485046)
(X_675  0.7184314131736755)
(X_676  0.7223529815673828)
(X_677  0.6698039174079895)
(X_678  0.7772549390792847)
(X_679  0.7850980758666992)
(X_680  0.7654902338981628)
(X_681  0.7772549390792847)
(X_682  0.7090196013450623)
(X_683  0.8047059178352356)
(X_684  0.8125490546226501)
(X_685  0.8164706230163574)
(X_686  0.8164706230163574)
(X_687  0.8125490546226501)
(X_688  0.6894117593765259)
(X_689  0.6541176438331604)
(X_690  0.634509801864624)
(X_691  0.7262745499610901)
(X_692  0.6658823490142822)
(X_693  0.6737254858016968)
(X_694  0.677647054195404)
(X_695  0.6854901909828186)
(X_696  0.6658823490142822)
(X_697  0.634509801864624)
(X_698  0.5874509811401367)
(X_699  0.5521568655967712)
(X_700  0.7458823919296265)
(X_701  0.7615686655044556)
(X_702  0.7694118022918701)
(X_703  0.7615686655044556)
(X_704  0.7654902338981628)
(X_705  0.7811765074729919)
(X_706  0.796862781047821)
(X_707  0.7129411697387695)
(X_708  0.7772549390792847)
(X_709  0.7890196442604065)
(X_710  0.8007843494415283)
(X_711  0.8125490546226501)
(X_712  0.8203921914100647)
(X_713  0.824313759803772)
(X_714  0.8203921914100647)
(X_715  0.8164706230163574)
(X_716  0.7286274433135986)
(X_717  0.6972548961639404)
(X_718  0.7576470971107483)
(X_719  0.7733333706855774)
(X_720  0.7929412126541138)
(X_721  0.7168627381324768)
(X_722  0.7168627381324768)
(X_723  0.7207843065261841)
(X_724  0.7168627381324768)
(X_725  0.6894117593765259)
(X_726  0.6541176438331604)
(X_727  0.6266666650772095)
(X_728  0.6815686225891113)
(X_729  0.7090196013450623)
(X_730  0.7247058749198914)
(X_731  0.8007843494415283)
(X_732  0.8007843494415283)
(X_733  0.8086274862289429)
(X_734  0.8047059178352356)
(X_735  0.7929412126541138)
(X_736  0.7929412126541138)
(X_737  0.8007843494415283)
(X_738  0.8125490546226501)
(X_739  0.824313759803772)
(X_740  0.8282353281974792)
(X_741  0.8282353281974792)
(X_742  0.824313759803772)
(X_743  0.8203921914100647)
(X_744  0.8125490546226501)
(X_745  0.7890196442604065)
(X_746  0.7772549390792847)
(X_747  0.7929412126541138)
(X_748  0.8086274862289429)
(X_749  0.8086274862289429)
(X_750  0.7247058749198914)
(X_751  0.8086274862289429)
(X_752  0.7286274433135986)
(X_753  0.7090196013450623)
(X_754  0.7654902338981628)
(X_755  0.6658823490142822)
(X_756  0.6854901909828186)
(X_757  0.7129411697387695)
(X_758  0.8125490546226501)
(X_759  0.8086274862289429)
(X_760  0.8007843494415283)
(X_761  0.8047059178352356)
(X_762  0.796862781047821)
(X_763  0.7850980758666992)
(X_764  0.8007843494415283)
(X_765  0.8086274862289429)
(X_766  0.8203921914100647)
(X_767  0.8282353281974792)
(X_768  0.8282353281974792)
(X_769  0.8282353281974792)
(X_770  0.8203921914100647)
(X_771  0.7364705801010132)
(X_772  0.796862781047821)
(X_773  0.7811765074729919)
(X_774  0.7772549390792847)
(X_775  0.796862781047821)
(X_776  0.8086274862289429)
(X_777  0.8007843494415283)
(X_778  0.7929412126541138)
(X_779  0.796862781047821)
(X_780  0.7929412126541138)
(X_781  0.7772549390792847)
(X_782  0.677647054195404)
(X_783  0.7498039603233337)
(Y_0 -0.43395140767097473))