((X_0  0.17568626999855042)
(X_1  0.16784313321113586)
(X_2  0.15607842803001404)
(X_3  0.15215685963630676)
(X_4  0.16784313321113586)
(X_5  0.21490196883678436)
(X_6  0.2737255096435547)
(X_7  0.3168627619743347)
(X_8  0.27764707803726196)
(X_9  0.3733333349227905)
(X_10  0.4125490188598633)
(X_11  0.4596078395843506)
(X_12  0.5027450919151306)
(X_13  0.5262745022773743)
(X_14  0.5301960706710815)
(X_15  0.522352933883667)
(X_16  0.5145097970962524)
(X_17  0.5027450919151306)
(X_18  0.4752941131591797)
(X_19  0.4243137240409851)
(X_20  0.365490198135376)
(X_21  0.23843137919902802)
(X_22  0.2266666740179062)
(X_23  0.23058824241161346)
(X_24  0.12078431993722916)
(X_25  0.12078431993722916)
(X_26  0.19686275720596313)
(X_27  0.19686275720596313)
(X_28  0.24000000953674316)
(X_29  0.251764714717865)
(X_30  0.17568626999855042)
(X_31  0.16784313321113586)
(X_32  0.1639215648174286)
(X_33  0.18352940678596497)
(X_34  0.23058824241161346)
(X_35  0.2698039412498474)
(X_36  0.28156864643096924)
(X_37  0.29725492000579834)
(X_38  0.40470588207244873)
(X_39  0.4439215660095215)
(X_40  0.4752941131591797)
(X_41  0.48313724994659424)
(X_42  0.4713725447654724)
(X_43  0.4556862711906433)
(X_44  0.47921568155288696)
(X_45  0.48313724994659424)
(X_46  0.4596078395843506)
(X_47  0.32862746715545654)
(X_48  0.27764707803726196)
(X_49  0.25019609928131104)
(X_50  0.2266666740179062)
(X_51  0.20705881714820862)
(X_52  0.17176470160484314)
(X_53  0.16784313321113586)
(X_54  0.24000000953674316)
(X_55  0.2360784411430359)
(X_56  0.24392157793045044)
(X_57  0.18745097517967224)
(X_58  0.20313724875450134)
(X_59  0.1952941119670868)
(X_60  0.16784313321113586)
(X_61  0.1639215648174286)
(X_62  0.19137254357337952)
(X_63  0.21882353723049164)
(X_64  0.2580392360687256)
(X_65  0.2698039412498474)
(X_66  0.3733333349227905)
(X_67  0.4125490188598633)
(X_68  0.44784313440322876)
(X_69  0.4596078395843506)
(X_70  0.44784313440322876)
(X_71  0.43215686082839966)
(X_72  0.35607844591140747)
(X_73  0.4556862711906433)
(X_74  0.43607842922210693)
(X_75  0.3811764717102051)
(X_76  0.2737255096435547)
(X_77  0.2698039412498474)
(X_78  0.23450981080532074)
(X_79  0.1796078383922577)
(X_80  0.1796078383922577)
(X_81  0.25568628311157227)
(X_82  0.251764714717865)
(X_83  0.24784314632415771)
(X_84  0.2792156934738159)
(X_85  0.2109804004430771)
(X_86  0.2227451056241989)
(X_87  0.21882353723049164)
(X_88  0.2831372618675232)
(X_89  0.1952941119670868)
(X_90  0.19921568036079407)
(X_91  0.28705883026123047)
(X_92  0.3458823561668396)
(X_93  0.3419607877731323)
(X_94  0.35372549295425415)
(X_95  0.3050980567932129)
(X_96  0.34039217233657837)
(X_97  0.35607844591140747)
(X_98  0.3521568775177002)
(X_99  0.3364706039428711)
(X_100  0.40078431367874146)
(X_101  0.43215686082839966)
(X_102  0.4125490188598633)
(X_103  0.3498039245605469)
(X_104  0.3419607877731323)
(X_105  0.36941176652908325)
(X_106  0.3301960825920105)
(X_107  0.251764714717865)
(X_108  0.17176470160484314)
(X_109  0.251764714717865)
(X_110  0.25568628311157227)
(X_111  0.25568628311157227)
(X_112  0.32235294580459595)
(X_113  0.3145098090171814)
(X_114  0.23058824241161346)
(X_115  0.23843137919902802)
(X_116  0.2541176676750183)
(X_117  0.3419607877731323)
(X_118  0.3301960825920105)
(X_119  0.31843137741088867)
(X_120  0.38509804010391235)
(X_121  0.3615686297416687)
(X_122  0.3498039245605469)
(X_123  0.27764707803726196)
(X_124  0.3011764883995056)
(X_125  0.3168627619743347)
(X_126  0.31294119358062744)
(X_127  0.29725492000579834)
(X_128  0.3968627452850342)
(X_129  0.41647058725357056)
(X_130  0.3811764717102051)
(X_131  0.31843137741088867)
(X_132  0.32235294580459595)
(X_133  0.365490198135376)
(X_134  0.3458823561668396)
(X_135  0.27529412508010864)
(X_136  0.21490196883678436)
(X_137  0.29098039865493774)
(X_138  0.29098039865493774)
(X_139  0.29098039865493774)
(X_140  0.26196080446243286)
(X_141  0.32235294580459595)
(X_142  0.3145098090171814)
(X_143  0.2580392360687256)
(X_144  0.3011764883995056)
(X_145  0.40078431367874146)
(X_146  0.38509804010391235)
(X_147  0.3615686297416687)
(X_148  0.3498039245605469)
(X_149  0.3262745141983032)
(X_150  0.3145098090171814)
(X_151  0.25019609928131104)
(X_152  0.29333335161209106)
(X_153  0.320784330368042)
(X_154  0.40470588207244873)
(X_155  0.3929411768913269)
(X_156  0.4125490188598633)
(X_157  0.40470588207244873)
(X_158  0.3498039245605469)
(X_159  0.28705883026123047)
(X_160  0.29098039865493774)
(X_161  0.3419607877731323)
(X_162  0.35372549295425415)
(X_163  0.32235294580459595)
(X_164  0.3576470613479614)
(X_165  0.3458823561668396)
(X_166  0.3301960825920105)
(X_167  0.3145098090171814)
(X_168  0.31843137741088867)
(X_169  0.3145098090171814)
(X_170  0.32235294580459595)
(X_171  0.3576470613479614)
(X_172  0.40078431367874146)
(X_173  0.42039215564727783)
(X_174  0.408627450466156)
(X_175  0.38901960849761963)
(X_176  0.29098039865493774)
(X_177  0.19921568036079407)
(X_178  0.20705881714820862)
(X_179  0.2541176676750183)
(X_180  0.3168627619743347)
(X_181  0.363921582698822)
(X_182  0.3717647194862366)
(X_183  0.4399999976158142)
(X_184  0.43607842922210693)
(X_185  0.3929411768913269)
(X_186  0.31843137741088867)
(X_187  0.25568628311157227)
(X_188  0.25568628311157227)
(X_189  0.30666667222976685)
(X_190  0.35372549295425415)
(X_191  0.36941176652908325)
(X_192  0.40078431367874146)
(X_193  0.3811764717102051)
(X_194  0.3458823561668396)
(X_195  0.3145098090171814)
(X_196  0.2831372618675232)
(X_197  0.2988235354423523)
(X_198  0.3301960825920105)
(X_199  0.3733333349227905)
(X_200  0.40470588207244873)
(X_201  0.41647058725357056)
(X_202  0.408627450466156)
(X_203  0.3968627452850342)
(X_204  0.29098039865493774)
(X_205  0.20705881714820862)
(X_206  0.2227451056241989)
(X_207  0.27764707803726196)
(X_208  0.34431374073028564)
(X_209  0.46352940797805786)
(X_210  0.4596078395843506)
(X_211  0.4399999976158142)
(X_212  0.3717647194862366)
(X_213  0.38509804010391235)
(X_214  0.294901967048645)
(X_215  0.2360784411430359)
(X_216  0.2321568727493286)
(X_217  0.2792156934738159)
(X_218  0.3498039245605469)
(X_219  0.40078431367874146)
(X_220  0.4243137240409851)
(X_221  0.40078431367874146)
(X_222  0.3615686297416687)
(X_223  0.32235294580459595)
(X_224  0.27137255668640137)
(X_225  0.2988235354423523)
(X_226  0.32235294580459595)
(X_227  0.35372549295425415)
(X_228  0.408627450466156)
(X_229  0.4399999976158142)
(X_230  0.31294119358062744)
(X_231  0.23450981080532074)
(X_232  0.18352940678596497)
(X_233  0.2109804004430771)
(X_234  0.26588237285614014)
(X_235  0.320784330368042)
(X_236  0.36000001430511475)
(X_237  0.4556862711906433)
(X_238  0.4596078395843506)
(X_239  0.3835294246673584)
(X_240  0.3796078562736511)
(X_241  0.29725492000579834)
(X_242  0.20705881714820862)
(X_243  0.16784313321113586)
(X_244  0.24000000953674316)
(X_245  0.2635294198989868)
(X_246  0.3419607877731323)
(X_247  0.42039215564727783)
(X_248  0.38901960849761963)
(X_249  0.40078431367874146)
(X_250  0.35372549295425415)
(X_251  0.30666667222976685)
(X_252  0.29098039865493774)
(X_253  0.3105882406234741)
(X_254  0.33803921937942505)
(X_255  0.3772549033164978)
(X_256  0.41647058725357056)
(X_257  0.4125490188598633)
(X_258  0.3576470613479614)
(X_259  0.21882353723049164)
(X_260  0.19921568036079407)
(X_261  0.2423529475927353)
(X_262  0.29333335161209106)
(X_263  0.3325490355491638)
(X_264  0.3717647194862366)
(X_265  0.48313724994659424)
(X_266  0.4909803867340088)
(X_267  0.3952941298484802)
(X_268  0.3835294246673584)
(X_269  0.320784330368042)
(X_270  0.25019609928131104)
(X_271  0.20705881714820862)
(X_272  0.17568626999855042)
(X_273  0.24784314632415771)
(X_274  0.29098039865493774)
(X_275  0.35372549295425415)
(X_276  0.40470588207244873)
(X_277  0.3968627452850342)
(X_278  0.3301960825920105)
(X_279  0.2792156934738159)
(X_280  0.21490196883678436)
(X_281  0.23058824241161346)
(X_282  0.35372549295425415)
(X_283  0.408627450466156)
(X_284  0.4243137240409851)
(X_285  0.38509804010391235)
(X_286  0.25019609928131104)
(X_287  0.21490196883678436)
(X_288  0.21882353723049164)
(X_289  0.28156864643096924)
(X_290  0.3325490355491638)
(X_291  0.3482353091239929)
(X_292  0.3874509930610657)
(X_293  0.522352933883667)
(X_294  0.5262745022773743)
(X_295  0.4109804034233093)
(X_296  0.4109804034233093)
(X_297  0.36000001430511475)
(X_298  0.3011764883995056)
(X_299  0.2541176676750183)
(X_300  0.1952941119670868)
(X_301  0.15607842803001404)
(X_302  0.2635294198989868)
(X_303  0.3145098090171814)
(X_304  0.43215686082839966)
(X_305  0.41647058725357056)
(X_306  0.33803921937942505)
(X_307  0.2831372618675232)
(X_308  0.20313724875450134)
(X_309  0.2227451056241989)
(X_310  0.365490198135376)
(X_311  0.4282352924346924)
(X_312  0.4243137240409851)
(X_313  0.28156864643096924)
(X_314  0.23450981080532074)
(X_315  0.23058824241161346)
(X_316  0.23450981080532074)
(X_317  0.31294119358062744)
(X_318  0.36000001430511475)
(X_319  0.36000001430511475)
(X_320  0.3952941298484802)
(X_321  0.5458824038505554)
(X_322  0.4737255275249481)
(X_323  0.4266666769981384)
(X_324  0.44235295057296753)
(X_325  0.3992156982421875)
(X_326  0.3482353091239929)
(X_327  0.29333335161209106)
(X_328  0.2227451056241989)
(X_329  0.17176470160484314)
(X_330  0.2674509882926941)
(X_331  0.32235294580459595)
(X_332  0.41647058725357056)
(X_333  0.4243137240409851)
(X_334  0.3615686297416687)
(X_335  0.30666667222976685)
(X_336  0.20705881714820862)
(X_337  0.23843137919902802)
(X_338  0.3811764717102051)
(X_339  0.4243137240409851)
(X_340  0.3968627452850342)
(X_341  0.24627451598644257)
(X_342  0.21882353723049164)
(X_343  0.23843137919902802)
(X_344  0.25019609928131104)
(X_345  0.32862746715545654)
(X_346  0.3717647194862366)
(X_347  0.3678431510925293)
(X_348  0.4031372666358948)
(X_349  0.5576471090316772)
(X_350  0.5654902458190918)
(X_351  0.5184313654899597)
(X_352  0.44235295057296753)
(X_353  0.4188235402107239)
(X_354  0.39137256145477295)
(X_355  0.3521568775177002)
(X_356  0.27764707803726196)
(X_357  0.20313724875450134)
(X_358  0.18745097517967224)
(X_359  0.2988235354423523)
(X_360  0.3576470613479614)
(X_361  0.40470588207244873)
(X_362  0.3772549033164978)
(X_363  0.31843137741088867)
(X_364  0.2227451056241989)
(X_365  0.3498039245605469)
(X_366  0.40470588207244873)
(X_367  0.40470588207244873)
(X_368  0.26588237285614014)
(X_369  0.20705881714820862)
(X_370  0.20313724875450134)
(X_371  0.23843137919902802)
(X_372  0.27764707803726196)
(X_373  0.3364706039428711)
(X_374  0.3796078562736511)
(X_375  0.3874509930610657)
(X_376  0.42274510860443115)
(X_377  0.5615686774253845)
(X_378  0.5694118142127991)
(X_379  0.5380392074584961)
(X_380  0.5145097970962524)
(X_381  0.4266666769981384)
(X_382  0.4266666769981384)
(X_383  0.4149019718170166)
(X_384  0.34431374073028564)
(X_385  0.24627451598644257)
(X_386  0.1952941119670868)
(X_387  0.1952941119670868)
(X_388  0.3419607877731323)
(X_389  0.4125490188598633)
(X_390  0.40078431367874146)
(X_391  0.33803921937942505)
(X_392  0.2227451056241989)
(X_393  0.36941176652908325)
(X_394  0.4125490188598633)
(X_395  0.29333335161209106)
(X_396  0.21490196883678436)
(X_397  0.18352940678596497)
(X_398  0.2109804004430771)
(X_399  0.25019609928131104)
(X_400  0.31294119358062744)
(X_401  0.3482353091239929)
(X_402  0.3874509930610657)
(X_403  0.4188235402107239)
(X_404  0.5341176390647888)
(X_405  0.5694118142127991)
(X_406  0.5811765193939209)
(X_407  0.5694118142127991)
(X_408  0.45803922414779663)
(X_409  0.44235295057296753)
(X_410  0.44235295057296753)
(X_411  0.43843138217926025)
(X_412  0.3874509930610657)
(X_413  0.3050980567932129)
(X_414  0.2541176676750183)
(X_415  0.25019609928131104)
(X_416  0.2894117832183838)
(X_417  0.43215686082839966)
(X_418  0.408627450466156)
(X_419  0.3419607877731323)
(X_420  0.20705881714820862)
(X_421  0.36941176652908325)
(X_422  0.408627450466156)
(X_423  0.26588237285614014)
(X_424  0.18745097517967224)
(X_425  0.1796078383922577)
(X_426  0.23058824241161346)
(X_427  0.2737255096435547)
(X_428  0.3364706039428711)
(X_429  0.35607844591140747)
(X_430  0.3952941298484802)
(X_431  0.43843138217926025)
(X_432  0.4737255275249481)
(X_433  0.5772549510002136)
(X_434  0.5890196561813354)
(X_435  0.5929412245750427)
(X_436  0.5772549510002136)
(X_437  0.45803922414779663)
(X_438  0.434509813785553)
(X_439  0.4266666769981384)
(X_440  0.3952941298484802)
(X_441  0.4282352924346924)
(X_442  0.32862746715545654)
(X_443  0.34431374073028564)
(X_444  0.3050980567932129)
(X_445  0.4282352924346924)
(X_446  0.38901960849761963)
(X_447  0.3145098090171814)
(X_448  0.23058824241161346)
(X_449  0.3811764717102051)
(X_450  0.3772549033164978)
(X_451  0.21882353723049164)
(X_452  0.2109804004430771)
(X_453  0.2854902148246765)
(X_454  0.2894117832183838)
(X_455  0.21882353723049164)
(X_456  0.29333335161209106)
(X_457  0.35607844591140747)
(X_458  0.4109804034233093)
(X_459  0.43843138217926025)
(X_460  0.5576471090316772)
(X_461  0.6047059297561646)
(X_462  0.6047059297561646)
(X_463  0.4933333694934845)
(X_464  0.5090196132659912)
(X_465  0.4933333694934845)
(X_466  0.46980395913124084)
(X_467  0.43843138217926025)
(X_468  0.4031372666358948)
(X_469  0.363921582698822)
(X_470  0.3325490355491638)
(X_471  0.3168627619743347)
(X_472  0.34039217233657837)
(X_473  0.4439215660095215)
(X_474  0.41647058725357056)
(X_475  0.3458823561668396)
(X_476  0.23843137919902802)
(X_477  0.36941176652908325)
(X_478  0.28156864643096924)
(X_479  0.2227451056241989)
(X_480  0.21882353723049164)
(X_481  0.2894117832183838)
(X_482  0.320784330368042)
(X_483  0.29725492000579834)
(X_484  0.3168627619743347)
(X_485  0.3874509930610657)
(X_486  0.4462745189666748)
(X_487  0.4737255275249481)
(X_488  0.5050980448722839)
(X_489  0.6243137717247009)
(X_490  0.6282353401184082)
(X_491  0.6047059297561646)
(X_492  0.5850980877876282)
(X_493  0.4933333694934845)
(X_494  0.46980395913124084)
(X_495  0.4462745189666748)
(X_496  0.42274510860443115)
(X_497  0.3952941298484802)
(X_498  0.3717647194862366)
(X_499  0.35607844591140747)
(X_500  0.34431374073028564)
(X_501  0.36000001430511475)
(X_502  0.41647058725357056)
(X_503  0.3498039245605469)
(X_504  0.3615686297416687)
(X_505  0.365490198135376)
(X_506  0.2580392360687256)
(X_507  0.2109804004430771)
(X_508  0.20705881714820862)
(X_509  0.26196080446243286)
(X_510  0.3168627619743347)
(X_511  0.3364706039428711)
(X_512  0.32470589876174927)
(X_513  0.3992156982421875)
(X_514  0.46980395913124084)
(X_515  0.4972549378871918)
(X_516  0.5129411816596985)
(X_517  0.6203922033309937)
(X_518  0.6243137717247009)
(X_519  0.6125490665435791)
(X_520  0.5129411816596985)
(X_521  0.4972549378871918)
(X_522  0.4737255275249481)
(X_523  0.45411765575408936)
(X_524  0.43843138217926025)
(X_525  0.4149019718170166)
(X_526  0.3952941298484802)
(X_527  0.3796078562736511)
(X_528  0.3678431510925293)
(X_529  0.37568628787994385)
(X_530  0.43607842922210693)
(X_531  0.38509804010391235)
(X_532  0.4125490188598633)
(X_533  0.3615686297416687)
(X_534  0.2988235354423523)
(X_535  0.18352940678596497)
(X_536  0.18745097517967224)
(X_537  0.21882353723049164)
(X_538  0.26588237285614014)
(X_539  0.3050980567932129)
(X_540  0.34039217233657837)
(X_541  0.4149019718170166)
(X_542  0.48549023270606995)
(X_543  0.5129411816596985)
(X_544  0.520784318447113)
(X_545  0.6086274981498718)
(X_546  0.6164706349372864)
(X_547  0.6125490665435791)
(X_548  0.5286274552345276)
(X_549  0.5090196132659912)
(X_550  0.48156866431236267)
(X_551  0.4619608223438263)
(X_552  0.44235295057296753)
(X_553  0.4188235402107239)
(X_554  0.39137256145477295)
(X_555  0.3717647194862366)
(X_556  0.37568628787994385)
(X_557  0.37568628787994385)
(X_558  0.4439215660095215)
(X_559  0.42039215564727783)
(X_560  0.40470588207244873)
(X_561  0.31843137741088867)
(X_562  0.16784313321113586)
(X_563  0.1639215648174286)
(X_564  0.1952941119670868)
(X_565  0.2266666740179062)
(X_566  0.2580392360687256)
(X_567  0.29333335161209106)
(X_568  0.3835294246673584)
(X_569  0.4462745189666748)
(X_570  0.5129411816596985)
(X_571  0.5364705920219421)
(X_572  0.5364705920219421)
(X_573  0.6125490665435791)
(X_574  0.6164706349372864)
(X_575  0.6164706349372864)
(X_576  0.5364705920219421)
(X_577  0.5168627500534058)
(X_578  0.4894118010997772)
(X_579  0.46980395913124084)
(X_580  0.4501960873603821)
(X_581  0.4266666769981384)
(X_582  0.3874509930610657)
(X_583  0.36000001430511475)
(X_584  0.3482353091239929)
(X_585  0.34039217233657837)
(X_586  0.4243137240409851)
(X_587  0.43607842922210693)
(X_588  0.3419607877731323)
(X_589  0.2792156934738159)
(X_590  0.1599999964237213)
(X_591  0.27529412508010864)
(X_592  0.33803921937942505)
(X_593  0.38509804010391235)
(X_594  0.41647058725357056)
(X_595  0.4399999976158142)
(X_596  0.5066666603088379)
(X_597  0.46588239073753357)
(X_598  0.5168627500534058)
(X_599  0.5403921604156494)
(X_600  0.5364705920219421)
(X_601  0.6086274981498718)
(X_602  0.6047059297561646)
(X_603  0.6086274981498718)
(X_604  0.5286274552345276)
(X_605  0.5090196132659912)
(X_606  0.48549023270606995)
(X_607  0.46980395913124084)
(X_608  0.45803922414779663)
(X_609  0.4266666769981384)
(X_610  0.3796078562736511)
(X_611  0.34431374073028564)
(X_612  0.3968627452850342)
(X_613  0.38509804010391235)
(X_614  0.40078431367874146)
(X_615  0.4439215660095215)
(X_616  0.3105882406234741)
(X_617  0.30274510383605957)
(X_618  0.3145098090171814)
(X_619  0.365490198135376)
(X_620  0.4282352924346924)
(X_621  0.47921568155288696)
(X_622  0.5145097970962524)
(X_623  0.5380392074584961)
(X_624  0.46980395913124084)
(X_625  0.5694118142127991)
(X_626  0.520784318447113)
(X_627  0.5443137288093567)
(X_628  0.5443137288093567)
(X_629  0.6125490665435791)
(X_630  0.520784318447113)
(X_631  0.520784318447113)
(X_632  0.520784318447113)
(X_633  0.4972549378871918)
(X_634  0.4737255275249481)
(X_635  0.45803922414779663)
(X_636  0.44235295057296753)
(X_637  0.3992156982421875)
(X_638  0.3364706039428711)
(X_639  0.2894117832183838)
(X_640  0.33803921937942505)
(X_641  0.32235294580459595)
(X_642  0.3498039245605469)
(X_643  0.41647058725357056)
(X_644  0.32235294580459595)
(X_645  0.3576470613479614)
(X_646  0.40470588207244873)
(X_647  0.45176470279693604)
(X_648  0.49490195512771606)
(X_649  0.5380392074584961)
(X_650  0.5733333826065063)
(X_651  0.5168627500534058)
(X_652  0.520784318447113)
(X_653  0.5286274552345276)
(X_654  0.548235297203064)
(X_655  0.6478431820869446)
(X_656  0.6517647504806519)
(X_657  0.6360784769058228)
(X_658  0.6243137717247009)
(X_659  0.6203922033309937)
(X_660  0.5168627500534058)
(X_661  0.4933333694934845)
(X_662  0.46588239073753357)
(X_663  0.44235295057296753)
(X_664  0.49490195512771606)
(X_665  0.36000001430511475)
(X_666  0.28156864643096924)
(X_667  0.2266666740179062)
(X_668  0.18745097517967224)
(X_669  0.16784313321113586)
(X_670  0.2792156934738159)
(X_671  0.3576470613479614)
(X_672  0.3301960825920105)
(X_673  0.38509804010391235)
(X_674  0.46352940797805786)
(X_675  0.522352933883667)
(X_676  0.55372554063797)
(X_677  0.4894118010997772)
(X_678  0.5850980877876282)
(X_679  0.59686279296875)
(X_680  0.6007843613624573)
(X_681  0.6086274981498718)
(X_682  0.5403921604156494)
(X_683  0.6321569085121155)
(X_684  0.6439216136932373)
(X_685  0.6478431820869446)
(X_686  0.6517647504806519)
(X_687  0.6517647504806519)
(X_688  0.520784318447113)
(X_689  0.520784318447113)
(X_690  0.4933333694934845)
(X_691  0.5184313654899597)
(X_692  0.37568628787994385)
(X_693  0.30901962518692017)
(X_694  0.23058824241161346)
(X_695  0.16784313321113586)
(X_696  0.1599999964237213)
(X_697  0.1482352912425995)
(X_698  0.16784313321113586)
(X_699  0.2227451056241989)
(X_700  0.38901960849761963)
(X_701  0.4282352924346924)
(X_702  0.48313724994659424)
(X_703  0.5262745022773743)
(X_704  0.5458824038505554)
(X_705  0.5615686774253845)
(X_706  0.5811765193939209)
(X_707  0.5168627500534058)
(X_708  0.6047059297561646)
(X_709  0.6125490665435791)
(X_710  0.6243137717247009)
(X_711  0.6360784769058228)
(X_712  0.6439216136932373)
(X_713  0.6478431820869446)
(X_714  0.6478431820869446)
(X_715  0.6439216136932373)
(X_716  0.5403921604156494)
(X_717  0.5364705920219421)
(X_718  0.5890196561813354)
(X_719  0.5380392074584961)
(X_720  0.49490195512771606)
(X_721  0.3717647194862366)
(X_722  0.3168627619743347)
(X_723  0.2698039412498474)
(X_724  0.1796078383922577)
(X_725  0.1482352912425995)
(X_726  0.13647058606147766)
(X_727  0.15215685963630676)
(X_728  0.35607844591140747)
(X_729  0.3835294246673584)
(X_730  0.4188235402107239)
(X_731  0.5262745022773743)
(X_732  0.5458824038505554)
(X_733  0.5654902458190918)
(X_734  0.5890196561813354)
(X_735  0.6086274981498718)
(X_736  0.6125490665435791)
(X_737  0.6203922033309937)
(X_738  0.6282353401184082)
(X_739  0.6360784769058228)
(X_740  0.64000004529953)
(X_741  0.6439216136932373)
(X_742  0.64000004529953)
(X_743  0.64000004529953)
(X_744  0.6282353401184082)
(X_745  0.6203922033309937)
(X_746  0.59686279296875)
(X_747  0.5576471090316772)
(X_748  0.5341176390647888)
(X_749  0.5184313654899597)
(X_750  0.4109804034233093)
(X_751  0.46352940797805786)
(X_752  0.28156864643096924)
(X_753  0.23450981080532074)
(X_754  0.2674509882926941)
(X_755  0.17176470160484314)
(X_756  0.36000001430511475)
(X_757  0.3835294246673584)
(X_758  0.49882352352142334)
(X_759  0.5301960706710815)
(X_760  0.5576471090316772)
(X_761  0.5850980877876282)
(X_762  0.6086274981498718)
(X_763  0.6282353401184082)
(X_764  0.6203922033309937)
(X_765  0.6243137717247009)
(X_766  0.6321569085121155)
(X_767  0.6360784769058228)
(X_768  0.64000004529953)
(X_769  0.64000004529953)
(X_770  0.6360784769058228)
(X_771  0.5521568655967712)
(X_772  0.6164706349372864)
(X_773  0.6125490665435791)
(X_774  0.5929412245750427)
(X_775  0.5654902458190918)
(X_776  0.5498039722442627)
(X_777  0.5458824038505554)
(X_778  0.5301960706710815)
(X_779  0.5066666603088379)
(X_780  0.44784313440322876)
(X_781  0.3929411768913269)
(X_782  0.26196080446243286)
(X_783  0.32235294580459595)
(Y_0 -1.51319420337677))