((X_0  0.21882353723049164)
(X_1  0.18352940678596497)
(X_2  0.1639215648174286)
(X_3  0.1796078383922577)
(X_4  0.18745097517967224)
(X_5  0.1796078383922577)
(X_6  0.19137254357337952)
(X_7  0.21882353723049164)
(X_8  0.1952941119670868)
(X_9  0.2792156934738159)
(X_10  0.2674509882926941)
(X_11  0.2792156934738159)
(X_12  0.3105882406234741)
(X_13  0.28705883026123047)
(X_14  0.24784314632415771)
(X_15  0.2635294198989868)
(X_16  0.40078431367874146)
(X_17  0.40078431367874146)
(X_18  0.4125490188598633)
(X_19  0.3929411768913269)
(X_20  0.365490198135376)
(X_21  0.32862746715545654)
(X_22  0.3874509930610657)
(X_23  0.3835294246673584)
(X_24  0.2580392360687256)
(X_25  0.21882353723049164)
(X_26  0.251764714717865)
(X_27  0.2164705991744995)
(X_28  0.3105882406234741)
(X_29  0.2674509882926941)
(X_30  0.17176470160484314)
(X_31  0.1952941119670868)
(X_32  0.19921568036079407)
(X_33  0.1639215648174286)
(X_34  0.15215685963630676)
(X_35  0.17176470160484314)
(X_36  0.2541176676750183)
(X_37  0.2541176676750183)
(X_38  0.3145098090171814)
(X_39  0.3262745141983032)
(X_40  0.3576470613479614)
(X_41  0.3262745141983032)
(X_42  0.2831372618675232)
(X_43  0.28705883026123047)
(X_44  0.3105882406234741)
(X_45  0.30274510383605957)
(X_46  0.32235294580459595)
(X_47  0.2580392360687256)
(X_48  0.26588237285614014)
(X_49  0.31294119358062744)
(X_50  0.3364706039428711)
(X_51  0.29333335161209106)
(X_52  0.2109804004430771)
(X_53  0.18352940678596497)
(X_54  0.2321568727493286)
(X_55  0.21254903078079224)
(X_56  0.2831372618675232)
(X_57  0.16784313321113586)
(X_58  0.18352940678596497)
(X_59  0.2423529475927353)
(X_60  0.2580392360687256)
(X_61  0.21490196883678436)
(X_62  0.20313724875450134)
(X_63  0.23450981080532074)
(X_64  0.29333335161209106)
(X_65  0.28156864643096924)
(X_66  0.3301960825920105)
(X_67  0.3419607877731323)
(X_68  0.3811764717102051)
(X_69  0.3576470613479614)
(X_70  0.3145098090171814)
(X_71  0.3145098090171814)
(X_72  0.24627451598644257)
(X_73  0.28705883026123047)
(X_74  0.29098039865493774)
(X_75  0.3105882406234741)
(X_76  0.24627451598644257)
(X_77  0.2737255096435547)
(X_78  0.25019609928131104)
(X_79  0.17568626999855042)
(X_80  0.20313724875450134)
(X_81  0.25960785150527954)
(X_82  0.2360784411430359)
(X_83  0.22823530435562134)
(X_84  0.24784314632415771)
(X_85  0.15607842803001404)
(X_86  0.19921568036079407)
(X_87  0.2737255096435547)
(X_88  0.36941176652908325)
(X_89  0.25019609928131104)
(X_90  0.26196080446243286)
(X_91  0.3929411768913269)
(X_92  0.3419607877731323)
(X_93  0.32235294580459595)
(X_94  0.2831372618675232)
(X_95  0.21882353723049164)
(X_96  0.2737255096435547)
(X_97  0.27764707803726196)
(X_98  0.2541176676750183)
(X_99  0.2737255096435547)
(X_100  0.408627450466156)
(X_101  0.3458823561668396)
(X_102  0.3145098090171814)
(X_103  0.3145098090171814)
(X_104  0.3105882406234741)
(X_105  0.3262745141983032)
(X_106  0.3105882406234741)
(X_107  0.251764714717865)
(X_108  0.2541176676750183)
(X_109  0.30666667222976685)
(X_110  0.27137255668640137)
(X_111  0.24784314632415771)
(X_112  0.24392157793045044)
(X_113  0.251764714717865)
(X_114  0.21490196883678436)
(X_115  0.2580392360687256)
(X_116  0.25019609928131104)
(X_117  0.2988235354423523)
(X_118  0.31843137741088867)
(X_119  0.3733333349227905)
(X_120  0.294901967048645)
(X_121  0.27529412508010864)
(X_122  0.2321568727493286)
(X_123  0.16784313321113586)
(X_124  0.2423529475927353)
(X_125  0.2737255096435547)
(X_126  0.2894117832183838)
(X_127  0.3325490355491638)
(X_128  0.43215686082839966)
(X_129  0.3615686297416687)
(X_130  0.31843137741088867)
(X_131  0.29098039865493774)
(X_132  0.27137255668640137)
(X_133  0.30274510383605957)
(X_134  0.3498039245605469)
(X_135  0.3498039245605469)
(X_136  0.3050980567932129)
(X_137  0.3458823561668396)
(X_138  0.29098039865493774)
(X_139  0.25568628311157227)
(X_140  0.1599999964237213)
(X_141  0.2635294198989868)
(X_142  0.29098039865493774)
(X_143  0.23058824241161346)
(X_144  0.23058824241161346)
(X_145  0.3105882406234741)
(X_146  0.32235294580459595)
(X_147  0.33803921937942505)
(X_148  0.2792156934738159)
(X_149  0.2674509882926941)
(X_150  0.2321568727493286)
(X_151  0.16784313321113586)
(X_152  0.23843137919902802)
(X_153  0.2854902148246765)
(X_154  0.40470588207244873)
(X_155  0.4713725447654724)
(X_156  0.43215686082839966)
(X_157  0.365490198135376)
(X_158  0.31843137741088867)
(X_159  0.27529412508010864)
(X_160  0.2203921675682068)
(X_161  0.24392157793045044)
(X_162  0.3301960825920105)
(X_163  0.3772549033164978)
(X_164  0.3811764717102051)
(X_165  0.33803921937942505)
(X_166  0.2792156934738159)
(X_167  0.24000000953674316)
(X_168  0.24392157793045044)
(X_169  0.2674509882926941)
(X_170  0.2792156934738159)
(X_171  0.28705883026123047)
(X_172  0.3262745141983032)
(X_173  0.3733333349227905)
(X_174  0.3615686297416687)
(X_175  0.3105882406234741)
(X_176  0.28705883026123047)
(X_177  0.20705881714820862)
(X_178  0.1796078383922577)
(X_179  0.19137254357337952)
(X_180  0.24627451598644257)
(X_181  0.28156864643096924)
(X_182  0.32470589876174927)
(X_183  0.47921568155288696)
(X_184  0.4399999976158142)
(X_185  0.38509804010391235)
(X_186  0.35372549295425415)
(X_187  0.30274510383605957)
(X_188  0.2203921675682068)
(X_189  0.21254903078079224)
(X_190  0.28705883026123047)
(X_191  0.3341176509857178)
(X_192  0.3576470613479614)
(X_193  0.31843137741088867)
(X_194  0.27137255668640137)
(X_195  0.24000000953674316)
(X_196  0.2635294198989868)
(X_197  0.2792156934738159)
(X_198  0.27137255668640137)
(X_199  0.2674509882926941)
(X_200  0.3341176509857178)
(X_201  0.40078431367874146)
(X_202  0.35372549295425415)
(X_203  0.24392157793045044)
(X_204  0.29098039865493774)
(X_205  0.21882353723049164)
(X_206  0.20313724875450134)
(X_207  0.20705881714820862)
(X_208  0.24627451598644257)
(X_209  0.3458823561668396)
(X_210  0.3811764717102051)
(X_211  0.45176470279693604)
(X_212  0.3521568775177002)
(X_213  0.3929411768913269)
(X_214  0.3772549033164978)
(X_215  0.3458823561668396)
(X_216  0.2635294198989868)
(X_217  0.2360784411430359)
(X_218  0.28705883026123047)
(X_219  0.3262745141983032)
(X_220  0.3458823561668396)
(X_221  0.3145098090171814)
(X_222  0.27529412508010864)
(X_223  0.251764714717865)
(X_224  0.25568628311157227)
(X_225  0.2792156934738159)
(X_226  0.2674509882926941)
(X_227  0.30274510383605957)
(X_228  0.38509804010391235)
(X_229  0.35372549295425415)
(X_230  0.21490196883678436)
(X_231  0.2423529475927353)
(X_232  0.2109804004430771)
(X_233  0.20705881714820862)
(X_234  0.20705881714820862)
(X_235  0.2109804004430771)
(X_236  0.23450981080532074)
(X_237  0.3615686297416687)
(X_238  0.4243137240409851)
(X_239  0.3874509930610657)
(X_240  0.3325490355491638)
(X_241  0.320784330368042)
(X_242  0.31294119358062744)
(X_243  0.29725492000579834)
(X_244  0.3301960825920105)
(X_245  0.2792156934738159)
(X_246  0.2635294198989868)
(X_247  0.28705883026123047)
(X_248  0.3772549033164978)
(X_249  0.33803921937942505)
(X_250  0.25960785150527954)
(X_251  0.2360784411430359)
(X_252  0.25960785150527954)
(X_253  0.2635294198989868)
(X_254  0.2674509882926941)
(X_255  0.3105882406234741)
(X_256  0.3615686297416687)
(X_257  0.3341176509857178)
(X_258  0.2831372618675232)
(X_259  0.19921568036079407)
(X_260  0.20313724875450134)
(X_261  0.20313724875450134)
(X_262  0.2109804004430771)
(X_263  0.2266666740179062)
(X_264  0.2580392360687256)
(X_265  0.38901960849761963)
(X_266  0.44784313440322876)
(X_267  0.40705883502960205)
(X_268  0.3482353091239929)
(X_269  0.3325490355491638)
(X_270  0.32470589876174927)
(X_271  0.30901962518692017)
(X_272  0.2737255096435547)
(X_273  0.30274510383605957)
(X_274  0.2831372618675232)
(X_275  0.29098039865493774)
(X_276  0.3968627452850342)
(X_277  0.36941176652908325)
(X_278  0.2988235354423523)
(X_279  0.2635294198989868)
(X_280  0.1796078383922577)
(X_281  0.16784313321113586)
(X_282  0.28705883026123047)
(X_283  0.3341176509857178)
(X_284  0.3301960825920105)
(X_285  0.30666667222976685)
(X_286  0.19921568036079407)
(X_287  0.15607842803001404)
(X_288  0.1952941119670868)
(X_289  0.19921568036079407)
(X_290  0.21490196883678436)
(X_291  0.24627451598644257)
(X_292  0.29333335161209106)
(X_293  0.4282352924346924)
(X_294  0.47921568155288696)
(X_295  0.4266666769981384)
(X_296  0.3717647194862366)
(X_297  0.3482353091239929)
(X_298  0.3325490355491638)
(X_299  0.32470589876174927)
(X_300  0.3011764883995056)
(X_301  0.26196080446243286)
(X_302  0.3105882406234741)
(X_303  0.2988235354423523)
(X_304  0.38509804010391235)
(X_305  0.3772549033164978)
(X_306  0.32235294580459595)
(X_307  0.2831372618675232)
(X_308  0.17568626999855042)
(X_309  0.16784313321113586)
(X_310  0.32235294580459595)
(X_311  0.365490198135376)
(X_312  0.30666667222976685)
(X_313  0.20705881714820862)
(X_314  0.20705881714820862)
(X_315  0.15607842803001404)
(X_316  0.18745097517967224)
(X_317  0.1952941119670868)
(X_318  0.21882353723049164)
(X_319  0.26196080446243286)
(X_320  0.320784330368042)
(X_321  0.4556862711906433)
(X_322  0.4149019718170166)
(X_323  0.4305882453918457)
(X_324  0.3835294246673584)
(X_325  0.36000001430511475)
(X_326  0.34039217233657837)
(X_327  0.3364706039428711)
(X_328  0.32862746715545654)
(X_329  0.3011764883995056)
(X_330  0.3419607877731323)
(X_331  0.3145098090171814)
(X_332  0.3419607877731323)
(X_333  0.3576470613479614)
(X_334  0.32235294580459595)
(X_335  0.2792156934738159)
(X_336  0.16784313321113586)
(X_337  0.18745097517967224)
(X_338  0.35372549295425415)
(X_339  0.3772549033164978)
(X_340  0.2988235354423523)
(X_341  0.20313724875450134)
(X_342  0.2266666740179062)
(X_343  0.19137254357337952)
(X_344  0.18745097517967224)
(X_345  0.19137254357337952)
(X_346  0.21490196883678436)
(X_347  0.26588237285614014)
(X_348  0.3364706039428711)
(X_349  0.4713725447654724)
(X_350  0.49882352352142334)
(X_351  0.5027450919151306)
(X_352  0.3874509930610657)
(X_353  0.3678431510925293)
(X_354  0.3482353091239929)
(X_355  0.34039217233657837)
(X_356  0.34039217233657837)
(X_357  0.32862746715545654)
(X_358  0.29333335161209106)
(X_359  0.33803921937942505)
(X_360  0.3341176509857178)
(X_361  0.3615686297416687)
(X_362  0.3262745141983032)
(X_363  0.2792156934738159)
(X_364  0.1796078383922577)
(X_365  0.2988235354423523)
(X_366  0.35372549295425415)
(X_367  0.3576470613479614)
(X_368  0.2266666740179062)
(X_369  0.21490196883678436)
(X_370  0.2266666740179062)
(X_371  0.21490196883678436)
(X_372  0.18745097517967224)
(X_373  0.18745097517967224)
(X_374  0.20705881714820862)
(X_375  0.26588237285614014)
(X_376  0.34431374073028564)
(X_377  0.47921568155288696)
(X_378  0.49882352352142334)
(X_379  0.49882352352142334)
(X_380  0.46352940797805786)
(X_381  0.37568628787994385)
(X_382  0.35607844591140747)
(X_383  0.34039217233657837)
(X_384  0.34431374073028564)
(X_385  0.3482353091239929)
(X_386  0.32470589876174927)
(X_387  0.29333335161209106)
(X_388  0.36941176652908325)
(X_389  0.3968627452850342)
(X_390  0.35372549295425415)
(X_391  0.28705883026123047)
(X_392  0.20313724875450134)
(X_393  0.3262745141983032)
(X_394  0.32235294580459595)
(X_395  0.2227451056241989)
(X_396  0.23843137919902802)
(X_397  0.23450981080532074)
(X_398  0.2109804004430771)
(X_399  0.20705881714820862)
(X_400  0.18745097517967224)
(X_401  0.1796078383922577)
(X_402  0.19921568036079407)
(X_403  0.26196080446243286)
(X_404  0.4282352924346924)
(X_405  0.49490195512771606)
(X_406  0.5105882287025452)
(X_407  0.5066666603088379)
(X_408  0.3835294246673584)
(X_409  0.3835294246673584)
(X_410  0.3678431510925293)
(X_411  0.34431374073028564)
(X_412  0.3482353091239929)
(X_413  0.363921582698822)
(X_414  0.35607844591140747)
(X_415  0.3325490355491638)
(X_416  0.320784330368042)
(X_417  0.4243137240409851)
(X_418  0.36941176652908325)
(X_419  0.294901967048645)
(X_420  0.2266666740179062)
(X_421  0.33803921937942505)
(X_422  0.28705883026123047)
(X_423  0.1796078383922577)
(X_424  0.24627451598644257)
(X_425  0.25019609928131104)
(X_426  0.1952941119670868)
(X_427  0.18745097517967224)
(X_428  0.18352940678596497)
(X_429  0.17568626999855042)
(X_430  0.19137254357337952)
(X_431  0.26196080446243286)
(X_432  0.35607844591140747)
(X_433  0.5027450919151306)
(X_434  0.522352933883667)
(X_435  0.5145097970962524)
(X_436  0.46352940797805786)
(X_437  0.3874509930610657)
(X_438  0.37568628787994385)
(X_439  0.3482353091239929)
(X_440  0.3521568775177002)
(X_441  0.45176470279693604)
(X_442  0.37568628787994385)
(X_443  0.35607844591140747)
(X_444  0.32470589876174927)
(X_445  0.4243137240409851)
(X_446  0.365490198135376)
(X_447  0.294901967048645)
(X_448  0.26196080446243286)
(X_449  0.32235294580459595)
(X_450  0.2831372618675232)
(X_451  0.1639215648174286)
(X_452  0.1599999964237213)
(X_453  0.1796078383922577)
(X_454  0.18745097517967224)
(X_455  0.17568626999855042)
(X_456  0.1639215648174286)
(X_457  0.16784313321113586)
(X_458  0.19137254357337952)
(X_459  0.2698039412498474)
(X_460  0.46352940797805786)
(X_461  0.5458824038505554)
(X_462  0.5458824038505554)
(X_463  0.42274510860443115)
(X_464  0.3678431510925293)
(X_465  0.3482353091239929)
(X_466  0.3521568775177002)
(X_467  0.3835294246673584)
(X_468  0.3952941298484802)
(X_469  0.3717647194862366)
(X_470  0.3521568775177002)
(X_471  0.3482353091239929)
(X_472  0.3482353091239929)
(X_473  0.4125490188598633)
(X_474  0.38901960849761963)
(X_475  0.3301960825920105)
(X_476  0.24627451598644257)
(X_477  0.27529412508010864)
(X_478  0.16784313321113586)
(X_479  0.18352940678596497)
(X_480  0.19921568036079407)
(X_481  0.1952941119670868)
(X_482  0.19921568036079407)
(X_483  0.21490196883678436)
(X_484  0.2109804004430771)
(X_485  0.2227451056241989)
(X_486  0.25019609928131104)
(X_487  0.3168627619743347)
(X_488  0.40705883502960205)
(X_489  0.55372554063797)
(X_490  0.5498039722442627)
(X_491  0.5105882287025452)
(X_492  0.43215686082839966)
(X_493  0.3364706039428711)
(X_494  0.34039217233657837)
(X_495  0.3717647194862366)
(X_496  0.3874509930610657)
(X_497  0.3678431510925293)
(X_498  0.3482353091239929)
(X_499  0.34431374073028564)
(X_500  0.320784330368042)
(X_501  0.3050980567932129)
(X_502  0.3811764717102051)
(X_503  0.3498039245605469)
(X_504  0.294901967048645)
(X_505  0.2360784411430359)
(X_506  0.15215685963630676)
(X_507  0.21490196883678436)
(X_508  0.24627451598644257)
(X_509  0.2227451056241989)
(X_510  0.2266666740179062)
(X_511  0.26588237285614014)
(X_512  0.25019609928131104)
(X_513  0.2698039412498474)
(X_514  0.30901962518692017)
(X_515  0.363921582698822)
(X_516  0.43843138217926025)
(X_517  0.5654902458190918)
(X_518  0.55372554063797)
(X_519  0.522352933883667)
(X_520  0.34039217233657837)
(X_521  0.32862746715545654)
(X_522  0.3325490355491638)
(X_523  0.36000001430511475)
(X_524  0.37568628787994385)
(X_525  0.3678431510925293)
(X_526  0.3482353091239929)
(X_527  0.34431374073028564)
(X_528  0.3011764883995056)
(X_529  0.26588237285614014)
(X_530  0.3615686297416687)
(X_531  0.3733333349227905)
(X_532  0.2635294198989868)
(X_533  0.25568628311157227)
(X_534  0.27529412508010864)
(X_535  0.24627451598644257)
(X_536  0.26588237285614014)
(X_537  0.26196080446243286)
(X_538  0.2698039412498474)
(X_539  0.29725492000579834)
(X_540  0.26588237285614014)
(X_541  0.3011764883995056)
(X_542  0.3482353091239929)
(X_543  0.3992156982421875)
(X_544  0.45411765575408936)
(X_545  0.5694118142127991)
(X_546  0.5615686774253845)
(X_547  0.5301960706710815)
(X_548  0.34039217233657837)
(X_549  0.3364706039428711)
(X_550  0.34039217233657837)
(X_551  0.35607844591140747)
(X_552  0.37568628787994385)
(X_553  0.37568628787994385)
(X_554  0.36000001430511475)
(X_555  0.3482353091239929)
(X_556  0.30901962518692017)
(X_557  0.2423529475927353)
(X_558  0.3262745141983032)
(X_559  0.3733333349227905)
(X_560  0.25568628311157227)
(X_561  0.3145098090171814)
(X_562  0.27764707803726196)
(X_563  0.2737255096435547)
(X_564  0.2698039412498474)
(X_565  0.29725492000579834)
(X_566  0.3168627619743347)
(X_567  0.3168627619743347)
(X_568  0.3050980567932129)
(X_569  0.34039217233657837)
(X_570  0.3835294246673584)
(X_571  0.4266666769981384)
(X_572  0.46980395913124084)
(X_573  0.5733333826065063)
(X_574  0.5576471090316772)
(X_575  0.5262745022773743)
(X_576  0.363921582698822)
(X_577  0.363921582698822)
(X_578  0.363921582698822)
(X_579  0.3717647194862366)
(X_580  0.3835294246673584)
(X_581  0.39137256145477295)
(X_582  0.37568628787994385)
(X_583  0.35607844591140747)
(X_584  0.3364706039428711)
(X_585  0.23058824241161346)
(X_586  0.294901967048645)
(X_587  0.35372549295425415)
(X_588  0.2792156934738159)
(X_589  0.3615686297416687)
(X_590  0.320784330368042)
(X_591  0.36941176652908325)
(X_592  0.3615686297416687)
(X_593  0.4125490188598633)
(X_594  0.43607842922210693)
(X_595  0.41647058725357056)
(X_596  0.4439215660095215)
(X_597  0.39137256145477295)
(X_598  0.42274510860443115)
(X_599  0.45411765575408936)
(X_600  0.48549023270606995)
(X_601  0.5772549510002136)
(X_602  0.5498039722442627)
(X_603  0.5105882287025452)
(X_604  0.3992156982421875)
(X_605  0.3992156982421875)
(X_606  0.39137256145477295)
(X_607  0.3874509930610657)
(X_608  0.3952941298484802)
(X_609  0.4031372666358948)
(X_610  0.3874509930610657)
(X_611  0.363921582698822)
(X_612  0.4125490188598633)
(X_613  0.3105882406234741)
(X_614  0.28705883026123047)
(X_615  0.33803921937942505)
(X_616  0.32235294580459595)
(X_617  0.3615686297416687)
(X_618  0.38509804010391235)
(X_619  0.3811764717102051)
(X_620  0.3968627452850342)
(X_621  0.4399999976158142)
(X_622  0.4596078395843506)
(X_623  0.45176470279693604)
(X_624  0.3952941298484802)
(X_625  0.4909803867340088)
(X_626  0.4305882453918457)
(X_627  0.45803922414779663)
(X_628  0.4894118010997772)
(X_629  0.5850980877876282)
(X_630  0.4737255275249481)
(X_631  0.4266666769981384)
(X_632  0.4266666769981384)
(X_633  0.4305882453918457)
(X_634  0.4188235402107239)
(X_635  0.4031372666358948)
(X_636  0.4031372666358948)
(X_637  0.4149019718170166)
(X_638  0.3952941298484802)
(X_639  0.36000001430511475)
(X_640  0.36941176652908325)
(X_641  0.3105882406234741)
(X_642  0.30666667222976685)
(X_643  0.33803921937942505)
(X_644  0.3576470613479614)
(X_645  0.33803921937942505)
(X_646  0.3458823561668396)
(X_647  0.38901960849761963)
(X_648  0.43215686082839966)
(X_649  0.4556862711906433)
(X_650  0.46745097637176514)
(X_651  0.3992156982421875)
(X_652  0.39137256145477295)
(X_653  0.4031372666358948)
(X_654  0.4188235402107239)
(X_655  0.5262745022773743)
(X_656  0.5694118142127991)
(X_657  0.5890196561813354)
(X_658  0.5615686774253845)
(X_659  0.5145097970962524)
(X_660  0.44235295057296753)
(X_661  0.4462745189666748)
(X_662  0.4305882453918457)
(X_663  0.40705883502960205)
(X_664  0.4870588183403015)
(X_665  0.4149019718170166)
(X_666  0.3952941298484802)
(X_667  0.36000001430511475)
(X_668  0.24627451598644257)
(X_669  0.2266666740179062)
(X_670  0.3301960825920105)
(X_671  0.3458823561668396)
(X_672  0.3145098090171814)
(X_673  0.3458823561668396)
(X_674  0.38509804010391235)
(X_675  0.41647058725357056)
(X_676  0.43215686082839966)
(X_677  0.36000001430511475)
(X_678  0.45176470279693604)
(X_679  0.4596078395843506)
(X_680  0.46745097637176514)
(X_681  0.48313724994659424)
(X_682  0.42274510860443115)
(X_683  0.5262745022773743)
(X_684  0.5498039722442627)
(X_685  0.5615686774253845)
(X_686  0.5419608354568481)
(X_687  0.5184313654899597)
(X_688  0.43843138217926025)
(X_689  0.4462745189666748)
(X_690  0.43843138217926025)
(X_691  0.5027450919151306)
(X_692  0.4109804034233093)
(X_693  0.40705883502960205)
(X_694  0.3835294246673584)
(X_695  0.35607844591140747)
(X_696  0.30901962518692017)
(X_697  0.28156864643096924)
(X_698  0.25019609928131104)
(X_699  0.2423529475927353)
(X_700  0.32235294580459595)
(X_701  0.3458823561668396)
(X_702  0.3811764717102051)
(X_703  0.408627450466156)
(X_704  0.4243137240409851)
(X_705  0.43607842922210693)
(X_706  0.4439215660095215)
(X_707  0.37568628787994385)
(X_708  0.4752941131591797)
(X_709  0.4909803867340088)
(X_710  0.5105882287025452)
(X_711  0.5301960706710815)
(X_712  0.55372554063797)
(X_713  0.5654902458190918)
(X_714  0.5419608354568481)
(X_715  0.5145097970962524)
(X_716  0.42274510860443115)
(X_717  0.434509813785553)
(X_718  0.5066666603088379)
(X_719  0.4909803867340088)
(X_720  0.47921568155288696)
(X_721  0.39137256145477295)
(X_722  0.3717647194862366)
(X_723  0.34431374073028564)
(X_724  0.30901962518692017)
(X_725  0.28156864643096924)
(X_726  0.25019609928131104)
(X_727  0.23843137919902802)
(X_728  0.25019609928131104)
(X_729  0.2698039412498474)
(X_730  0.29333335161209106)
(X_731  0.3968627452850342)
(X_732  0.4125490188598633)
(X_733  0.4243137240409851)
(X_734  0.4399999976158142)
(X_735  0.44784313440322876)
(X_736  0.4596078395843506)
(X_737  0.47921568155288696)
(X_738  0.49882352352142334)
(X_739  0.5105882287025452)
(X_740  0.5301960706710815)
(X_741  0.5419608354568481)
(X_742  0.5184313654899597)
(X_743  0.48313724994659424)
(X_744  0.4870588183403015)
(X_745  0.49882352352142334)
(X_746  0.49490195512771606)
(X_747  0.4752941131591797)
(X_748  0.4596078395843506)
(X_749  0.45176470279693604)
(X_750  0.35607844591140747)
(X_751  0.4125490188598633)
(X_752  0.3050980567932129)
(X_753  0.27764707803726196)
(X_754  0.3301960825920105)
(X_755  0.23450981080532074)
(X_756  0.26196080446243286)
(X_757  0.2737255096435547)
(X_758  0.36941176652908325)
(X_759  0.38509804010391235)
(X_760  0.40078431367874146)
(X_761  0.42039215564727783)
(X_762  0.43215686082839966)
(X_763  0.4399999976158142)
(X_764  0.45176470279693604)
(X_765  0.47921568155288696)
(X_766  0.49882352352142334)
(X_767  0.5027450919151306)
(X_768  0.5184313654899597)
(X_769  0.5341176390647888)
(X_770  0.5066666603088379)
(X_771  0.3796078562736511)
(X_772  0.4713725447654724)
(X_773  0.4870588183403015)
(X_774  0.4909803867340088)
(X_775  0.46745097637176514)
(X_776  0.44784313440322876)
(X_777  0.4399999976158142)
(X_778  0.4243137240409851)
(X_779  0.40470588207244873)
(X_780  0.3811764717102051)
(X_781  0.3576470613479614)
(X_782  0.25019609928131104)
(X_783  0.3105882406234741)
(Y_0 -0.9991964101791382))