((X_0  0.4031372666358948)
(X_1  0.3717647194862366)
(X_2  0.34039217233657837)
(X_3  0.32470589876174927)
(X_4  0.4266666769981384)
(X_5  0.634509801864624)
(X_6  0.6384313702583313)
(X_7  0.42274510860443115)
(X_8  0.4305882453918457)
(X_9  0.6164706349372864)
(X_10  0.6635294556617737)
(X_11  0.6517647504806519)
(X_12  0.667451024055481)
(X_13  0.6792157292366028)
(X_14  0.6831372976303101)
(X_15  0.7066667079925537)
(X_16  0.7066667079925537)
(X_17  0.7380392551422119)
(X_18  0.7380392551422119)
(X_19  0.6713725924491882)
(X_20  0.5811765193939209)
(X_21  0.4188235402107239)
(X_22  0.34431374073028564)
(X_23  0.29333335161209106)
(X_24  0.32862746715545654)
(X_25  0.2266666740179062)
(X_26  0.2988235354423523)
(X_27  0.32235294580459595)
(X_28  0.5027450919151306)
(X_29  0.4713725447654724)
(X_30  0.363921582698822)
(X_31  0.3678431510925293)
(X_32  0.44235295057296753)
(X_33  0.5560784339904785)
(X_34  0.5600000023841858)
(X_35  0.45803922414779663)
(X_36  0.5168627500534058)
(X_37  0.5678431391716003)
(X_38  0.6635294556617737)
(X_39  0.6713725924491882)
(X_40  0.710588276386261)
(X_41  0.7184314131736755)
(X_42  0.7027451395988464)
(X_43  0.7145098447799683)
(X_44  0.7301961183547974)
(X_45  0.7301961183547974)
(X_46  0.6988235712051392)
(X_47  0.5560784339904785)
(X_48  0.5090196132659912)
(X_49  0.4894118010997772)
(X_50  0.4776470959186554)
(X_51  0.45803922414779663)
(X_52  0.32862746715545654)
(X_53  0.24627451598644257)
(X_54  0.3262745141983032)
(X_55  0.3458823561668396)
(X_56  0.46352940797805786)
(X_57  0.3796078562736511)
(X_58  0.37568628787994385)
(X_59  0.4266666769981384)
(X_60  0.5129411816596985)
(X_61  0.5443137288093567)
(X_62  0.5521568655967712)
(X_63  0.5835294127464294)
(X_64  0.5717647075653076)
(X_65  0.5639215707778931)
(X_66  0.6243137717247009)
(X_67  0.6596078872680664)
(X_68  0.7301961183547974)
(X_69  0.7341176867485046)
(X_70  0.7027451395988464)
(X_71  0.7066667079925537)
(X_72  0.634509801864624)
(X_73  0.7223529815673828)
(X_74  0.7145098447799683)
(X_75  0.6792157292366028)
(X_76  0.5678431391716003)
(X_77  0.5364705920219421)
(X_78  0.5011764764785767)
(X_79  0.46980395913124084)
(X_80  0.3521568775177002)
(X_81  0.38509804010391235)
(X_82  0.38901960849761963)
(X_83  0.408627450466156)
(X_84  0.3968627452850342)
(X_85  0.3521568775177002)
(X_86  0.3678431510925293)
(X_87  0.45411765575408936)
(X_88  0.6556863188743591)
(X_89  0.5835294127464294)
(X_90  0.5678431391716003)
(X_91  0.710588276386261)
(X_92  0.6360784769058228)
(X_93  0.6007843613624573)
(X_94  0.5694118142127991)
(X_95  0.548235297203064)
(X_96  0.6423529386520386)
(X_97  0.6541176438331604)
(X_98  0.6266666650772095)
(X_99  0.6462745070457458)
(X_100  0.7223529815673828)
(X_101  0.7380392551422119)
(X_102  0.7341176867485046)
(X_103  0.7066667079925537)
(X_104  0.6556863188743591)
(X_105  0.6047059297561646)
(X_106  0.5654902458190918)
(X_107  0.5458824038505554)
(X_108  0.4501960873603821)
(X_109  0.5066666603088379)
(X_110  0.4870588183403015)
(X_111  0.4713725447654724)
(X_112  0.365490198135376)
(X_113  0.4282352924346924)
(X_114  0.3717647194862366)
(X_115  0.4501960873603821)
(X_116  0.5796078443527222)
(X_117  0.6713725924491882)
(X_118  0.6125490665435791)
(X_119  0.6164706349372864)
(X_120  0.5811765193939209)
(X_121  0.5615686774253845)
(X_122  0.5458824038505554)
(X_123  0.5286274552345276)
(X_124  0.6227450966835022)
(X_125  0.6462745070457458)
(X_126  0.6501960754394531)
(X_127  0.6933333277702332)
(X_128  0.7694118022918701)
(X_129  0.7380392551422119)
(X_130  0.6831372976303101)
(X_131  0.6125490665435791)
(X_132  0.5615686774253845)
(X_133  0.5694118142127991)
(X_134  0.6243137717247009)
(X_135  0.6831372976303101)
(X_136  0.5560784339904785)
(X_137  0.6282353401184082)
(X_138  0.5694118142127991)
(X_139  0.49882352352142334)
(X_140  0.28156864643096924)
(X_141  0.4282352924346924)
(X_142  0.48313724994659424)
(X_143  0.4737255275249481)
(X_144  0.5639215707778931)
(X_145  0.6635294556617737)
(X_146  0.6047059297561646)
(X_147  0.5576471090316772)
(X_148  0.5380392074584961)
(X_149  0.5458824038505554)
(X_150  0.5458824038505554)
(X_151  0.5090196132659912)
(X_152  0.591372549533844)
(X_153  0.6305882334709167)
(X_154  0.7301961183547974)
(X_155  0.7772549390792847)
(X_156  0.7694118022918701)
(X_157  0.7027451395988464)
(X_158  0.6086274981498718)
(X_159  0.5262745022773743)
(X_160  0.48313724994659424)
(X_161  0.5066666603088379)
(X_162  0.59686279296875)
(X_163  0.6831372976303101)
(X_164  0.6517647504806519)
(X_165  0.6752941608428955)
(X_166  0.6047059297561646)
(X_167  0.5105882287025452)
(X_168  0.365490198135376)
(X_169  0.41647058725357056)
(X_170  0.5262745022773743)
(X_171  0.6047059297561646)
(X_172  0.6125490665435791)
(X_173  0.6086274981498718)
(X_174  0.6047059297561646)
(X_175  0.5733333826065063)
(X_176  0.5498039722442627)
(X_177  0.5011764764785767)
(X_178  0.4972549378871918)
(X_179  0.5090196132659912)
(X_180  0.5756862759590149)
(X_181  0.6266666650772095)
(X_182  0.6423529386520386)
(X_183  0.7458823919296265)
(X_184  0.7576470971107483)
(X_185  0.6713725924491882)
(X_186  0.5694118142127991)
(X_187  0.49882352352142334)
(X_188  0.46352940797805786)
(X_189  0.4596078395843506)
(X_190  0.49490195512771606)
(X_191  0.5419608354568481)
(X_192  0.6086274981498718)
(X_193  0.6635294556617737)
(X_194  0.6007843613624573)
(X_195  0.5105882287025452)
(X_196  0.38509804010391235)
(X_197  0.41647058725357056)
(X_198  0.5576471090316772)
(X_199  0.64000004529953)
(X_200  0.5615686774253845)
(X_201  0.5145097970962524)
(X_202  0.5498039722442627)
(X_203  0.5615686774253845)
(X_204  0.6086274981498718)
(X_205  0.5639215707778931)
(X_206  0.548235297203064)
(X_207  0.5364705920219421)
(X_208  0.5992156863212585)
(X_209  0.7301961183547974)
(X_210  0.7341176867485046)
(X_211  0.7341176867485046)
(X_212  0.7129411697387695)
(X_213  0.6752941608428955)
(X_214  0.5419608354568481)
(X_215  0.4752941131591797)
(X_216  0.45176470279693604)
(X_217  0.45176470279693604)
(X_218  0.46745097637176514)
(X_219  0.4909803867340088)
(X_220  0.5890196561813354)
(X_221  0.6635294556617737)
(X_222  0.59686279296875)
(X_223  0.49882352352142334)
(X_224  0.3772549033164978)
(X_225  0.5301960706710815)
(X_226  0.6321569085121155)
(X_227  0.6086274981498718)
(X_228  0.5341176390647888)
(X_229  0.4439215660095215)
(X_230  0.32862746715545654)
(X_231  0.36000001430511475)
(X_232  0.44235295057296753)
(X_233  0.5050980448722839)
(X_234  0.5678431391716003)
(X_235  0.5952941179275513)
(X_236  0.6188235282897949)
(X_237  0.7380392551422119)
(X_238  0.7615686655044556)
(X_239  0.6854901909828186)
(X_240  0.6815686225891113)
(X_241  0.6188235282897949)
(X_242  0.5286274552345276)
(X_243  0.4501960873603821)
(X_244  0.4870588183403015)
(X_245  0.47921568155288696)
(X_246  0.5027450919151306)
(X_247  0.5301960706710815)
(X_248  0.5811765193939209)
(X_249  0.6282353401184082)
(X_250  0.6203922033309937)
(X_251  0.5380392074584961)
(X_252  0.4596078395843506)
(X_253  0.55372554063797)
(X_254  0.5733333826065063)
(X_255  0.5262745022773743)
(X_256  0.5027450919151306)
(X_257  0.48313724994659424)
(X_258  0.45176470279693604)
(X_259  0.363921582698822)
(X_260  0.4501960873603821)
(X_261  0.4933333694934845)
(X_262  0.5364705920219421)
(X_263  0.5678431391716003)
(X_264  0.6149019598960876)
(X_265  0.7458823919296265)
(X_266  0.7772549390792847)
(X_267  0.7011764645576477)
(X_268  0.6658823490142822)
(X_269  0.6188235282897949)
(X_270  0.5678431391716003)
(X_271  0.5286274552345276)
(X_272  0.48156866431236267)
(X_273  0.5105882287025452)
(X_274  0.4870588183403015)
(X_275  0.4909803867340088)
(X_276  0.5145097970962524)
(X_277  0.5811765193939209)
(X_278  0.6125490665435791)
(X_279  0.5772549510002136)
(X_280  0.45411765575408936)
(X_281  0.5011764764785767)
(X_282  0.5380392074584961)
(X_283  0.46352940797805786)
(X_284  0.4556862711906433)
(X_285  0.4752941131591797)
(X_286  0.39137256145477295)
(X_287  0.3952941298484802)
(X_288  0.4933333694934845)
(X_289  0.5050980448722839)
(X_290  0.520784318447113)
(X_291  0.5560784339904785)
(X_292  0.6227450966835022)
(X_293  0.7654902338981628)
(X_294  0.7929412126541138)
(X_295  0.7129411697387695)
(X_296  0.6658823490142822)
(X_297  0.6188235282897949)
(X_298  0.5952941179275513)
(X_299  0.5952941179275513)
(X_300  0.5521568655967712)
(X_301  0.46588239073753357)
(X_302  0.4909803867340088)
(X_303  0.4909803867340088)
(X_304  0.5105882287025452)
(X_305  0.5772549510002136)
(X_306  0.6282353401184082)
(X_307  0.6243137717247009)
(X_308  0.4776470959186554)
(X_309  0.4972549378871918)
(X_310  0.5380392074584961)
(X_311  0.47921568155288696)
(X_312  0.44784313440322876)
(X_313  0.3521568775177002)
(X_314  0.3796078562736511)
(X_315  0.4501960873603821)
(X_316  0.5443137288093567)
(X_317  0.5325490236282349)
(X_318  0.5403921604156494)
(X_319  0.5835294127464294)
(X_320  0.6541176438331604)
(X_321  0.7890196442604065)
(X_322  0.7207843065261841)
(X_323  0.705098032951355)
(X_324  0.6854901909828186)
(X_325  0.6266666650772095)
(X_326  0.6031372547149658)
(X_327  0.6149019598960876)
(X_328  0.5796078443527222)
(X_329  0.4894118010997772)
(X_330  0.5184313654899597)
(X_331  0.522352933883667)
(X_332  0.5458824038505554)
(X_333  0.5850980877876282)
(X_334  0.6243137717247009)
(X_335  0.6360784769058228)
(X_336  0.46980395913124084)
(X_337  0.4462745189666748)
(X_338  0.49882352352142334)
(X_339  0.5145097970962524)
(X_340  0.5105882287025452)
(X_341  0.37568628787994385)
(X_342  0.3952941298484802)
(X_343  0.4972549378871918)
(X_344  0.5443137288093567)
(X_345  0.5403921604156494)
(X_346  0.5600000023841858)
(X_347  0.6188235282897949)
(X_348  0.6894117593765259)
(X_349  0.8086274862289429)
(X_350  0.8007843494415283)
(X_351  0.7850980758666992)
(X_352  0.7011764645576477)
(X_353  0.6462745070457458)
(X_354  0.6188235282897949)
(X_355  0.6266666650772095)
(X_356  0.5952941179275513)
(X_357  0.5129411816596985)
(X_358  0.45411765575408936)
(X_359  0.5262745022773743)
(X_360  0.5262745022773743)
(X_361  0.5498039722442627)
(X_362  0.59686279296875)
(X_363  0.6360784769058228)
(X_364  0.4462745189666748)
(X_365  0.46352940797805786)
(X_366  0.4243137240409851)
(X_367  0.4870588183403015)
(X_368  0.4776470959186554)
(X_369  0.4501960873603821)
(X_370  0.4462745189666748)
(X_371  0.5168627500534058)
(X_372  0.5129411816596985)
(X_373  0.5247058868408203)
(X_374  0.5717647075653076)
(X_375  0.6501960754394531)
(X_376  0.7129411697387695)
(X_377  0.8125490546226501)
(X_378  0.8047059178352356)
(X_379  0.796862781047821)
(X_380  0.7772549390792847)
(X_381  0.6737254858016968)
(X_382  0.6580392122268677)
(X_383  0.6580392122268677)
(X_384  0.6266666650772095)
(X_385  0.5521568655967712)
(X_386  0.4737255275249481)
(X_387  0.42274510860443115)
(X_388  0.49882352352142334)
(X_389  0.5184313654899597)
(X_390  0.5772549510002136)
(X_391  0.6517647504806519)
(X_392  0.3796078562736511)
(X_393  0.43607842922210693)
(X_394  0.38901960849761963)
(X_395  0.32862746715545654)
(X_396  0.4109804034233093)
(X_397  0.45411765575408936)
(X_398  0.4737255275249481)
(X_399  0.520784318447113)
(X_400  0.5011764764785767)
(X_401  0.5325490236282349)
(X_402  0.6031372547149658)
(X_403  0.6815686225891113)
(X_404  0.8047059178352356)
(X_405  0.8047059178352356)
(X_406  0.8047059178352356)
(X_407  0.8125490546226501)
(X_408  0.6854901909828186)
(X_409  0.6894117593765259)
(X_410  0.6854901909828186)
(X_411  0.6658823490142822)
(X_412  0.6501960754394531)
(X_413  0.6070588231086731)
(X_414  0.5286274552345276)
(X_415  0.45411765575408936)
(X_416  0.45803922414779663)
(X_417  0.5262745022773743)
(X_418  0.5576471090316772)
(X_419  0.6282353401184082)
(X_420  0.31294119358062744)
(X_421  0.4439215660095215)
(X_422  0.408627450466156)
(X_423  0.26588237285614014)
(X_424  0.3011764883995056)
(X_425  0.39137256145477295)
(X_426  0.46588239073753357)
(X_427  0.520784318447113)
(X_428  0.5247058868408203)
(X_429  0.5639215707778931)
(X_430  0.6384313702583313)
(X_431  0.7090196013450623)
(X_432  0.7286274433135986)
(X_433  0.796862781047821)
(X_434  0.8007843494415283)
(X_435  0.824313759803772)
(X_436  0.7654902338981628)
(X_437  0.7011764645576477)
(X_438  0.6854901909828186)
(X_439  0.6501960754394531)
(X_440  0.6462745070457458)
(X_441  0.7301961183547974)
(X_442  0.5952941179275513)
(X_443  0.520784318447113)
(X_444  0.5168627500534058)
(X_445  0.5458824038505554)
(X_446  0.5262745022773743)
(X_447  0.5576471090316772)
(X_448  0.3050980567932129)
(X_449  0.38901960849761963)
(X_450  0.38509804010391235)
(X_451  0.29333335161209106)
(X_452  0.2894117832183838)
(X_453  0.32470589876174927)
(X_454  0.39137256145477295)
(X_455  0.4462745189666748)
(X_456  0.5011764764785767)
(X_457  0.5639215707778931)
(X_458  0.6462745070457458)
(X_459  0.7090196013450623)
(X_460  0.8164706230163574)
(X_461  0.8125490546226501)
(X_462  0.8086274862289429)
(X_463  0.7286274433135986)
(X_464  0.6854901909828186)
(X_465  0.6658823490142822)
(X_466  0.6698039174079895)
(X_467  0.6854901909828186)
(X_468  0.677647054195404)
(X_469  0.634509801864624)
(X_470  0.5952941179275513)
(X_471  0.5874509811401367)
(X_472  0.5247058868408203)
(X_473  0.4909803867340088)
(X_474  0.46352940797805786)
(X_475  0.5027450919151306)
(X_476  0.26196080446243286)
(X_477  0.3576470613479614)
(X_478  0.2894117832183838)
(X_479  0.29725492000579834)
(X_480  0.30901962518692017)
(X_481  0.3482353091239929)
(X_482  0.4109804034233093)
(X_483  0.4619608223438263)
(X_484  0.520784318447113)
(X_485  0.5796078443527222)
(X_486  0.6580392122268677)
(X_487  0.7129411697387695)
(X_488  0.7325490117073059)
(X_489  0.8125490546226501)
(X_490  0.8047059178352356)
(X_491  0.8047059178352356)
(X_492  0.7615686655044556)
(X_493  0.6658823490142822)
(X_494  0.6698039174079895)
(X_495  0.6933333277702332)
(X_496  0.6854901909828186)
(X_497  0.6423529386520386)
(X_498  0.6031372547149658)
(X_499  0.5874509811401367)
(X_500  0.5168627500534058)
(X_501  0.4109804034233093)
(X_502  0.4752941131591797)
(X_503  0.5341176390647888)
(X_504  0.3145098090171814)
(X_505  0.3419607877731323)
(X_506  0.29725492000579834)
(X_507  0.32470589876174927)
(X_508  0.3521568775177002)
(X_509  0.3952941298484802)
(X_510  0.4501960873603821)
(X_511  0.4894118010997772)
(X_512  0.5560784339904785)
(X_513  0.6031372547149658)
(X_514  0.6698039174079895)
(X_515  0.7168627381324768)
(X_516  0.7364705801010132)
(X_517  0.8086274862289429)
(X_518  0.8007843494415283)
(X_519  0.796862781047821)
(X_520  0.6698039174079895)
(X_521  0.661960780620575)
(X_522  0.6737254858016968)
(X_523  0.6972548961639404)
(X_524  0.6933333277702332)
(X_525  0.6580392122268677)
(X_526  0.6109803915023804)
(X_527  0.5835294127464294)
(X_528  0.5050980448722839)
(X_529  0.3874509930610657)
(X_530  0.4399999976158142)
(X_531  0.5027450919151306)
(X_532  0.3968627452850342)
(X_533  0.4282352924346924)
(X_534  0.4752941131591797)
(X_535  0.434509813785553)
(X_536  0.46588239073753357)
(X_537  0.4972549378871918)
(X_538  0.5364705920219421)
(X_539  0.5639215707778931)
(X_540  0.5992156863212585)
(X_541  0.634509801864624)
(X_542  0.6854901909828186)
(X_543  0.7247058749198914)
(X_544  0.7364705801010132)
(X_545  0.8086274862289429)
(X_546  0.796862781047821)
(X_547  0.7890196442604065)
(X_548  0.6580392122268677)
(X_549  0.6580392122268677)
(X_550  0.6737254858016968)
(X_551  0.6933333277702332)
(X_552  0.6972548961639404)
(X_553  0.6658823490142822)
(X_554  0.6149019598960876)
(X_555  0.5717647075653076)
(X_556  0.5756862759590149)
(X_557  0.4305882453918457)
(X_558  0.4399999976158142)
(X_559  0.4713725447654724)
(X_560  0.5576471090316772)
(X_561  0.5890196561813354)
(X_562  0.5521568655967712)
(X_563  0.5835294127464294)
(X_564  0.6070588231086731)
(X_565  0.6227450966835022)
(X_566  0.6423529386520386)
(X_567  0.6541176438331604)
(X_568  0.6384313702583313)
(X_569  0.6658823490142822)
(X_570  0.705098032951355)
(X_571  0.7325490117073059)
(X_572  0.7364705801010132)
(X_573  0.8086274862289429)
(X_574  0.7929412126541138)
(X_575  0.7811765074729919)
(X_576  0.6541176438331604)
(X_577  0.6580392122268677)
(X_578  0.6698039174079895)
(X_579  0.6894117593765259)
(X_580  0.6972548961639404)
(X_581  0.6737254858016968)
(X_582  0.6149019598960876)
(X_583  0.5600000023841858)
(X_584  0.548235297203064)
(X_585  0.3952941298484802)
(X_586  0.3968627452850342)
(X_587  0.42039215564727783)
(X_588  0.6792157292366028)
(X_589  0.6988235712051392)
(X_590  0.6501960754394531)
(X_591  0.753725528717041)
(X_592  0.7615686655044556)
(X_593  0.7654902338981628)
(X_594  0.7694118022918701)
(X_595  0.7733333706855774)
(X_596  0.753725528717041)
(X_597  0.6933333277702332)
(X_598  0.7168627381324768)
(X_599  0.7364705801010132)
(X_600  0.7403921484947205)
(X_601  0.8125490546226501)
(X_602  0.7929412126541138)
(X_603  0.7811765074729919)
(X_604  0.661960780620575)
(X_605  0.6698039174079895)
(X_606  0.677647054195404)
(X_607  0.6854901909828186)
(X_608  0.6972548961639404)
(X_609  0.6815686225891113)
(X_610  0.6188235282897949)
(X_611  0.5560784339904785)
(X_612  0.5027450919151306)
(X_613  0.38901960849761963)
(X_614  0.365490198135376)
(X_615  0.4282352924346924)
(X_616  0.7341176867485046)
(X_617  0.7458823919296265)
(X_618  0.7654902338981628)
(X_619  0.7772549390792847)
(X_620  0.7850980758666992)
(X_621  0.7811765074729919)
(X_622  0.7811765074729919)
(X_623  0.7772549390792847)
(X_624  0.7011764645576477)
(X_625  0.7890196442604065)
(X_626  0.7247058749198914)
(X_627  0.7403921484947205)
(X_628  0.7443137168884277)
(X_629  0.8125490546226501)
(X_630  0.7168627381324768)
(X_631  0.705098032951355)
(X_632  0.6815686225891113)
(X_633  0.6854901909828186)
(X_634  0.6854901909828186)
(X_635  0.6894117593765259)
(X_636  0.7011764645576477)
(X_637  0.6894117593765259)
(X_638  0.6305882334709167)
(X_639  0.5600000023841858)
(X_640  0.4870588183403015)
(X_641  0.3968627452850342)
(X_642  0.40078431367874146)
(X_643  0.4870588183403015)
(X_644  0.7654902338981628)
(X_645  0.7733333706855774)
(X_646  0.7890196442604065)
(X_647  0.796862781047821)
(X_648  0.8007843494415283)
(X_649  0.8007843494415283)
(X_650  0.8007843494415283)
(X_651  0.7168627381324768)
(X_652  0.7129411697387695)
(X_653  0.7168627381324768)
(X_654  0.7286274433135986)
(X_655  0.8203921914100647)
(X_656  0.824313759803772)
(X_657  0.8164706230163574)
(X_658  0.8007843494415283)
(X_659  0.7850980758666992)
(X_660  0.6972548961639404)
(X_661  0.7011764645576477)
(X_662  0.6972548961639404)
(X_663  0.6933333277702332)
(X_664  0.7850980758666992)
(X_665  0.7011764645576477)
(X_666  0.6384313702583313)
(X_667  0.5678431391716003)
(X_668  0.4109804034233093)
(X_669  0.30901962518692017)
(X_670  0.3733333349227905)
(X_671  0.4282352924346924)
(X_672  0.7694118022918701)
(X_673  0.7733333706855774)
(X_674  0.7811765074729919)
(X_675  0.7890196442604065)
(X_676  0.796862781047821)
(X_677  0.7207843065261841)
(X_678  0.8007843494415283)
(X_679  0.8007843494415283)
(X_680  0.7850980758666992)
(X_681  0.8086274862289429)
(X_682  0.7443137168884277)
(X_683  0.824313759803772)
(X_684  0.824313759803772)
(X_685  0.8282353281974792)
(X_686  0.8164706230163574)
(X_687  0.796862781047821)
(X_688  0.7090196013450623)
(X_689  0.7129411697387695)
(X_690  0.7168627381324768)
(X_691  0.8007843494415283)
(X_692  0.7207843065261841)
(X_693  0.705098032951355)
(X_694  0.6698039174079895)
(X_695  0.634509801864624)
(X_696  0.5796078443527222)
(X_697  0.4501960873603821)
(X_698  0.320784330368042)
(X_699  0.2894117832183838)
(X_700  0.7733333706855774)
(X_701  0.7772549390792847)
(X_702  0.7850980758666992)
(X_703  0.7890196442604065)
(X_704  0.796862781047821)
(X_705  0.796862781047821)
(X_706  0.796862781047821)
(X_707  0.7168627381324768)
(X_708  0.7850980758666992)
(X_709  0.8086274862289429)
(X_710  0.824313759803772)
(X_711  0.8203921914100647)
(X_712  0.8203921914100647)
(X_713  0.824313759803772)
(X_714  0.8086274862289429)
(X_715  0.7850980758666992)
(X_716  0.7325490117073059)
(X_717  0.7286274433135986)
(X_718  0.8007843494415283)
(X_719  0.796862781047821)
(X_720  0.8007843494415283)
(X_721  0.7129411697387695)
(X_722  0.6894117593765259)
(X_723  0.6658823490142822)
(X_724  0.6305882334709167)
(X_725  0.5286274552345276)
(X_726  0.4188235402107239)
(X_727  0.3717647194862366)
(X_728  0.7011764645576477)
(X_729  0.705098032951355)
(X_730  0.7090196013450623)
(X_731  0.7929412126541138)
(X_732  0.7929412126541138)
(X_733  0.7929412126541138)
(X_734  0.7929412126541138)
(X_735  0.7929412126541138)
(X_736  0.7890196442604065)
(X_737  0.8086274862289429)
(X_738  0.824313759803772)
(X_739  0.8203921914100647)
(X_740  0.8164706230163574)
(X_741  0.8125490546226501)
(X_742  0.796862781047821)
(X_743  0.7733333706855774)
(X_744  0.8007843494415283)
(X_745  0.7811765074729919)
(X_746  0.7654902338981628)
(X_747  0.7615686655044556)
(X_748  0.7654902338981628)
(X_749  0.7654902338981628)
(X_750  0.677647054195404)
(X_751  0.7498039603233337)
(X_752  0.6737254858016968)
(X_753  0.6070588231086731)
(X_754  0.6086274981498718)
(X_755  0.4737255275249481)
(X_756  0.7090196013450623)
(X_757  0.7129411697387695)
(X_758  0.7929412126541138)
(X_759  0.796862781047821)
(X_760  0.796862781047821)
(X_761  0.7929412126541138)
(X_762  0.7890196442604065)
(X_763  0.7890196442604065)
(X_764  0.7890196442604065)
(X_765  0.8125490546226501)
(X_766  0.824313759803772)
(X_767  0.8203921914100647)
(X_768  0.8125490546226501)
(X_769  0.8047059178352356)
(X_770  0.7850980758666992)
(X_771  0.677647054195404)
(X_772  0.7733333706855774)
(X_773  0.7458823919296265)
(X_774  0.7301961183547974)
(X_775  0.7341176867485046)
(X_776  0.7419608235359192)
(X_777  0.7380392551422119)
(X_778  0.7341176867485046)
(X_779  0.7341176867485046)
(X_780  0.753725528717041)
(X_781  0.7145098447799683)
(X_782  0.5796078443527222)
(X_783  0.6125490665435791)
(Y_0 -0.5227313041687012))