((X_0  0.19118422269821167)
(X_1  0.1860051155090332)
(X_2  0.2224348485469818)
(X_3  0.18516236543655396)
(X_4  0.1690817028284073)
(X_5  0.2281787097454071)
(X_6  0.24585963785648346)
(X_7  0.2481033056974411)
(X_8  0.3344498872756958)
(X_9  0.43725067377090454)
(X_10  0.5657008290290833)
(X_11  0.6147847771644592)
(X_12  0.6898662447929382)
(X_13  0.6805574893951416)
(X_14  0.6902090907096863)
(X_15  0.6995836496353149)
(X_16  0.7282219529151917)
(X_17  0.7217826843261719)
(X_18  0.7683066129684448)
(X_19  0.7585559487342834)
(X_20  0.7296584844589233)
(X_21  0.795914351940155)
(X_22  0.7590051889419556)
(X_23  0.727453887462616)
(X_24  0.595603883266449)
(X_25  0.40220388770103455)
(X_26  0.30095067620277405)
(X_27  0.23061183094978333)
(X_28  0.2812700569629669)
(X_29  0.21773919463157654)
(X_30  0.2315848469734192)
(X_31  0.246660977602005)
(X_32  0.25557929277420044)
(X_33  0.30702799558639526)
(X_34  0.3869789242744446)
(X_35  0.402108758687973)
(X_36  0.47136369347572327)
(X_37  0.4579892158508301)
(X_38  0.5682080388069153)
(X_39  0.5971141457557678)
(X_40  0.6342779397964478)
(X_41  0.6563416123390198)
(X_42  0.6588487029075623)
(X_43  0.7048068046569824)
(X_44  0.6650332808494568)
(X_45  0.6989712715148926)
(X_46  0.7319058179855347)
(X_47  0.7619161009788513)
(X_48  0.7317876219749451)
(X_49  0.7188486456871033)
(X_50  0.6786279082298279)
(X_51  0.6447999477386475)
(X_52  0.4087458848953247)
(X_53  0.36482828855514526)
(X_54  0.2673579752445221)
(X_55  0.20944726467132568)
(X_56  0.35120999813079834)
(X_57  0.27905088663101196)
(X_58  0.2877865135669708)
(X_59  0.36497339606285095)
(X_60  0.3217660188674927)
(X_61  0.34332579374313354)
(X_62  0.4637671709060669)
(X_63  0.504225492477417)
(X_64  0.5878417491912842)
(X_65  0.5387536287307739)
(X_66  0.5660017728805542)
(X_67  0.6032077670097351)
(X_68  0.6204548478126526)
(X_69  0.6225506663322449)
(X_70  0.6263828277587891)
(X_71  0.6703592538833618)
(X_72  0.642569899559021)
(X_73  0.6504538655281067)
(X_74  0.683033287525177)
(X_75  0.6923235654830933)
(X_76  0.7122490406036377)
(X_77  0.6874161958694458)
(X_78  0.6092308163642883)
(X_79  0.5568550229072571)
(X_80  0.33784401416778564)
(X_81  0.3138975501060486)
(X_82  0.32896503806114197)
(X_83  0.2747242748737335)
(X_84  0.3994070589542389)
(X_85  0.33906280994415283)
(X_86  0.40096861124038696)
(X_87  0.3934766352176666)
(X_88  0.4196820855140686)
(X_89  0.36277061700820923)
(X_90  0.5217105746269226)
(X_91  0.5617460608482361)
(X_92  0.637641966342926)
(X_93  0.582137942314148)
(X_94  0.6039323210716248)
(X_95  0.6312733292579651)
(X_96  0.6963018178939819)
(X_97  0.6705431342124939)
(X_98  0.6994327306747437)
(X_99  0.6391323208808899)
(X_100  0.6723167300224304)
(X_101  0.640928328037262)
(X_102  0.6347781419754028)
(X_103  0.6483280658721924)
(X_104  0.7348738312721252)
(X_105  0.6519776582717896)
(X_106  0.5759890079498291)
(X_107  0.524488627910614)
(X_108  0.4317615032196045)
(X_109  0.4518023729324341)
(X_110  0.39451661705970764)
(X_111  0.4101563096046448)
(X_112  0.5063401460647583)
(X_113  0.4177234172821045)
(X_114  0.4569895565509796)
(X_115  0.5255439877510071)
(X_116  0.5602093935012817)
(X_117  0.5082569718360901)
(X_118  0.6050215363502502)
(X_119  0.6405597925186157)
(X_120  0.620858907699585)
(X_121  0.5951552391052246)
(X_122  0.6152774095535278)
(X_123  0.6513525247573853)
(X_124  0.6708179712295532)
(X_125  0.705161988735199)
(X_126  0.7272908687591553)
(X_127  0.7126990556716919)
(X_128  0.7015067934989929)
(X_129  0.6593897938728333)
(X_130  0.5654380321502686)
(X_131  0.5701983571052551)
(X_132  0.6480245590209961)
(X_133  0.6844130158424377)
(X_134  0.6014256477355957)
(X_135  0.5361882448196411)
(X_136  0.592792272567749)
(X_137  0.4955633580684662)
(X_138  0.46959781646728516)
(X_139  0.37520119547843933)
(X_140  0.4888000786304474)
(X_141  0.4483833611011505)
(X_142  0.45812007784843445)
(X_143  0.5498719215393066)
(X_144  0.5918840169906616)
(X_145  0.6036832332611084)
(X_146  0.665172815322876)
(X_147  0.5919420123100281)
(X_148  0.5220887064933777)
(X_149  0.5502184629440308)
(X_150  0.5022103786468506)
(X_151  0.6210490465164185)
(X_152  0.6715253591537476)
(X_153  0.6742931008338928)
(X_154  0.7297000885009766)
(X_155  0.7451815009117126)
(X_156  0.6599233150482178)
(X_157  0.5820286870002747)
(X_158  0.5114999413490295)
(X_159  0.5291133522987366)
(X_160  0.5526527166366577)
(X_161  0.6843202114105225)
(X_162  0.6588290929794312)
(X_163  0.5974968671798706)
(X_164  0.5839971303939819)
(X_165  0.4924217164516449)
(X_166  0.4503301680088043)
(X_167  0.3422827124595642)
(X_168  0.4265745282173157)
(X_169  0.3948390781879425)
(X_170  0.5289021730422974)
(X_171  0.5746769905090332)
(X_172  0.6195907592773438)
(X_173  0.6015042066574097)
(X_174  0.6166900992393494)
(X_175  0.5566986799240112)
(X_176  0.5138661861419678)
(X_177  0.45059439539909363)
(X_178  0.46639055013656616)
(X_179  0.6468873620033264)
(X_180  0.7342318892478943)
(X_181  0.7390792965888977)
(X_182  0.7412822246551514)
(X_183  0.768861711025238)
(X_184  0.7138339877128601)
(X_185  0.6190887093544006)
(X_186  0.521273672580719)
(X_187  0.4342074394226074)
(X_188  0.554535984992981)
(X_189  0.6371593475341797)
(X_190  0.6730819344520569)
(X_191  0.6977378726005554)
(X_192  0.615125298500061)
(X_193  0.5562987923622131)
(X_194  0.4637782871723175)
(X_195  0.4092194437980652)
(X_196  0.4001826047897339)
(X_197  0.41133177280426025)
(X_198  0.5268639326095581)
(X_199  0.6024727821350098)
(X_200  0.5829737186431885)
(X_201  0.6572997570037842)
(X_202  0.6135604977607727)
(X_203  0.4947878122329712)
(X_204  0.46475672721862793)
(X_205  0.44676822423934937)
(X_206  0.47530072927474976)
(X_207  0.6013140678405762)
(X_208  0.7233834266662598)
(X_209  0.7406014204025269)
(X_210  0.7334539294242859)
(X_211  0.7272735238075256)
(X_212  0.6943129897117615)
(X_213  0.600628137588501)
(X_214  0.5091935396194458)
(X_215  0.3938707411289215)
(X_216  0.4318044185638428)
(X_217  0.5508356690406799)
(X_218  0.6841051578521729)
(X_219  0.6318260431289673)
(X_220  0.6116918325424194)
(X_221  0.5203888416290283)
(X_222  0.4324086308479309)
(X_223  0.3770492374897003)
(X_224  0.37504157423973083)
(X_225  0.43732625246047974)
(X_226  0.4996514618396759)
(X_227  0.634929358959198)
(X_228  0.66495680809021)
(X_229  0.6446847915649414)
(X_230  0.5824646949768066)
(X_231  0.4823893904685974)
(X_232  0.44484663009643555)
(X_233  0.4487549960613251)
(X_234  0.4085755944252014)
(X_235  0.5452290177345276)
(X_236  0.6582512259483337)
(X_237  0.7104991674423218)
(X_238  0.775070071220398)
(X_239  0.7064333558082581)
(X_240  0.6742074489593506)
(X_241  0.6119608283042908)
(X_242  0.4405849277973175)
(X_243  0.3738000988960266)
(X_244  0.42701321840286255)
(X_245  0.47441551089286804)
(X_246  0.6655401587486267)
(X_247  0.7238770723342896)
(X_248  0.6577802300453186)
(X_249  0.5528002381324768)
(X_250  0.44832485914230347)
(X_251  0.45727258920669556)
(X_252  0.34776395559310913)
(X_253  0.42201048135757446)
(X_254  0.5043612718582153)
(X_255  0.6601248979568481)
(X_256  0.6378836035728455)
(X_257  0.6422677040100098)
(X_258  0.5547178983688354)
(X_259  0.47913140058517456)
(X_260  0.4531327486038208)
(X_261  0.45898866653442383)
(X_262  0.45188698172569275)
(X_263  0.5758620500564575)
(X_264  0.6630646586418152)
(X_265  0.7525661587715149)
(X_266  0.7380451560020447)
(X_267  0.7064627408981323)
(X_268  0.6788241863250732)
(X_269  0.5913603901863098)
(X_270  0.5362745523452759)
(X_271  0.4570661187171936)
(X_272  0.37551349401474)
(X_273  0.4197336435317993)
(X_274  0.5603160858154297)
(X_275  0.6333555579185486)
(X_276  0.6372550129890442)
(X_277  0.5579481720924377)
(X_278  0.47959673404693604)
(X_279  0.4695768654346466)
(X_280  0.3453711271286011)
(X_281  0.4502711594104767)
(X_282  0.5571330785751343)
(X_283  0.641533613204956)
(X_284  0.6325936913490295)
(X_285  0.5574445128440857)
(X_286  0.4515904188156128)
(X_287  0.44671353697776794)
(X_288  0.45292747020721436)
(X_289  0.47009339928627014)
(X_290  0.5087408423423767)
(X_291  0.5918113589286804)
(X_292  0.6983698010444641)
(X_293  0.7370548844337463)
(X_294  0.7316445708274841)
(X_295  0.7619601488113403)
(X_296  0.6915837526321411)
(X_297  0.7065650224685669)
(X_298  0.6280092597007751)
(X_299  0.5281848907470703)
(X_300  0.4372391700744629)
(X_301  0.36397168040275574)
(X_302  0.48629117012023926)
(X_303  0.6496089696884155)
(X_304  0.7124872803688049)
(X_305  0.5791942477226257)
(X_306  0.4531862139701843)
(X_307  0.4012899100780487)
(X_308  0.3171767294406891)
(X_309  0.4119489789009094)
(X_310  0.5726035237312317)
(X_311  0.6780502200126648)
(X_312  0.6382426619529724)
(X_313  0.5346082448959351)
(X_314  0.4619254767894745)
(X_315  0.4154956042766571)
(X_316  0.4569675922393799)
(X_317  0.4840869605541229)
(X_318  0.5041157007217407)
(X_319  0.6121928691864014)
(X_320  0.7294829487800598)
(X_321  0.7447836399078369)
(X_322  0.7504072785377502)
(X_323  0.7391488552093506)
(X_324  0.7201945185661316)
(X_325  0.6543029546737671)
(X_326  0.6758146286010742)
(X_327  0.6035259962081909)
(X_328  0.5116299986839294)
(X_329  0.4108155071735382)
(X_330  0.4691549837589264)
(X_331  0.6672611832618713)
(X_332  0.7026180028915405)
(X_333  0.6458012461662292)
(X_334  0.4914131462574005)
(X_335  0.3724403977394104)
(X_336  0.31419071555137634)
(X_337  0.3993072807788849)
(X_338  0.5673848390579224)
(X_339  0.6615482568740845)
(X_340  0.6283138394355774)
(X_341  0.5210517644882202)
(X_342  0.48708927631378174)
(X_343  0.4460783302783966)
(X_344  0.3990280330181122)
(X_345  0.4634634554386139)
(X_346  0.5283005237579346)
(X_347  0.5873810648918152)
(X_348  0.7256309390068054)
(X_349  0.7234541177749634)
(X_350  0.7557793855667114)
(X_351  0.7579978108406067)
(X_352  0.6710878610610962)
(X_353  0.6781079769134521)
(X_354  0.6688234210014343)
(X_355  0.7037535309791565)
(X_356  0.5371338129043579)
(X_357  0.399824857711792)
(X_358  0.43681657314300537)
(X_359  0.6055477857589722)
(X_360  0.6786499619483948)
(X_361  0.6580975651741028)
(X_362  0.511609673500061)
(X_363  0.3355185091495514)
(X_364  0.23645859956741333)
(X_365  0.4160052239894867)
(X_366  0.6262387633323669)
(X_367  0.6767682433128357)
(X_368  0.5529428124427795)
(X_369  0.46030813455581665)
(X_370  0.4783059060573578)
(X_371  0.5201712250709534)
(X_372  0.4534786343574524)
(X_373  0.5750859379768372)
(X_374  0.526604175567627)
(X_375  0.63868647813797)
(X_376  0.7405092120170593)
(X_377  0.7518415451049805)
(X_378  0.7626107931137085)
(X_379  0.7787906527519226)
(X_380  0.7052358388900757)
(X_381  0.7378087043762207)
(X_382  0.7176302671432495)
(X_383  0.6548848152160645)
(X_384  0.5934855341911316)
(X_385  0.4682803750038147)
(X_386  0.46345824003219604)
(X_387  0.4532890319824219)
(X_388  0.609477698802948)
(X_389  0.6873208284378052)
(X_390  0.526594877243042)
(X_391  0.2959845960140228)
(X_392  0.2825266122817993)
(X_393  0.4927329421043396)
(X_394  0.662934422492981)
(X_395  0.6050677299499512)
(X_396  0.48190245032310486)
(X_397  0.46318644285202026)
(X_398  0.4903396964073181)
(X_399  0.4530063569545746)
(X_400  0.5257722735404968)
(X_401  0.5462691783905029)
(X_402  0.5939943194389343)
(X_403  0.708457887172699)
(X_404  0.7292032241821289)
(X_405  0.7806506752967834)
(X_406  0.7468977570533752)
(X_407  0.7724849581718445)
(X_408  0.6945542097091675)
(X_409  0.7012225985527039)
(X_410  0.7262722849845886)
(X_411  0.6630229949951172)
(X_412  0.6265774369239807)
(X_413  0.5636382102966309)
(X_414  0.4605228900909424)
(X_415  0.4362623691558838)
(X_416  0.5661126971244812)
(X_417  0.7192937731742859)
(X_418  0.5595648288726807)
(X_419  0.3072986900806427)
(X_420  0.30095088481903076)
(X_421  0.4922176003456116)
(X_422  0.6717445850372314)
(X_423  0.5868276357650757)
(X_424  0.4652125835418701)
(X_425  0.45790064334869385)
(X_426  0.45988744497299194)
(X_427  0.4480023980140686)
(X_428  0.545158863067627)
(X_429  0.5931273102760315)
(X_430  0.584947943687439)
(X_431  0.7099407911300659)
(X_432  0.7562527656555176)
(X_433  0.7371456027030945)
(X_434  0.7979649305343628)
(X_435  0.8063288927078247)
(X_436  0.6966456174850464)
(X_437  0.6955394744873047)
(X_438  0.6752241849899292)
(X_439  0.7335155010223389)
(X_440  0.6758766174316406)
(X_441  0.6483670473098755)
(X_442  0.5458892583847046)
(X_443  0.4533314108848572)
(X_444  0.5660297870635986)
(X_445  0.7296360731124878)
(X_446  0.6183501482009888)
(X_447  0.3562995195388794)
(X_448  0.34701088070869446)
(X_449  0.5308730006217957)
(X_450  0.6614880561828613)
(X_451  0.5093623399734497)
(X_452  0.5013920664787292)
(X_453  0.4888414740562439)
(X_454  0.546959400177002)
(X_455  0.45721518993377686)
(X_456  0.5381412506103516)
(X_457  0.586108386516571)
(X_458  0.6584551930427551)
(X_459  0.7360254526138306)
(X_460  0.7616161108016968)
(X_461  0.7790799140930176)
(X_462  0.8070025444030762)
(X_463  0.7702104449272156)
(X_464  0.7667924761772156)
(X_465  0.7669720649719238)
(X_466  0.7275232672691345)
(X_467  0.6994012594223022)
(X_468  0.7092174291610718)
(X_469  0.6578524112701416)
(X_470  0.5872357487678528)
(X_471  0.5564829707145691)
(X_472  0.6138372421264648)
(X_473  0.6183386445045471)
(X_474  0.6936444044113159)
(X_475  0.33170586824417114)
(X_476  0.392713338136673)
(X_477  0.6145871877670288)
(X_478  0.6932142376899719)
(X_479  0.5201868414878845)
(X_480  0.46980828046798706)
(X_481  0.4766310453414917)
(X_482  0.5282627940177917)
(X_483  0.5593554973602295)
(X_484  0.5382589101791382)
(X_485  0.5501583218574524)
(X_486  0.6423549652099609)
(X_487  0.6985907554626465)
(X_488  0.7804352641105652)
(X_489  0.7876020073890686)
(X_490  0.8026286363601685)
(X_491  0.764732301235199)
(X_492  0.7599827647209167)
(X_493  0.733085036277771)
(X_494  0.7772483825683594)
(X_495  0.7138552069664001)
(X_496  0.7425817251205444)
(X_497  0.7554255723953247)
(X_498  0.6479525566101074)
(X_499  0.6570510864257812)
(X_500  0.5309412479400635)
(X_501  0.5911647081375122)
(X_502  0.6738455891609192)
(X_503  0.36500677466392517)
(X_504  0.43590864539146423)
(X_505  0.6409887075424194)
(X_506  0.5908469557762146)
(X_507  0.5252926349639893)
(X_508  0.48812422156333923)
(X_509  0.4168838858604431)
(X_510  0.5430137515068054)
(X_511  0.5107828974723816)
(X_512  0.45879706740379333)
(X_513  0.49732550978660583)
(X_514  0.6614606380462646)
(X_515  0.7568725347518921)
(X_516  0.7815384864807129)
(X_517  0.7858635187149048)
(X_518  0.816986620426178)
(X_519  0.7435303330421448)
(X_520  0.7196471095085144)
(X_521  0.7850875854492188)
(X_522  0.7449972629547119)
(X_523  0.7616074085235596)
(X_524  0.7111867666244507)
(X_525  0.7192403078079224)
(X_526  0.6613408923149109)
(X_527  0.6202428936958313)
(X_528  0.5782745480537415)
(X_529  0.5860366821289062)
(X_530  0.6810528635978699)
(X_531  0.46477362513542175)
(X_532  0.48748114705085754)
(X_533  0.6828803420066833)
(X_534  0.43770334124565125)
(X_535  0.4493183195590973)
(X_536  0.47798147797584534)
(X_537  0.44991859793663025)
(X_538  0.46907535195350647)
(X_539  0.4142245948314667)
(X_540  0.45098191499710083)
(X_541  0.4596620500087738)
(X_542  0.6127604842185974)
(X_543  0.7205758690834045)
(X_544  0.7495863437652588)
(X_545  0.7933405041694641)
(X_546  0.8105632066726685)
(X_547  0.772659182548523)
(X_548  0.7602139711380005)
(X_549  0.7138773798942566)
(X_550  0.7345686554908752)
(X_551  0.7139075398445129)
(X_552  0.7557125687599182)
(X_553  0.7195500135421753)
(X_554  0.6864750981330872)
(X_555  0.6513018608093262)
(X_556  0.5769593119621277)
(X_557  0.620815634727478)
(X_558  0.6642464995384216)
(X_559  0.4966049790382385)
(X_560  0.5667829513549805)
(X_561  0.68443363904953)
(X_562  0.44304874539375305)
(X_563  0.5021309852600098)
(X_564  0.4641019105911255)
(X_565  0.44056400656700134)
(X_566  0.4762122631072998)
(X_567  0.4542068839073181)
(X_568  0.4540312588214874)
(X_569  0.45951688289642334)
(X_570  0.6344484686851501)
(X_571  0.6924449801445007)
(X_572  0.7359492778778076)
(X_573  0.7916269302368164)
(X_574  0.7571013569831848)
(X_575  0.7387712597846985)
(X_576  0.6759796142578125)
(X_577  0.6938111186027527)
(X_578  0.7340866327285767)
(X_579  0.7535706758499146)
(X_580  0.710831344127655)
(X_581  0.7364139556884766)
(X_582  0.7104521989822388)
(X_583  0.7142502665519714)
(X_584  0.6210214495658875)
(X_585  0.6354138851165771)
(X_586  0.647292971611023)
(X_587  0.5481427907943726)
(X_588  0.5846461653709412)
(X_589  0.6127795577049255)
(X_590  0.36539843678474426)
(X_591  0.43777039647102356)
(X_592  0.4729592204093933)
(X_593  0.5444449782371521)
(X_594  0.553672730922699)
(X_595  0.48615914583206177)
(X_596  0.4475613534450531)
(X_597  0.5239149332046509)
(X_598  0.5720381140708923)
(X_599  0.6938602328300476)
(X_600  0.7348822951316833)
(X_601  0.7593852281570435)
(X_602  0.7865588068962097)
(X_603  0.7561293244361877)
(X_604  0.7339943647384644)
(X_605  0.7175514698028564)
(X_606  0.6890530586242676)
(X_607  0.7164108753204346)
(X_608  0.7334766387939453)
(X_609  0.7455201745033264)
(X_610  0.7281556725502014)
(X_611  0.6852310299873352)
(X_612  0.6618826985359192)
(X_613  0.5516131520271301)
(X_614  0.6086337566375732)
(X_615  0.5699462294578552)
(X_616  0.6334457397460938)
(X_617  0.5227605104446411)
(X_618  0.42189911007881165)
(X_619  0.48231130838394165)
(X_620  0.5288397073745728)
(X_621  0.6303925514221191)
(X_622  0.6310089230537415)
(X_623  0.5393875241279602)
(X_624  0.5644943714141846)
(X_625  0.5475063920021057)
(X_626  0.6744802594184875)
(X_627  0.7717578411102295)
(X_628  0.7982457280158997)
(X_629  0.7418149709701538)
(X_630  0.8038843870162964)
(X_631  0.747693657875061)
(X_632  0.6832941770553589)
(X_633  0.6845018267631531)
(X_634  0.7404801249504089)
(X_635  0.6854743361473083)
(X_636  0.7475818395614624)
(X_637  0.7202466130256653)
(X_638  0.7167075872421265)
(X_639  0.6541797518730164)
(X_640  0.5980650186538696)
(X_641  0.49284112453460693)
(X_642  0.5649335980415344)
(X_643  0.5641589760780334)
(X_644  0.5630177855491638)
(X_645  0.5058386325836182)
(X_646  0.5880442261695862)
(X_647  0.640615701675415)
(X_648  0.5928303599357605)
(X_649  0.5753348469734192)
(X_650  0.6439464092254639)
(X_651  0.6182510256767273)
(X_652  0.6576383709907532)
(X_653  0.659069299697876)
(X_654  0.633055567741394)
(X_655  0.7456439733505249)
(X_656  0.7613439559936523)
(X_657  0.8183109760284424)
(X_658  0.8153898119926453)
(X_659  0.7442249059677124)
(X_660  0.6555268168449402)
(X_661  0.6780333518981934)
(X_662  0.6788955330848694)
(X_663  0.714674711227417)
(X_664  0.7658522725105286)
(X_665  0.812410295009613)
(X_666  0.7452222108840942)
(X_667  0.652398943901062)
(X_668  0.6086822748184204)
(X_669  0.4617408215999603)
(X_670  0.5700501799583435)
(X_671  0.5820614695549011)
(X_672  0.5828307271003723)
(X_673  0.6653280258178711)
(X_674  0.6594381928443909)
(X_675  0.6291517019271851)
(X_676  0.6594554781913757)
(X_677  0.7094720602035522)
(X_678  0.7108122110366821)
(X_679  0.7313898801803589)
(X_680  0.71888267993927)
(X_681  0.6719963550567627)
(X_682  0.7647252678871155)
(X_683  0.7544717788696289)
(X_684  0.8119176030158997)
(X_685  0.8245107531547546)
(X_686  0.7696709036827087)
(X_687  0.7340533137321472)
(X_688  0.682595431804657)
(X_689  0.7648381590843201)
(X_690  0.7176274657249451)
(X_691  0.7164953351020813)
(X_692  0.7854905128479004)
(X_693  0.7777364253997803)
(X_694  0.7243039011955261)
(X_695  0.7443414926528931)
(X_696  0.5630099773406982)
(X_697  0.4816472828388214)
(X_698  0.46282219886779785)
(X_699  0.5962300896644592)
(X_700  0.5814997553825378)
(X_701  0.6649825572967529)
(X_702  0.6587626934051514)
(X_703  0.6863820552825928)
(X_704  0.6846569776535034)
(X_705  0.676322340965271)
(X_706  0.7130293846130371)
(X_707  0.7058686017990112)
(X_708  0.715579092502594)
(X_709  0.701920747756958)
(X_710  0.6958943009376526)
(X_711  0.7507525086402893)
(X_712  0.765127956867218)
(X_713  0.8018958568572998)
(X_714  0.7960275411605835)
(X_715  0.7933500409126282)
(X_716  0.7668874263763428)
(X_717  0.7640846371650696)
(X_718  0.7917688488960266)
(X_719  0.7192134857177734)
(X_720  0.7247268557548523)
(X_721  0.7710008025169373)
(X_722  0.7645881772041321)
(X_723  0.6839883327484131)
(X_724  0.6277069449424744)
(X_725  0.5339183211326599)
(X_726  0.5519014596939087)
(X_727  0.5917426347732544)
(X_728  0.6340197324752808)
(X_729  0.6163163185119629)
(X_730  0.6840804815292358)
(X_731  0.6660647988319397)
(X_732  0.7197773456573486)
(X_733  0.7069733142852783)
(X_734  0.6847595572471619)
(X_735  0.7201633453369141)
(X_736  0.7488717436790466)
(X_737  0.7684120535850525)
(X_738  0.743346095085144)
(X_739  0.7531702518463135)
(X_740  0.8123997449874878)
(X_741  0.8251155614852905)
(X_742  0.8019742369651794)
(X_743  0.7395835518836975)
(X_744  0.7198038101196289)
(X_745  0.7809131741523743)
(X_746  0.7910463809967041)
(X_747  0.7390570044517517)
(X_748  0.7259342670440674)
(X_749  0.7622044086456299)
(X_750  0.7272374033927917)
(X_751  0.7233932614326477)
(X_752  0.6365559101104736)
(X_753  0.5716658234596252)
(X_754  0.5412707924842834)
(X_755  0.6050429940223694)
(X_756  0.6510039567947388)
(X_757  0.6833040118217468)
(X_758  0.6755855679512024)
(X_759  0.702072262763977)
(X_760  0.7341223955154419)
(X_761  0.7316831350326538)
(X_762  0.723496675491333)
(X_763  0.7538114786148071)
(X_764  0.7290677428245544)
(X_765  0.7255368828773499)
(X_766  0.7468928694725037)
(X_767  0.7415894865989685)
(X_768  0.7620021104812622)
(X_769  0.7691674828529358)
(X_770  0.7876483201980591)
(X_771  0.7171614170074463)
(X_772  0.7427557706832886)
(X_773  0.732576847076416)
(X_774  0.7858080863952637)
(X_775  0.7642985582351685)
(X_776  0.8060154318809509)
(X_777  0.7678583860397339)
(X_778  0.7265671491622925)
(X_779  0.73894202709198)
(X_780  0.7116311192512512)
(X_781  0.6189624667167664)
(X_782  0.5946001410484314)
(X_783  0.6279947757720947)
(Y_0 -0.01126202940940857))