((X_0  0.35519158840179443)
(X_1  0.40731027722358704)
(X_2  0.41786739230155945)
(X_3  0.4216436743736267)
(X_4  0.5386889576911926)
(X_5  0.6329291462898254)
(X_6  0.6554923057556152)
(X_7  0.5255658626556396)
(X_8  0.5628223419189453)
(X_9  0.6327849626541138)
(X_10  0.6199989318847656)
(X_11  0.7142937183380127)
(X_12  0.6979033350944519)
(X_13  0.6557062268257141)
(X_14  0.6714420318603516)
(X_15  0.5965161919593811)
(X_16  0.6199095249176025)
(X_17  0.5701287984848022)
(X_18  0.5076758861541748)
(X_19  0.4981003999710083)
(X_20  0.520091712474823)
(X_21  0.6407603621482849)
(X_22  0.5540772676467896)
(X_23  0.47044336795806885)
(X_24  0.4237424433231354)
(X_25  0.43015503883361816)
(X_26  0.27856820821762085)
(X_27  0.2897662818431854)
(X_28  0.3939112424850464)
(X_29  0.42784935235977173)
(X_30  0.41062355041503906)
(X_31  0.42578059434890747)
(X_32  0.5342543721199036)
(X_33  0.5320035219192505)
(X_34  0.5502948760986328)
(X_35  0.548757016658783)
(X_36  0.5172556638717651)
(X_37  0.6000223159790039)
(X_38  0.5964892506599426)
(X_39  0.613073468208313)
(X_40  0.6043175458908081)
(X_41  0.6160629391670227)
(X_42  0.6568701267242432)
(X_43  0.6313297748565674)
(X_44  0.6232149600982666)
(X_45  0.555504322052002)
(X_46  0.5410615801811218)
(X_47  0.5644957423210144)
(X_48  0.610152006149292)
(X_49  0.5522318482398987)
(X_50  0.48848164081573486)
(X_51  0.4474353492259979)
(X_52  0.41340380907058716)
(X_53  0.4294911026954651)
(X_54  0.3654099106788635)
(X_55  0.3315168619155884)
(X_56  0.45391497015953064)
(X_57  0.49224814772605896)
(X_58  0.4999270439147949)
(X_59  0.462453693151474)
(X_60  0.4506757855415344)
(X_61  0.5144649744033813)
(X_62  0.5725303292274475)
(X_63  0.6092615723609924)
(X_64  0.5811547636985779)
(X_65  0.5995767712593079)
(X_66  0.5715646743774414)
(X_67  0.5769814252853394)
(X_68  0.5974234342575073)
(X_69  0.6372684240341187)
(X_70  0.6627192497253418)
(X_71  0.6217035055160522)
(X_72  0.651131808757782)
(X_73  0.59930419921875)
(X_74  0.6057693958282471)
(X_75  0.5968243479728699)
(X_76  0.6385343074798584)
(X_77  0.5215661525726318)
(X_78  0.5243648290634155)
(X_79  0.4347389042377472)
(X_80  0.41483381390571594)
(X_81  0.478706419467926)
(X_82  0.37125787138938904)
(X_83  0.35295501351356506)
(X_84  0.4908725321292877)
(X_85  0.5777727961540222)
(X_86  0.5628231763839722)
(X_87  0.4997912049293518)
(X_88  0.5442638993263245)
(X_89  0.5386804342269897)
(X_90  0.5708892941474915)
(X_91  0.5579037666320801)
(X_92  0.6145393252372742)
(X_93  0.6434853672981262)
(X_94  0.6791908740997314)
(X_95  0.6793983578681946)
(X_96  0.6781438589096069)
(X_97  0.6158449053764343)
(X_98  0.6781047582626343)
(X_99  0.6230417490005493)
(X_100  0.629995584487915)
(X_101  0.6028576493263245)
(X_102  0.5922122597694397)
(X_103  0.5691213607788086)
(X_104  0.5784209370613098)
(X_105  0.5298078060150146)
(X_106  0.500478982925415)
(X_107  0.5274448394775391)
(X_108  0.536736011505127)
(X_109  0.5269131660461426)
(X_110  0.40984970331192017)
(X_111  0.37414389848709106)
(X_112  0.5181636214256287)
(X_113  0.5800378322601318)
(X_114  0.6122439503669739)
(X_115  0.5387553572654724)
(X_116  0.524474024772644)
(X_117  0.6248366832733154)
(X_118  0.5978569984436035)
(X_119  0.5179104804992676)
(X_120  0.5504137277603149)
(X_121  0.6022043228149414)
(X_122  0.6570650339126587)
(X_123  0.6700426936149597)
(X_124  0.6402541995048523)
(X_125  0.6426406502723694)
(X_126  0.67933189868927)
(X_127  0.6212790012359619)
(X_128  0.5786088109016418)
(X_129  0.6113582849502563)
(X_130  0.6117746829986572)
(X_131  0.5551857948303223)
(X_132  0.5592094659805298)
(X_133  0.5807725787162781)
(X_134  0.568191409111023)
(X_135  0.5080112218856812)
(X_136  0.5563391447067261)
(X_137  0.5546956062316895)
(X_138  0.48244747519493103)
(X_139  0.4112282395362854)
(X_140  0.4954582750797272)
(X_141  0.5902485251426697)
(X_142  0.6719285845756531)
(X_143  0.6148964166641235)
(X_144  0.5852343440055847)
(X_145  0.5742177963256836)
(X_146  0.5387530326843262)
(X_147  0.4305199086666107)
(X_148  0.4627499580383301)
(X_149  0.5309848189353943)
(X_150  0.5860901474952698)
(X_151  0.6892451643943787)
(X_152  0.6971073150634766)
(X_153  0.706898033618927)
(X_154  0.6675442457199097)
(X_155  0.6900708079338074)
(X_156  0.6111028790473938)
(X_157  0.5987686514854431)
(X_158  0.5818397998809814)
(X_159  0.45262229442596436)
(X_160  0.39612066745758057)
(X_161  0.5611299872398376)
(X_162  0.6288077235221863)
(X_163  0.616431474685669)
(X_164  0.5615684390068054)
(X_165  0.5355264544487)
(X_166  0.5099831819534302)
(X_167  0.3822799623012543)
(X_168  0.5543262958526611)
(X_169  0.5938307642936707)
(X_170  0.5875775814056396)
(X_171  0.6573985815048218)
(X_172  0.6040067672729492)
(X_173  0.482960969209671)
(X_174  0.36805760860443115)
(X_175  0.2838114798069)
(X_176  0.4148077070713043)
(X_177  0.491759717464447)
(X_178  0.6306028366088867)
(X_179  0.6615311503410339)
(X_180  0.7024707198143005)
(X_181  0.6859439015388489)
(X_182  0.6779314279556274)
(X_183  0.6675838828086853)
(X_184  0.6054268479347229)
(X_185  0.6278405785560608)
(X_186  0.4899151921272278)
(X_187  0.4094897508621216)
(X_188  0.38270360231399536)
(X_189  0.4783918559551239)
(X_190  0.5704647302627563)
(X_191  0.6284226179122925)
(X_192  0.6109229326248169)
(X_193  0.5942728519439697)
(X_194  0.48437750339508057)
(X_195  0.4116319417953491)
(X_196  0.5706957578659058)
(X_197  0.527275800704956)
(X_198  0.5859789848327637)
(X_199  0.5989077687263489)
(X_200  0.5406528115272522)
(X_201  0.42300376296043396)
(X_202  0.27181074023246765)
(X_203  0.2959791421890259)
(X_204  0.3964605927467346)
(X_205  0.49896886944770813)
(X_206  0.6187686324119568)
(X_207  0.6488322615623474)
(X_208  0.634091317653656)
(X_209  0.6688933968544006)
(X_210  0.7048110365867615)
(X_211  0.62894606590271)
(X_212  0.626747727394104)
(X_213  0.6360673904418945)
(X_214  0.45861929655075073)
(X_215  0.36872413754463196)
(X_216  0.30201297998428345)
(X_217  0.40508756041526794)
(X_218  0.5302843451499939)
(X_219  0.6641920208930969)
(X_220  0.5500156879425049)
(X_221  0.5351877808570862)
(X_222  0.5219608545303345)
(X_223  0.4101997911930084)
(X_224  0.5178618431091309)
(X_225  0.5535557866096497)
(X_226  0.6503750085830688)
(X_227  0.62236088514328)
(X_228  0.4346996247768402)
(X_229  0.3743739128112793)
(X_230  0.3546847403049469)
(X_231  0.3378489315509796)
(X_232  0.3971898555755615)
(X_233  0.5279292464256287)
(X_234  0.6010686159133911)
(X_235  0.6839916110038757)
(X_236  0.7172862887382507)
(X_237  0.703873872756958)
(X_238  0.6769136786460876)
(X_239  0.6520164012908936)
(X_240  0.6669989824295044)
(X_241  0.5606270432472229)
(X_242  0.5090691447257996)
(X_243  0.4122419059276581)
(X_244  0.3118833899497986)
(X_245  0.29708123207092285)
(X_246  0.40786316990852356)
(X_247  0.6357681155204773)
(X_248  0.6165384650230408)
(X_249  0.5409615635871887)
(X_250  0.42757710814476013)
(X_251  0.38475796580314636)
(X_252  0.5057188868522644)
(X_253  0.6149868965148926)
(X_254  0.6287842988967896)
(X_255  0.5210385918617249)
(X_256  0.35698503255844116)
(X_257  0.3021581172943115)
(X_258  0.33768510818481445)
(X_259  0.3578210771083832)
(X_260  0.4511030912399292)
(X_261  0.5296252369880676)
(X_262  0.6490059494972229)
(X_263  0.6086992025375366)
(X_264  0.7166003584861755)
(X_265  0.6427509188652039)
(X_266  0.6494022607803345)
(X_267  0.6979326009750366)
(X_268  0.6707025766372681)
(X_269  0.5604358315467834)
(X_270  0.5396331548690796)
(X_271  0.425006628036499)
(X_272  0.31968551874160767)
(X_273  0.3949030935764313)
(X_274  0.4390360713005066)
(X_275  0.591695249080658)
(X_276  0.5912174582481384)
(X_277  0.579913318157196)
(X_278  0.5090516805648804)
(X_279  0.4458383023738861)
(X_280  0.5329197645187378)
(X_281  0.6132492423057556)
(X_282  0.6238739490509033)
(X_283  0.45262613892555237)
(X_284  0.32306423783302307)
(X_285  0.29858505725860596)
(X_286  0.34850144386291504)
(X_287  0.385287344455719)
(X_288  0.4967997670173645)
(X_289  0.6008015871047974)
(X_290  0.655569314956665)
(X_291  0.6549260020256042)
(X_292  0.6842280030250549)
(X_293  0.701972484588623)
(X_294  0.6721181273460388)
(X_295  0.6757636070251465)
(X_296  0.6843916177749634)
(X_297  0.6146442294120789)
(X_298  0.5502365827560425)
(X_299  0.40110287070274353)
(X_300  0.3306528627872467)
(X_301  0.3237651586532593)
(X_302  0.34678006172180176)
(X_303  0.5551251769065857)
(X_304  0.5983297824859619)
(X_305  0.5703576803207397)
(X_306  0.4566986560821533)
(X_307  0.3921959698200226)
(X_308  0.6113291382789612)
(X_309  0.6500749588012695)
(X_310  0.5867494940757751)
(X_311  0.4122152030467987)
(X_312  0.2624821960926056)
(X_313  0.25434038043022156)
(X_314  0.3453105688095093)
(X_315  0.4027522802352905)
(X_316  0.5092867612838745)
(X_317  0.6123856902122498)
(X_318  0.6094476580619812)
(X_319  0.6707227230072021)
(X_320  0.7231181859970093)
(X_321  0.6837378740310669)
(X_322  0.7205588221549988)
(X_323  0.6738783717155457)
(X_324  0.6436380743980408)
(X_325  0.5997072458267212)
(X_326  0.5904929041862488)
(X_327  0.4641580879688263)
(X_328  0.37927520275115967)
(X_329  0.32118919491767883)
(X_330  0.3068581223487854)
(X_331  0.5341995358467102)
(X_332  0.624906063079834)
(X_333  0.6081573963165283)
(X_334  0.4886629581451416)
(X_335  0.383625864982605)
(X_336  0.5464872121810913)
(X_337  0.5673570036888123)
(X_338  0.5109959840774536)
(X_339  0.35367873311042786)
(X_340  0.2796069383621216)
(X_341  0.35608652234077454)
(X_342  0.3996807336807251)
(X_343  0.44903427362442017)
(X_344  0.5441538691520691)
(X_345  0.6484929323196411)
(X_346  0.671143651008606)
(X_347  0.6558223962783813)
(X_348  0.713721752166748)
(X_349  0.7319167256355286)
(X_350  0.6783454418182373)
(X_351  0.7236421704292297)
(X_352  0.6359736323356628)
(X_353  0.6137190461158752)
(X_354  0.5810051560401917)
(X_355  0.462007611989975)
(X_356  0.41661739349365234)
(X_357  0.33920663595199585)
(X_358  0.3890647888183594)
(X_359  0.5111225843429565)
(X_360  0.567462146282196)
(X_361  0.5668115019798279)
(X_362  0.4573651850223541)
(X_363  0.39389270544052124)
(X_364  0.6180654168128967)
(X_365  0.5867923498153687)
(X_366  0.4675840139389038)
(X_367  0.2981092631816864)
(X_368  0.32634490728378296)
(X_369  0.34126603603363037)
(X_370  0.3488462269306183)
(X_371  0.45502132177352905)
(X_372  0.5605388283729553)
(X_373  0.6756464242935181)
(X_374  0.6947415471076965)
(X_375  0.6548410654067993)
(X_376  0.707514762878418)
(X_377  0.7149389386177063)
(X_378  0.7250878810882568)
(X_379  0.6794441938400269)
(X_380  0.6313233375549316)
(X_381  0.6585361957550049)
(X_382  0.6456058025360107)
(X_383  0.513328492641449)
(X_384  0.4114951491355896)
(X_385  0.3393112123012543)
(X_386  0.3314247727394104)
(X_387  0.4306514859199524)
(X_388  0.5674382448196411)
(X_389  0.5710031986236572)
(X_390  0.526938796043396)
(X_391  0.4582827389240265)
(X_392  0.5878903269767761)
(X_393  0.5478277206420898)
(X_394  0.39123082160949707)
(X_395  0.30701959133148193)
(X_396  0.313648521900177)
(X_397  0.33525794744491577)
(X_398  0.36885693669319153)
(X_399  0.4661455750465393)
(X_400  0.5515645742416382)
(X_401  0.6407634019851685)
(X_402  0.6396359205245972)
(X_403  0.6593327522277832)
(X_404  0.723039984703064)
(X_405  0.7560118436813354)
(X_406  0.6894804239273071)
(X_407  0.7506734728813171)
(X_408  0.6841995716094971)
(X_409  0.6557600498199463)
(X_410  0.669820249080658)
(X_411  0.5212429165840149)
(X_412  0.4819025695323944)
(X_413  0.4528781473636627)
(X_414  0.35358113050460815)
(X_415  0.35583657026290894)
(X_416  0.5116488337516785)
(X_417  0.5973107814788818)
(X_418  0.5075920820236206)
(X_419  0.4252709448337555)
(X_420  0.5310419797897339)
(X_421  0.5461296439170837)
(X_422  0.3539500832557678)
(X_423  0.3153493404388428)
(X_424  0.30714327096939087)
(X_425  0.32712551951408386)
(X_426  0.3980150818824768)
(X_427  0.5983395576477051)
(X_428  0.5970087051391602)
(X_429  0.6306038498878479)
(X_430  0.6953167915344238)
(X_431  0.6704548001289368)
(X_432  0.6996690034866333)
(X_433  0.7598846554756165)
(X_434  0.7299256920814514)
(X_435  0.6965579390525818)
(X_436  0.6607081890106201)
(X_437  0.6095936894416809)
(X_438  0.6072031855583191)
(X_439  0.6137237548828125)
(X_440  0.5563564896583557)
(X_441  0.5344482660293579)
(X_442  0.3597860038280487)
(X_443  0.3826269805431366)
(X_444  0.49586233496665955)
(X_445  0.6046246886253357)
(X_446  0.5638095140457153)
(X_447  0.47985994815826416)
(X_448  0.6296148300170898)
(X_449  0.41789448261260986)
(X_450  0.3633161783218384)
(X_451  0.3455836772918701)
(X_452  0.3784223794937134)
(X_453  0.3790516257286072)
(X_454  0.4164232611656189)
(X_455  0.4547501504421234)
(X_456  0.5919768810272217)
(X_457  0.590309202671051)
(X_458  0.6426376104354858)
(X_459  0.7335874438285828)
(X_460  0.7139345407485962)
(X_461  0.7350391149520874)
(X_462  0.7294318675994873)
(X_463  0.7198997735977173)
(X_464  0.7128131985664368)
(X_465  0.6235600113868713)
(X_466  0.6389633417129517)
(X_467  0.5551425814628601)
(X_468  0.5959023237228394)
(X_469  0.5443517565727234)
(X_470  0.48543861508369446)
(X_471  0.4381028413772583)
(X_472  0.4811766445636749)
(X_473  0.5963202714920044)
(X_474  0.5769383311271667)
(X_475  0.47706496715545654)
(X_476  0.5632118582725525)
(X_477  0.46883904933929443)
(X_478  0.36871546506881714)
(X_479  0.3109661340713501)
(X_480  0.3119222819805145)
(X_481  0.3187205493450165)
(X_482  0.3903065621852875)
(X_483  0.5552889704704285)
(X_484  0.5594122409820557)
(X_485  0.5935937762260437)
(X_486  0.6247845888137817)
(X_487  0.7173780798912048)
(X_488  0.718038022518158)
(X_489  0.7663025259971619)
(X_490  0.7357710003852844)
(X_491  0.7456437945365906)
(X_492  0.6509222984313965)
(X_493  0.6178145408630371)
(X_494  0.6261703968048096)
(X_495  0.5988962650299072)
(X_496  0.5382541418075562)
(X_497  0.4935303330421448)
(X_498  0.44052761793136597)
(X_499  0.3826425075531006)
(X_500  0.457832008600235)
(X_501  0.5323383212089539)
(X_502  0.5926953554153442)
(X_503  0.4351615309715271)
(X_504  0.5083099007606506)
(X_505  0.3907040059566498)
(X_506  0.3373528718948364)
(X_507  0.36555081605911255)
(X_508  0.3419525623321533)
(X_509  0.3959842324256897)
(X_510  0.4549555778503418)
(X_511  0.6164586544036865)
(X_512  0.6217637658119202)
(X_513  0.6450235843658447)
(X_514  0.614292323589325)
(X_515  0.6828359365463257)
(X_516  0.7297836542129517)
(X_517  0.7676998376846313)
(X_518  0.74449622631073)
(X_519  0.717375636100769)
(X_520  0.6625502705574036)
(X_521  0.6141508221626282)
(X_522  0.6465951800346375)
(X_523  0.5855151414871216)
(X_524  0.55426025390625)
(X_525  0.5018848776817322)
(X_526  0.41280826926231384)
(X_527  0.36331018805503845)
(X_528  0.3781605362892151)
(X_529  0.5430509448051453)
(X_530  0.6321514844894409)
(X_531  0.5371538400650024)
(X_532  0.4304673969745636)
(X_533  0.42426109313964844)
(X_534  0.360190749168396)
(X_535  0.3622928261756897)
(X_536  0.43272972106933594)
(X_537  0.47366803884506226)
(X_538  0.5242710709571838)
(X_539  0.5773549675941467)
(X_540  0.6330069899559021)
(X_541  0.5946504473686218)
(X_542  0.6063748598098755)
(X_543  0.6597175598144531)
(X_544  0.7265344858169556)
(X_545  0.7487043142318726)
(X_546  0.7065194249153137)
(X_547  0.7392126321792603)
(X_548  0.6732292771339417)
(X_549  0.6243109703063965)
(X_550  0.5990229845046997)
(X_551  0.5277694463729858)
(X_552  0.547103226184845)
(X_553  0.4651544690132141)
(X_554  0.3622553050518036)
(X_555  0.34175607562065125)
(X_556  0.3834802210330963)
(X_557  0.5330764055252075)
(X_558  0.6129721999168396)
(X_559  0.5372177362442017)
(X_560  0.41019341349601746)
(X_561  0.43335551023483276)
(X_562  0.4464052617549896)
(X_563  0.4998629093170166)
(X_564  0.5942654609680176)
(X_565  0.60081946849823)
(X_566  0.6168965101242065)
(X_567  0.6177924275398254)
(X_568  0.6046941876411438)
(X_569  0.6482029557228088)
(X_570  0.6503027677536011)
(X_571  0.6514455080032349)
(X_572  0.6771162152290344)
(X_573  0.7484399080276489)
(X_574  0.6942092776298523)
(X_575  0.7145500183105469)
(X_576  0.6076525449752808)
(X_577  0.5750278830528259)
(X_578  0.6192983388900757)
(X_579  0.5444601774215698)
(X_580  0.49682408571243286)
(X_581  0.4353637397289276)
(X_582  0.28229594230651855)
(X_583  0.19292345643043518)
(X_584  0.27621960639953613)
(X_585  0.41393575072288513)
(X_586  0.5540990233421326)
(X_587  0.6239897608757019)
(X_588  0.5207424163818359)
(X_589  0.5176801085472107)
(X_590  0.6657710075378418)
(X_591  0.6500425934791565)
(X_592  0.6722804307937622)
(X_593  0.6207430958747864)
(X_594  0.5677397847175598)
(X_595  0.6176249384880066)
(X_596  0.6334155201911926)
(X_597  0.5984498262405396)
(X_598  0.609625518321991)
(X_599  0.6930317282676697)
(X_600  0.6777113080024719)
(X_601  0.7369859218597412)
(X_602  0.7400762438774109)
(X_603  0.7321550846099854)
(X_604  0.6414235830307007)
(X_605  0.5624951124191284)
(X_606  0.5569003224372864)
(X_607  0.4762856662273407)
(X_608  0.3728639781475067)
(X_609  0.29542842507362366)
(X_610  0.25860467553138733)
(X_611  0.276815801858902)
(X_612  0.2631034255027771)
(X_613  0.33269503712654114)
(X_614  0.5402172207832336)
(X_615  0.600715696811676)
(X_616  0.5894636511802673)
(X_617  0.6282505393028259)
(X_618  0.7380734086036682)
(X_619  0.7041114568710327)
(X_620  0.6595811247825623)
(X_621  0.6054879426956177)
(X_622  0.6082111597061157)
(X_623  0.6572531461715698)
(X_624  0.6029464602470398)
(X_625  0.6110178828239441)
(X_626  0.612325131893158)
(X_627  0.6796852350234985)
(X_628  0.7309028506278992)
(X_629  0.757341206073761)
(X_630  0.6767141222953796)
(X_631  0.710669994354248)
(X_632  0.6186196208000183)
(X_633  0.5179845094680786)
(X_634  0.5013644695281982)
(X_635  0.38083580136299133)
(X_636  0.3516562879085541)
(X_637  0.22640621662139893)
(X_638  0.2376180738210678)
(X_639  0.3076872229576111)
(X_640  0.2738330662250519)
(X_641  0.25888943672180176)
(X_642  0.47278347611427307)
(X_643  0.6275265216827393)
(X_644  0.6634505391120911)
(X_645  0.6961596012115479)
(X_646  0.6458232998847961)
(X_647  0.5812886357307434)
(X_648  0.6115593910217285)
(X_649  0.6424345970153809)
(X_650  0.6036421060562134)
(X_651  0.6559923887252808)
(X_652  0.6761459708213806)
(X_653  0.6357542276382446)
(X_654  0.6726717352867126)
(X_655  0.6782240867614746)
(X_656  0.7120410203933716)
(X_657  0.7375507950782776)
(X_658  0.6916838884353638)
(X_659  0.7182824015617371)
(X_660  0.6167678833007812)
(X_661  0.5454481244087219)
(X_662  0.5570398569107056)
(X_663  0.5488370060920715)
(X_664  0.443433940410614)
(X_665  0.278103232383728)
(X_666  0.26201075315475464)
(X_667  0.28782621026039124)
(X_668  0.2774165868759155)
(X_669  0.23930387198925018)
(X_670  0.3760524392127991)
(X_671  0.5535181760787964)
(X_672  0.6340510249137878)
(X_673  0.6687744855880737)
(X_674  0.6413230895996094)
(X_675  0.6789011359214783)
(X_676  0.67238450050354)
(X_677  0.6872098445892334)
(X_678  0.6368444561958313)
(X_679  0.6243318319320679)
(X_680  0.641736626625061)
(X_681  0.5991919040679932)
(X_682  0.6280792951583862)
(X_683  0.6888949871063232)
(X_684  0.7380963563919067)
(X_685  0.7610171437263489)
(X_686  0.7667455077171326)
(X_687  0.7553536295890808)
(X_688  0.6347724199295044)
(X_689  0.6262781620025635)
(X_690  0.5522518754005432)
(X_691  0.511289656162262)
(X_692  0.529391884803772)
(X_693  0.5584574937820435)
(X_694  0.5229203104972839)
(X_695  0.4942304790019989)
(X_696  0.3283182680606842)
(X_697  0.2936764657497406)
(X_698  0.29276520013809204)
(X_699  0.3585737645626068)
(X_700  0.6647714376449585)
(X_701  0.6375734806060791)
(X_702  0.6537187695503235)
(X_703  0.6838513016700745)
(X_704  0.6896233558654785)
(X_705  0.6472548842430115)
(X_706  0.6525620222091675)
(X_707  0.6838274598121643)
(X_708  0.6902191638946533)
(X_709  0.6250008344650269)
(X_710  0.6793507933616638)
(X_711  0.6904486417770386)
(X_712  0.7299522757530212)
(X_713  0.7770704627037048)
(X_714  0.7344418168067932)
(X_715  0.7309427261352539)
(X_716  0.660659909248352)
(X_717  0.6290357112884521)
(X_718  0.5723505020141602)
(X_719  0.5554249286651611)
(X_720  0.5770798325538635)
(X_721  0.6200940608978271)
(X_722  0.5310393571853638)
(X_723  0.5456324219703674)
(X_724  0.5381491184234619)
(X_725  0.49044233560562134)
(X_726  0.4203004837036133)
(X_727  0.3804463744163513)
(X_728  0.6870376467704773)
(X_729  0.648276150226593)
(X_730  0.6974866986274719)
(X_731  0.6403756141662598)
(X_732  0.6760420799255371)
(X_733  0.7155433893203735)
(X_734  0.690102219581604)
(X_735  0.6978123188018799)
(X_736  0.6940114498138428)
(X_737  0.6633873581886292)
(X_738  0.7155059576034546)
(X_739  0.7423216700553894)
(X_740  0.7192450165748596)
(X_741  0.7820250988006592)
(X_742  0.7615717649459839)
(X_743  0.737957239151001)
(X_744  0.6655117869377136)
(X_745  0.6746423840522766)
(X_746  0.6245906949043274)
(X_747  0.6654579639434814)
(X_748  0.6221088767051697)
(X_749  0.6616459488868713)
(X_750  0.6151492595672607)
(X_751  0.627521812915802)
(X_752  0.6130490899085999)
(X_753  0.5794055461883545)
(X_754  0.5028275847434998)
(X_755  0.4819038510322571)
(X_756  0.6718592047691345)
(X_757  0.6648733615875244)
(X_758  0.7091840505599976)
(X_759  0.6936488151550293)
(X_760  0.6981135606765747)
(X_761  0.7300724387168884)
(X_762  0.7368798851966858)
(X_763  0.6939358115196228)
(X_764  0.680728554725647)
(X_765  0.7147525548934937)
(X_766  0.7420746684074402)
(X_767  0.7280881404876709)
(X_768  0.7485291361808777)
(X_769  0.7983031272888184)
(X_770  0.7281913161277771)
(X_771  0.6983492374420166)
(X_772  0.6880311369895935)
(X_773  0.6639487147331238)
(X_774  0.6578629612922668)
(X_775  0.6455892324447632)
(X_776  0.614425539970398)
(X_777  0.6467106938362122)
(X_778  0.6192770004272461)
(X_779  0.6482724547386169)
(X_780  0.6271276473999023)
(X_781  0.6106806397438049)
(X_782  0.5702672004699707)
(X_783  0.5502712726593018)
(Y_0 -0.01683548092842102))