((X_0  0.47921568155288696)
(X_1  0.4909803867340088)
(X_2  0.5576471090316772)
(X_3  0.6047059297561646)
(X_4  0.5419608354568481)
(X_5  0.4870588183403015)
(X_6  0.6164706349372864)
(X_7  0.8203921914100647)
(X_8  0.7733333706855774)
(X_9  0.6070588231086731)
(X_10  0.677647054195404)
(X_11  0.7521568536758423)
(X_12  0.6894117593765259)
(X_13  0.6933333277702332)
(X_14  0.7678431272506714)
(X_15  0.7639215588569641)
(X_16  0.7011764645576477)
(X_17  0.591372549533844)
(X_18  0.5011764764785767)
(X_19  0.4619608223438263)
(X_20  0.3835294246673584)
(X_21  0.3419607877731323)
(X_22  0.27529412508010864)
(X_23  0.2792156934738159)
(X_24  0.36941176652908325)
(X_25  0.43215686082839966)
(X_26  0.34039217233657837)
(X_27  0.2854902148246765)
(X_28  0.3325490355491638)
(X_29  0.34039217233657837)
(X_30  0.4752941131591797)
(X_31  0.5301960706710815)
(X_32  0.5145097970962524)
(X_33  0.5105882287025452)
(X_34  0.6282353401184082)
(X_35  0.7890196442604065)
(X_36  0.8517647385597229)
(X_37  0.7772549390792847)
(X_38  0.7443137168884277)
(X_39  0.7874509692192078)
(X_40  0.7168627381324768)
(X_41  0.7090196013450623)
(X_42  0.748235285282135)
(X_43  0.7090196013450623)
(X_44  0.6266666650772095)
(X_45  0.5678431391716003)
(X_46  0.5168627500534058)
(X_47  0.55372554063797)
(X_48  0.46745097637176514)
(X_49  0.3576470613479614)
(X_50  0.30274510383605957)
(X_51  0.3105882406234741)
(X_52  0.3772549033164978)
(X_53  0.4399999976158142)
(X_54  0.3521568775177002)
(X_55  0.29725492000579834)
(X_56  0.3835294246673584)
(X_57  0.45176470279693604)
(X_58  0.4596078395843506)
(X_59  0.48313724994659424)
(X_60  0.49882352352142334)
(X_61  0.5301960706710815)
(X_62  0.6125490665435791)
(X_63  0.6949020028114319)
(X_64  0.8125490546226501)
(X_65  0.7772549390792847)
(X_66  0.7403921484947205)
(X_67  0.7599999904632568)
(X_68  0.6972548961639404)
(X_69  0.6894117593765259)
(X_70  0.6972548961639404)
(X_71  0.6384313702583313)
(X_72  0.6752941608428955)
(X_73  0.5403921604156494)
(X_74  0.4776470959186554)
(X_75  0.434509813785553)
(X_76  0.47921568155288696)
(X_77  0.43607842922210693)
(X_78  0.408627450466156)
(X_79  0.40470588207244873)
(X_80  0.38509804010391235)
(X_81  0.3678431510925293)
(X_82  0.36000001430511475)
(X_83  0.3050980567932129)
(X_84  0.4109804034233093)
(X_85  0.46352940797805786)
(X_86  0.4243137240409851)
(X_87  0.4125490188598633)
(X_88  0.363921582698822)
(X_89  0.5066666603088379)
(X_90  0.5576471090316772)
(X_91  0.4972549378871918)
(X_92  0.6031372547149658)
(X_93  0.6188235282897949)
(X_94  0.677647054195404)
(X_95  0.7694118022918701)
(X_96  0.7223529815673828)
(X_97  0.7262745499610901)
(X_98  0.7341176867485046)
(X_99  0.6831372976303101)
(X_100  0.5639215707778931)
(X_101  0.5050980448722839)
(X_102  0.4501960873603821)
(X_103  0.4501960873603821)
(X_104  0.48549023270606995)
(X_105  0.48549023270606995)
(X_106  0.4266666769981384)
(X_107  0.36000001430511475)
(X_108  0.40078431367874146)
(X_109  0.3678431510925293)
(X_110  0.3521568775177002)
(X_111  0.3050980567932129)
(X_112  0.4031372666358948)
(X_113  0.3874509930610657)
(X_114  0.43215686082839966)
(X_115  0.42039215564727783)
(X_116  0.4752941131591797)
(X_117  0.48549023270606995)
(X_118  0.5364705920219421)
(X_119  0.5403921604156494)
(X_120  0.548235297203064)
(X_121  0.5992156863212585)
(X_122  0.6580392122268677)
(X_123  0.7341176867485046)
(X_124  0.6909804344177246)
(X_125  0.6831372976303101)
(X_126  0.6949020028114319)
(X_127  0.6831372976303101)
(X_128  0.5168627500534058)
(X_129  0.5011764764785767)
(X_130  0.5050980448722839)
(X_131  0.5325490236282349)
(X_132  0.5600000023841858)
(X_133  0.520784318447113)
(X_134  0.42274510860443115)
(X_135  0.3325490355491638)
(X_136  0.43215686082839966)
(X_137  0.3717647194862366)
(X_138  0.3364706039428711)
(X_139  0.29333335161209106)
(X_140  0.4596078395843506)
(X_141  0.3952941298484802)
(X_142  0.3992156982421875)
(X_143  0.48313724994659424)
(X_144  0.5262745022773743)
(X_145  0.520784318447113)
(X_146  0.5717647075653076)
(X_147  0.5835294127464294)
(X_148  0.5600000023841858)
(X_149  0.5992156863212585)
(X_150  0.6266666650772095)
(X_151  0.6988235712051392)
(X_152  0.6635294556617737)
(X_153  0.6321569085121155)
(X_154  0.5600000023841858)
(X_155  0.5835294127464294)
(X_156  0.5560784339904785)
(X_157  0.5364705920219421)
(X_158  0.5286274552345276)
(X_159  0.5286274552345276)
(X_160  0.5011764764785767)
(X_161  0.4501960873603821)
(X_162  0.40705883502960205)
(X_163  0.3874509930610657)
(X_164  0.4109804034233093)
(X_165  0.39137256145477295)
(X_166  0.320784330368042)
(X_167  0.27764707803726196)
(X_168  0.30901962518692017)
(X_169  0.363921582698822)
(X_170  0.4149019718170166)
(X_171  0.4305882453918457)
(X_172  0.4305882453918457)
(X_173  0.4462745189666748)
(X_174  0.48549023270606995)
(X_175  0.5129411816596985)
(X_176  0.5168627500534058)
(X_177  0.6007843613624573)
(X_178  0.59686279296875)
(X_179  0.6125490665435791)
(X_180  0.6243137717247009)
(X_181  0.6007843613624573)
(X_182  0.6047059297561646)
(X_183  0.5796078443527222)
(X_184  0.5874509811401367)
(X_185  0.5090196132659912)
(X_186  0.45803922414779663)
(X_187  0.4737255275249481)
(X_188  0.48156866431236267)
(X_189  0.45411765575408936)
(X_190  0.44235295057296753)
(X_191  0.4619608223438263)
(X_192  0.48549023270606995)
(X_193  0.4305882453918457)
(X_194  0.320784330368042)
(X_195  0.26588237285614014)
(X_196  0.3050980567932129)
(X_197  0.39137256145477295)
(X_198  0.48549023270606995)
(X_199  0.5129411816596985)
(X_200  0.48156866431236267)
(X_201  0.45803922414779663)
(X_202  0.48549023270606995)
(X_203  0.5247058868408203)
(X_204  0.4501960873603821)
(X_205  0.5027450919151306)
(X_206  0.4870588183403015)
(X_207  0.5419608354568481)
(X_208  0.6125490665435791)
(X_209  0.5286274552345276)
(X_210  0.5403921604156494)
(X_211  0.6109803915023804)
(X_212  0.6086274981498718)
(X_213  0.4149019718170166)
(X_214  0.3796078562736511)
(X_215  0.48549023270606995)
(X_216  0.5835294127464294)
(X_217  0.5600000023841858)
(X_218  0.48549023270606995)
(X_219  0.4462745189666748)
(X_220  0.5403921604156494)
(X_221  0.45803922414779663)
(X_222  0.32862746715545654)
(X_223  0.26588237285614014)
(X_224  0.32470589876174927)
(X_225  0.3992156982421875)
(X_226  0.520784318447113)
(X_227  0.5952941179275513)
(X_228  0.48156866431236267)
(X_229  0.5129411816596985)
(X_230  0.7301961183547974)
(X_231  0.5694118142127991)
(X_232  0.4596078395843506)
(X_233  0.5184313654899597)
(X_234  0.5145097970962524)
(X_235  0.5419608354568481)
(X_236  0.6360784769058228)
(X_237  0.5717647075653076)
(X_238  0.5364705920219421)
(X_239  0.64000004529953)
(X_240  0.59686279296875)
(X_241  0.5066666603088379)
(X_242  0.43607842922210693)
(X_243  0.45176470279693604)
(X_244  0.44235295057296753)
(X_245  0.4933333694934845)
(X_246  0.5050980448722839)
(X_247  0.5011764764785767)
(X_248  0.4776470959186554)
(X_249  0.44235295057296753)
(X_250  0.34039217233657837)
(X_251  0.2698039412498474)
(X_252  0.2894117832183838)
(X_253  0.42274510860443115)
(X_254  0.4776470959186554)
(X_255  0.548235297203064)
(X_256  0.5600000023841858)
(X_257  0.5364705920219421)
(X_258  0.5364705920219421)
(X_259  0.5105882287025452)
(X_260  0.38901960849761963)
(X_261  0.46745097637176514)
(X_262  0.4909803867340088)
(X_263  0.5341176390647888)
(X_264  0.64000004529953)
(X_265  0.591372549533844)
(X_266  0.5756862759590149)
(X_267  0.6949020028114319)
(X_268  0.59686279296875)
(X_269  0.44784313440322876)
(X_270  0.3262745141983032)
(X_271  0.33803921937942505)
(X_272  0.40470588207244873)
(X_273  0.3874509930610657)
(X_274  0.4737255275249481)
(X_275  0.5600000023841858)
(X_276  0.4462745189666748)
(X_277  0.4266666769981384)
(X_278  0.3482353091239929)
(X_279  0.28156864643096924)
(X_280  0.35372549295425415)
(X_281  0.5262745022773743)
(X_282  0.44235295057296753)
(X_283  0.5011764764785767)
(X_284  0.6149019598960876)
(X_285  0.520784318447113)
(X_286  0.4596078395843506)
(X_287  0.4243137240409851)
(X_288  0.43215686082839966)
(X_289  0.5301960706710815)
(X_290  0.5498039722442627)
(X_291  0.5615686774253845)
(X_292  0.6321569085121155)
(X_293  0.5560784339904785)
(X_294  0.5325490236282349)
(X_295  0.6478431820869446)
(X_296  0.6439216136932373)
(X_297  0.49490195512771606)
(X_298  0.40470588207244873)
(X_299  0.43607842922210693)
(X_300  0.4713725447654724)
(X_301  0.4752941131591797)
(X_302  0.46588239073753357)
(X_303  0.5756862759590149)
(X_304  0.4266666769981384)
(X_305  0.42274510860443115)
(X_306  0.3521568775177002)
(X_307  0.2894117832183838)
(X_308  0.3576470613479614)
(X_309  0.5105882287025452)
(X_310  0.45803922414779663)
(X_311  0.5050980448722839)
(X_312  0.591372549533844)
(X_313  0.5654902458190918)
(X_314  0.42039215564727783)
(X_315  0.4282352924346924)
(X_316  0.3772549033164978)
(X_317  0.5066666603088379)
(X_318  0.5576471090316772)
(X_319  0.5811765193939209)
(X_320  0.6556863188743591)
(X_321  0.6031372547149658)
(X_322  0.6792157292366028)
(X_323  0.7301961183547974)
(X_324  0.6125490665435791)
(X_325  0.522352933883667)
(X_326  0.46352940797805786)
(X_327  0.46352940797805786)
(X_328  0.44784313440322876)
(X_329  0.40470588207244873)
(X_330  0.34431374073028564)
(X_331  0.3992156982421875)
(X_332  0.45803922414779663)
(X_333  0.44235295057296753)
(X_334  0.35607844591140747)
(X_335  0.28156864643096924)
(X_336  0.38509804010391235)
(X_337  0.4752941131591797)
(X_338  0.5090196132659912)
(X_339  0.5325490236282349)
(X_340  0.48549023270606995)
(X_341  0.49882352352142334)
(X_342  0.45176470279693604)
(X_343  0.4596078395843506)
(X_344  0.4870588183403015)
(X_345  0.6125490665435791)
(X_346  0.6439216136932373)
(X_347  0.6164706349372864)
(X_348  0.6439216136932373)
(X_349  0.5560784339904785)
(X_350  0.5325490236282349)
(X_351  0.5678431391716003)
(X_352  0.6752941608428955)
(X_353  0.6243137717247009)
(X_354  0.5419608354568481)
(X_355  0.4556862711906433)
(X_356  0.40078431367874146)
(X_357  0.3929411768913269)
(X_358  0.41647058725357056)
(X_359  0.363921582698822)
(X_360  0.4894118010997772)
(X_361  0.46980395913124084)
(X_362  0.363921582698822)
(X_363  0.27764707803726196)
(X_364  0.4439215660095215)
(X_365  0.4031372666358948)
(X_366  0.548235297203064)
(X_367  0.5050980448722839)
(X_368  0.42039215564727783)
(X_369  0.38509804010391235)
(X_370  0.38509804010391235)
(X_371  0.3811764717102051)
(X_372  0.408627450466156)
(X_373  0.55372554063797)
(X_374  0.6047059297561646)
(X_375  0.6007843613624573)
(X_376  0.6635294556617737)
(X_377  0.6149019598960876)
(X_378  0.6227450966835022)
(X_379  0.6658823490142822)
(X_380  0.5364705920219421)
(X_381  0.59686279296875)
(X_382  0.5262745022773743)
(X_383  0.4243137240409851)
(X_384  0.365490198135376)
(X_385  0.365490198135376)
(X_386  0.38509804010391235)
(X_387  0.38509804010391235)
(X_388  0.45411765575408936)
(X_389  0.46588239073753357)
(X_390  0.39137256145477295)
(X_391  0.3011764883995056)
(X_392  0.46745097637176514)
(X_393  0.4305882453918457)
(X_394  0.5521568655967712)
(X_395  0.5262745022773743)
(X_396  0.36941176652908325)
(X_397  0.35372549295425415)
(X_398  0.31843137741088867)
(X_399  0.3145098090171814)
(X_400  0.4870588183403015)
(X_401  0.6203922033309937)
(X_402  0.6478431820869446)
(X_403  0.6203922033309937)
(X_404  0.5796078443527222)
(X_405  0.6031372547149658)
(X_406  0.591372549533844)
(X_407  0.6227450966835022)
(X_408  0.667451024055481)
(X_409  0.6439216136932373)
(X_410  0.6007843613624573)
(X_411  0.5458824038505554)
(X_412  0.48313724994659424)
(X_413  0.4439215660095215)
(X_414  0.43215686082839966)
(X_415  0.43215686082839966)
(X_416  0.4282352924346924)
(X_417  0.4305882453918457)
(X_418  0.4266666769981384)
(X_419  0.3482353091239929)
(X_420  0.43607842922210693)
(X_421  0.44235295057296753)
(X_422  0.5325490236282349)
(X_423  0.49490195512771606)
(X_424  0.4243137240409851)
(X_425  0.43215686082839966)
(X_426  0.35372549295425415)
(X_427  0.36941176652908325)
(X_428  0.48313724994659424)
(X_429  0.6203922033309937)
(X_430  0.6478431820869446)
(X_431  0.6243137717247009)
(X_432  0.6792157292366028)
(X_433  0.6384313702583313)
(X_434  0.634509801864624)
(X_435  0.6658823490142822)
(X_436  0.6188235282897949)
(X_437  0.6282353401184082)
(X_438  0.5654902458190918)
(X_439  0.5262745022773743)
(X_440  0.46352940797805786)
(X_441  0.31294119358062744)
(X_442  0.38509804010391235)
(X_443  0.4282352924346924)
(X_444  0.3301960825920105)
(X_445  0.3952941298484802)
(X_446  0.4501960873603821)
(X_447  0.39137256145477295)
(X_448  0.46352940797805786)
(X_449  0.5521568655967712)
(X_450  0.3874509930610657)
(X_451  0.3929411768913269)
(X_452  0.3968627452850342)
(X_453  0.3301960825920105)
(X_454  0.40470588207244873)
(X_455  0.408627450466156)
(X_456  0.5341176390647888)
(X_457  0.5890196561813354)
(X_458  0.6203922033309937)
(X_459  0.6439216136932373)
(X_460  0.6070588231086731)
(X_461  0.6149019598960876)
(X_462  0.6227450966835022)
(X_463  0.7380392551422119)
(X_464  0.6909804344177246)
(X_465  0.6125490665435791)
(X_466  0.6596078872680664)
(X_467  0.6556863188743591)
(X_468  0.5694118142127991)
(X_469  0.4596078395843506)
(X_470  0.3301960825920105)
(X_471  0.294901967048645)
(X_472  0.36941176652908325)
(X_473  0.3717647194862366)
(X_474  0.4894118010997772)
(X_475  0.3050980567932129)
(X_476  0.4909803867340088)
(X_477  0.5325490236282349)
(X_478  0.4399999976158142)
(X_479  0.3733333349227905)
(X_480  0.38509804010391235)
(X_481  0.3419607877731323)
(X_482  0.4243137240409851)
(X_483  0.4399999976158142)
(X_484  0.5066666603088379)
(X_485  0.5811765193939209)
(X_486  0.6282353401184082)
(X_487  0.6596078872680664)
(X_488  0.6909804344177246)
(X_489  0.6109803915023804)
(X_490  0.6188235282897949)
(X_491  0.6658823490142822)
(X_492  0.6305882334709167)
(X_493  0.6203922033309937)
(X_494  0.6478431820869446)
(X_495  0.64000004529953)
(X_496  0.5850980877876282)
(X_497  0.5301960706710815)
(X_498  0.4243137240409851)
(X_499  0.3811764717102051)
(X_500  0.43607842922210693)
(X_501  0.3733333349227905)
(X_502  0.3874509930610657)
(X_503  0.3482353091239929)
(X_504  0.3835294246673584)
(X_505  0.46980395913124084)
(X_506  0.41647058725357056)
(X_507  0.38901960849761963)
(X_508  0.4125490188598633)
(X_509  0.35372549295425415)
(X_510  0.38509804010391235)
(X_511  0.36941176652908325)
(X_512  0.43607842922210693)
(X_513  0.5301960706710815)
(X_514  0.6047059297561646)
(X_515  0.6478431820869446)
(X_516  0.6870588660240173)
(X_517  0.6070588231086731)
(X_518  0.6188235282897949)
(X_519  0.6658823490142822)
(X_520  0.6870588660240173)
(X_521  0.6007843613624573)
(X_522  0.6125490665435791)
(X_523  0.5929412245750427)
(X_524  0.5694118142127991)
(X_525  0.55372554063797)
(X_526  0.4399999976158142)
(X_527  0.3576470613479614)
(X_528  0.36941176652908325)
(X_529  0.2792156934738159)
(X_530  0.3364706039428711)
(X_531  0.4149019718170166)
(X_532  0.4031372666358948)
(X_533  0.4149019718170166)
(X_534  0.2854902148246765)
(X_535  0.3498039245605469)
(X_536  0.3733333349227905)
(X_537  0.3301960825920105)
(X_538  0.33803921937942505)
(X_539  0.3262745141983032)
(X_540  0.3811764717102051)
(X_541  0.46745097637176514)
(X_542  0.5458824038505554)
(X_543  0.6125490665435791)
(X_544  0.6792157292366028)
(X_545  0.6109803915023804)
(X_546  0.6149019598960876)
(X_547  0.6501960754394531)
(X_548  0.7301961183547974)
(X_549  0.6478431820869446)
(X_550  0.6556863188743591)
(X_551  0.6321569085121155)
(X_552  0.6125490665435791)
(X_553  0.59686279296875)
(X_554  0.4439215660095215)
(X_555  0.31843137741088867)
(X_556  0.251764714717865)
(X_557  0.25568628311157227)
(X_558  0.36000001430511475)
(X_559  0.46588239073753357)
(X_560  0.48549023270606995)
(X_561  0.3874509930610657)
(X_562  0.30274510383605957)
(X_563  0.27137255668640137)
(X_564  0.30666667222976685)
(X_565  0.32235294580459595)
(X_566  0.3811764717102051)
(X_567  0.41647058725357056)
(X_568  0.4125490188598633)
(X_569  0.4713725447654724)
(X_570  0.522352933883667)
(X_571  0.5929412245750427)
(X_572  0.6831372976303101)
(X_573  0.6266666650772095)
(X_574  0.6109803915023804)
(X_575  0.6227450966835022)
(X_576  0.6596078872680664)
(X_577  0.5733333826065063)
(X_578  0.5733333826065063)
(X_579  0.5458824038505554)
(X_580  0.5341176390647888)
(X_581  0.522352933883667)
(X_582  0.36941176652908325)
(X_583  0.24000000953674316)
(X_584  0.28705883026123047)
(X_585  0.27529412508010864)
(X_586  0.31294119358062744)
(X_587  0.4501960873603821)
(X_588  0.48156866431236267)
(X_589  0.34431374073028564)
(X_590  0.31843137741088867)
(X_591  0.2580392360687256)
(X_592  0.3050980567932129)
(X_593  0.34039217233657837)
(X_594  0.39137256145477295)
(X_595  0.43843138217926025)
(X_596  0.44235295057296753)
(X_597  0.55372554063797)
(X_598  0.5654902458190918)
(X_599  0.6164706349372864)
(X_600  0.6988235712051392)
(X_601  0.6384313702583313)
(X_602  0.6149019598960876)
(X_603  0.6188235282897949)
(X_604  0.7262745499610901)
(X_605  0.6203922033309937)
(X_606  0.6203922033309937)
(X_607  0.6047059297561646)
(X_608  0.59686279296875)
(X_609  0.6007843613624573)
(X_610  0.49490195512771606)
(X_611  0.4125490188598633)
(X_612  0.32862746715545654)
(X_613  0.20705881714820862)
(X_614  0.1796078383922577)
(X_615  0.3796078562736511)
(X_616  0.44235295057296753)
(X_617  0.3168627619743347)
(X_618  0.30901962518692017)
(X_619  0.3992156982421875)
(X_620  0.46588239073753357)
(X_621  0.48156866431236267)
(X_622  0.48549023270606995)
(X_623  0.5129411816596985)
(X_624  0.6282353401184082)
(X_625  0.5639215707778931)
(X_626  0.6360784769058228)
(X_627  0.6556863188743591)
(X_628  0.7145098447799683)
(X_629  0.6462745070457458)
(X_630  0.7145098447799683)
(X_631  0.7262745499610901)
(X_632  0.7262745499610901)
(X_633  0.6203922033309937)
(X_634  0.64000004529953)
(X_635  0.6478431820869446)
(X_636  0.64000004529953)
(X_637  0.6321569085121155)
(X_638  0.5498039722442627)
(X_639  0.5145097970962524)
(X_640  0.40705883502960205)
(X_641  0.31294119358062744)
(X_642  0.1796078383922577)
(X_643  0.34039217233657837)
(X_644  0.46980395913124084)
(X_645  0.3325490355491638)
(X_646  0.3482353091239929)
(X_647  0.45411765575408936)
(X_648  0.5247058868408203)
(X_649  0.548235297203064)
(X_650  0.5560784339904785)
(X_651  0.6752941608428955)
(X_652  0.6713725924491882)
(X_653  0.6909804344177246)
(X_654  0.6792157292366028)
(X_655  0.5992156863212585)
(X_656  0.6384313702583313)
(X_657  0.6501960754394531)
(X_658  0.6541176438331604)
(X_659  0.6854901909828186)
(X_660  0.753725528717041)
(X_661  0.6556863188743591)
(X_662  0.7027451395988464)
(X_663  0.7380392551422119)
(X_664  0.6384313702583313)
(X_665  0.6752941608428955)
(X_666  0.5850980877876282)
(X_667  0.5615686774253845)
(X_668  0.5262745022773743)
(X_669  0.5576471090316772)
(X_670  0.3168627619743347)
(X_671  0.35607844591140747)
(X_672  0.434509813785553)
(X_673  0.4305882453918457)
(X_674  0.45803922414779663)
(X_675  0.5129411816596985)
(X_676  0.5403921604156494)
(X_677  0.6360784769058228)
(X_678  0.5992156863212585)
(X_679  0.6541176438331604)
(X_680  0.6384313702583313)
(X_681  0.6658823490142822)
(X_682  0.7223529815673828)
(X_683  0.6305882334709167)
(X_684  0.6698039174079895)
(X_685  0.6894117593765259)
(X_686  0.6854901909828186)
(X_687  0.6972548961639404)
(X_688  0.7380392551422119)
(X_689  0.7066667079925537)
(X_690  0.7184314131736755)
(X_691  0.6541176438331604)
(X_692  0.7066667079925537)
(X_693  0.6792157292366028)
(X_694  0.6360784769058228)
(X_695  0.5654902458190918)
(X_696  0.55372554063797)
(X_697  0.5498039722442627)
(X_698  0.5301960706710815)
(X_699  0.49490195512771606)
(X_700  0.42274510860443115)
(X_701  0.4619608223438263)
(X_702  0.5011764764785767)
(X_703  0.5286274552345276)
(X_704  0.5600000023841858)
(X_705  0.6031372547149658)
(X_706  0.6305882334709167)
(X_707  0.7184314131736755)
(X_708  0.6423529386520386)
(X_709  0.6698039174079895)
(X_710  0.6501960754394531)
(X_711  0.634509801864624)
(X_712  0.6737254858016968)
(X_713  0.6933333277702332)
(X_714  0.6894117593765259)
(X_715  0.7011764645576477)
(X_716  0.7615686655044556)
(X_717  0.7301961183547974)
(X_718  0.6501960754394531)
(X_719  0.6384313702583313)
(X_720  0.591372549533844)
(X_721  0.6439216136932373)
(X_722  0.6243137717247009)
(X_723  0.5772549510002136)
(X_724  0.5929412245750427)
(X_725  0.5811765193939209)
(X_726  0.5458824038505554)
(X_727  0.49882352352142334)
(X_728  0.49490195512771606)
(X_729  0.5615686774253845)
(X_730  0.6125490665435791)
(X_731  0.5443137288093567)
(X_732  0.5796078443527222)
(X_733  0.6384313702583313)
(X_734  0.6501960754394531)
(X_735  0.6266666650772095)
(X_736  0.6501960754394531)
(X_737  0.677647054195404)
(X_738  0.6541176438331604)
(X_739  0.6384313702583313)
(X_740  0.677647054195404)
(X_741  0.6972548961639404)
(X_742  0.6933333277702332)
(X_743  0.705098032951355)
(X_744  0.6737254858016968)
(X_745  0.6384313702583313)
(X_746  0.6266666650772095)
(X_747  0.5992156863212585)
(X_748  0.5443137288093567)
(X_749  0.5286274552345276)
(X_750  0.6164706349372864)
(X_751  0.5129411816596985)
(X_752  0.6203922033309937)
(X_753  0.6007843613624573)
(X_754  0.4776470959186554)
(X_755  0.5027450919151306)
(X_756  0.5027450919151306)
(X_757  0.5458824038505554)
(X_758  0.5168627500534058)
(X_759  0.5560784339904785)
(X_760  0.5952941179275513)
(X_761  0.6266666650772095)
(X_762  0.6384313702583313)
(X_763  0.6305882334709167)
(X_764  0.6580392122268677)
(X_765  0.6854901909828186)
(X_766  0.661960780620575)
(X_767  0.6462745070457458)
(X_768  0.6854901909828186)
(X_769  0.7011764645576477)
(X_770  0.6972548961639404)
(X_771  0.7890196442604065)
(X_772  0.6384313702583313)
(X_773  0.591372549533844)
(X_774  0.5717647075653076)
(X_775  0.5521568655967712)
(X_776  0.5168627500534058)
(X_777  0.5247058868408203)
(X_778  0.5403921604156494)
(X_779  0.5168627500534058)
(X_780  0.5247058868408203)
(X_781  0.5129411816596985)
(X_782  0.5576471090316772)
(X_783  0.434509813785553)
(Y_0 0.95660400390625))