((X_0  0.4892234802246094)
(X_1  0.5781620144844055)
(X_2  0.6106702089309692)
(X_3  0.5224173069000244)
(X_4  0.5494738817214966)
(X_5  0.7026885151863098)
(X_6  0.7635067105293274)
(X_7  0.7657504081726074)
(X_8  0.7540577054023743)
(X_9  0.7823487520217896)
(X_10  0.789230227470398)
(X_11  0.7245886921882629)
(X_12  0.7526113390922546)
(X_13  0.743302583694458)
(X_14  0.7411894798278809)
(X_15  0.7113483548164368)
(X_16  0.7399866580963135)
(X_17  0.7139395475387573)
(X_18  0.7447772026062012)
(X_19  0.7350265383720398)
(X_20  0.6786780953407288)
(X_21  0.6939535737037659)
(X_22  0.6295934319496155)
(X_23  0.6098068356513977)
(X_24  0.6034470200538635)
(X_25  0.5512235164642334)
(X_26  0.5989899635314941)
(X_27  0.5874745845794678)
(X_28  0.45381906628608704)
(X_29  0.46871960163116455)
(X_30  0.5335456132888794)
(X_31  0.568229615688324)
(X_32  0.6085205078125)
(X_33  0.6521260738372803)
(X_34  0.7163907289505005)
(X_35  0.7550499439239502)
(X_36  0.8086186051368713)
(X_37  0.7246558666229248)
(X_38  0.7368354797363281)
(X_39  0.7108396291732788)
(X_40  0.7401602864265442)
(X_41  0.7700670957565308)
(X_42  0.7529663443565369)
(X_43  0.7636303305625916)
(X_44  0.7160136699676514)
(X_45  0.7381869554519653)
(X_46  0.7632783651351929)
(X_47  0.7893670797348022)
(X_48  0.759238600730896)
(X_49  0.7502211928367615)
(X_50  0.7296082973480225)
(X_51  0.7193097472190857)
(X_52  0.6165890097618103)
(X_53  0.6393381357192993)
(X_54  0.6046128869056702)
(X_55  0.5663099884986877)
(X_56  0.4570923447608948)
(X_57  0.5025803446769714)
(X_58  0.5897473096847534)
(X_59  0.6904636025428772)
(X_60  0.6707856059074402)
(X_61  0.6609728932380676)
(X_62  0.7186691761016846)
(X_63  0.7316763997077942)
(X_64  0.7290182113647461)
(X_65  0.6211065649986267)
(X_66  0.6012958884239197)
(X_67  0.6541881561279297)
(X_68  0.7145724892616272)
(X_69  0.7284330129623413)
(X_70  0.7126573324203491)
(X_71  0.7252612113952637)
(X_72  0.7484522461891174)
(X_73  0.7484930753707886)
(X_74  0.7457783818244934)
(X_75  0.7158529758453369)
(X_76  0.7357784509658813)
(X_77  0.7580044269561768)
(X_78  0.7504072785377502)
(X_79  0.741168737411499)
(X_80  0.671177327632904)
(X_81  0.647230863571167)
(X_82  0.6466121673583984)
(X_83  0.5806066393852234)
(X_84  0.4778384268283844)
(X_85  0.5939647555351257)
(X_86  0.7186156511306763)
(X_87  0.6523001790046692)
(X_88  0.6981135010719299)
(X_89  0.6804176568984985)
(X_90  0.7530831694602966)
(X_91  0.6715499758720398)
(X_92  0.637641966342926)
(X_93  0.5586085319519043)
(X_94  0.5882460474967957)
(X_95  0.6822537183761597)
(X_96  0.8061057329177856)
(X_97  0.7960333228111267)
(X_98  0.8092366456985474)
(X_99  0.741093099117279)
(X_100  0.8134931921958923)
(X_101  0.7624969482421875)
(X_102  0.693601667881012)
(X_103  0.6287201642990112)
(X_104  0.703501284122467)
(X_105  0.6911933422088623)
(X_106  0.717165470123291)
(X_107  0.7284102439880371)
(X_108  0.6905850172042847)
(X_109  0.710625946521759)
(X_110  0.6533401608467102)
(X_111  0.6572151780128479)
(X_112  0.5573205947875977)
(X_113  0.6138018369674683)
(X_114  0.684440553188324)
(X_115  0.6824066638946533)
(X_116  0.7209936380386353)
(X_117  0.68864905834198)
(X_118  0.6834529042243958)
(X_119  0.5935009717941284)
(X_120  0.5267412662506104)
(X_121  0.512802243232727)
(X_122  0.5839048624038696)
(X_123  0.686646580696106)
(X_124  0.753170907497406)
(X_125  0.8032011985778809)
(X_126  0.8253300786018372)
(X_127  0.814659833908081)
(X_128  0.8387616872787476)
(X_129  0.7731152772903442)
(X_130  0.6124968528747559)
(X_131  0.5349042415618896)
(X_132  0.589201033115387)
(X_133  0.6961777210235596)
(X_134  0.7308374047279358)
(X_135  0.747952938079834)
(X_136  0.7261255979537964)
(X_137  0.6916417479515076)
(X_138  0.7284213900566101)
(X_139  0.6457894444465637)
(X_140  0.5868393182754517)
(X_141  0.6052461266517639)
(X_142  0.6345906853675842)
(X_143  0.7067346572875977)
(X_144  0.7173742055892944)
(X_145  0.6311342120170593)
(X_146  0.5867414474487305)
(X_147  0.48605963587760925)
(X_148  0.3965984880924225)
(X_149  0.4717870354652405)
(X_150  0.47475942969322205)
(X_151  0.6210490465164185)
(X_152  0.6989763379096985)
(X_153  0.7291950583457947)
(X_154  0.7963667511940002)
(X_155  0.8118481636047363)
(X_156  0.7736487984657288)
(X_157  0.6643816232681274)
(X_158  0.546794056892395)
(X_159  0.5016623735427856)
(X_160  0.47814294695854187)
(X_161  0.621575117111206)
(X_162  0.6745153665542603)
(X_163  0.703379213809967)
(X_164  0.6859579086303711)
(X_165  0.7002648115158081)
(X_166  0.7601341009140015)
(X_167  0.6795375943183899)
(X_168  0.5599079132080078)
(X_169  0.5791528224945068)
(X_170  0.7249806523323059)
(X_171  0.7354612946510315)
(X_172  0.694100558757782)
(X_173  0.5466022491455078)
(X_174  0.5029645562171936)
(X_175  0.4861104190349579)
(X_176  0.47072893381118774)
(X_177  0.46235910058021545)
(X_178  0.5016846060752869)
(X_179  0.6743383407592773)
(X_180  0.7812907099723816)
(X_181  0.8371185064315796)
(X_182  0.8510861396789551)
(X_183  0.8472930788993835)
(X_184  0.8197163343429565)
(X_185  0.6935985088348389)
(X_186  0.5800972580909729)
(X_187  0.46165841817855835)
(X_188  0.4996339678764343)
(X_189  0.5038260221481323)
(X_190  0.5554348826408386)
(X_191  0.6546006202697754)
(X_192  0.7406154870986938)
(X_193  0.7719850540161133)
(X_194  0.7735822200775146)
(X_195  0.7503959536552429)
(X_196  0.4903786778450012)
(X_197  0.607410192489624)
(X_198  0.7268639206886292)
(X_199  0.6848257184028625)
(X_200  0.547679603099823)
(X_201  0.555338978767395)
(X_202  0.5115997195243835)
(X_203  0.4438073933124542)
(X_204  0.44907045364379883)
(X_205  0.47814077138900757)
(X_206  0.51059490442276)
(X_207  0.5973924994468689)
(X_208  0.7429912686347961)
(X_209  0.8347190618515015)
(X_210  0.8314931392669678)
(X_211  0.7704107761383057)
(X_212  0.8001953363418579)
(X_213  0.686902642250061)
(X_214  0.6111543774604797)
(X_215  0.5036746859550476)
(X_216  0.4474906921386719)
(X_217  0.43318861722946167)
(X_218  0.5429286956787109)
(X_219  0.557316243648529)
(X_220  0.7450251579284668)
(X_221  0.7086241245269775)
(X_222  0.6794674396514893)
(X_223  0.6633237600326538)
(X_224  0.5632768869400024)
(X_225  0.6608557105064392)
(X_226  0.6878867149353027)
(X_227  0.678066611289978)
(X_228  0.5433881878852844)
(X_229  0.4603710174560547)
(X_230  0.44128817319869995)
(X_231  0.4078795909881592)
(X_232  0.5154348611831665)
(X_233  0.5154216885566711)
(X_234  0.5536736249923706)
(X_235  0.6628760695457458)
(X_236  0.7209963202476501)
(X_237  0.7928521037101746)
(X_238  0.8299720287322998)
(X_239  0.7613353133201599)
(X_240  0.7604819536209106)
(X_241  0.7217647433280945)
(X_242  0.5503888726234436)
(X_243  0.4914471507072449)
(X_244  0.5446603298187256)
(X_245  0.5136312246322632)
(X_246  0.5910303592681885)
(X_247  0.602308452129364)
(X_248  0.6734665036201477)
(X_249  0.741035521030426)
(X_250  0.7149915099143982)
(X_251  0.6886451840400696)
(X_252  0.6418815851211548)
(X_253  0.614167332649231)
(X_254  0.5396553874015808)
(X_255  0.569928765296936)
(X_256  0.5084719061851501)
(X_257  0.5599148273468018)
(X_258  0.5507963299751282)
(X_259  0.5261902809143066)
(X_260  0.484505295753479)
(X_261  0.5060475468635559)
(X_262  0.5969850420951843)
(X_263  0.6974306702613831)
(X_264  0.7297313213348389)
(X_265  0.8349190950393677)
(X_266  0.8007902503013611)
(X_267  0.7770509719848633)
(X_268  0.7964712381362915)
(X_269  0.7403799891471863)
(X_270  0.6735294461250305)
(X_271  0.5707916617393494)
(X_272  0.4853174090385437)
(X_273  0.45894932746887207)
(X_274  0.47404155135154724)
(X_275  0.4843359589576721)
(X_276  0.5431373715400696)
(X_277  0.6403011083602905)
(X_278  0.7031261324882507)
(X_279  0.7284004092216492)
(X_280  0.6630181670188904)
(X_281  0.5953692197799683)
(X_282  0.4904663860797882)
(X_283  0.4611414670944214)
(X_284  0.4522015154361725)
(X_285  0.42018958926200867)
(X_286  0.3417865037918091)
(X_287  0.33690962195396423)
(X_288  0.46861374378204346)
(X_289  0.505387544631958)
(X_290  0.6538389325141907)
(X_291  0.7212231159210205)
(X_292  0.7768011689186096)
(X_293  0.8272509574890137)
(X_294  0.8022328019142151)
(X_295  0.8403915166854858)
(X_296  0.7386425733566284)
(X_297  0.8006826639175415)
(X_298  0.7064406275749207)
(X_299  0.5909299850463867)
(X_300  0.5352784395217896)
(X_301  0.45416775345802307)
(X_302  0.4784480333328247)
(X_303  0.5554913282394409)
(X_304  0.5673892498016357)
(X_305  0.583115816116333)
(X_306  0.6492646336555481)
(X_307  0.726780116558075)
(X_308  0.6740394234657288)
(X_309  0.5531254410743713)
(X_310  0.4471133053302765)
(X_311  0.39569729566574097)
(X_312  0.34804660081863403)
(X_313  0.3385297656059265)
(X_314  0.40310195088386536)
(X_315  0.45471128821372986)
(X_316  0.515791118144989)
(X_317  0.5468320846557617)
(X_318  0.653135359287262)
(X_319  0.7455261945724487)
(X_320  0.8157574534416199)
(X_321  0.8428228497505188)
(X_322  0.8249170780181885)
(X_323  0.8058155179023743)
(X_324  0.8064690232276917)
(X_325  0.7562637329101562)
(X_326  0.715030312538147)
(X_327  0.5956828594207764)
(X_328  0.5586888790130615)
(X_329  0.4774821698665619)
(X_330  0.4377824366092682)
(X_331  0.5300062298774719)
(X_332  0.5496768355369568)
(X_333  0.5869777202606201)
(X_334  0.6482759118080139)
(X_335  0.72538161277771)
(X_336  0.5141907930374146)
(X_337  0.45028766989707947)
(X_338  0.4615024924278259)
(X_339  0.4968424141407013)
(X_340  0.47537264227867126)
(X_341  0.40340468287467957)
(X_342  0.4321873188018799)
(X_343  0.45392146706581116)
(X_344  0.5245182514190674)
(X_345  0.5654242038726807)
(X_346  0.6812416911125183)
(X_347  0.712871253490448)
(X_348  0.8079838752746582)
(X_349  0.8254148960113525)
(X_350  0.8224460482597351)
(X_351  0.8011350631713867)
(X_352  0.7691270709037781)
(X_353  0.7643824815750122)
(X_354  0.6609802842140198)
(X_355  0.6331652998924255)
(X_356  0.5410553812980652)
(X_357  0.4508052468299866)
(X_358  0.4132871627807617)
(X_359  0.48397913575172424)
(X_360  0.4864930510520935)
(X_361  0.505156397819519)
(X_362  0.5900411009788513)
(X_363  0.6688518524169922)
(X_364  0.4639096260070801)
(X_365  0.40816208720207214)
(X_366  0.40270933508872986)
(X_367  0.41402310132980347)
(X_368  0.3725506365299225)
(X_369  0.3701120615005493)
(X_370  0.4743843376636505)
(X_371  0.5868379473686218)
(X_372  0.5828903913497925)
(X_373  0.6770467162132263)
(X_374  0.6756237745285034)
(X_375  0.7484903931617737)
(X_376  0.8110974431037903)
(X_377  0.8459591865539551)
(X_378  0.8214343190193176)
(X_379  0.8219279050827026)
(X_380  0.7719025015830994)
(X_381  0.7887890934944153)
(X_382  0.6784145832061768)
(X_383  0.5686103105545044)
(X_384  0.5817208290100098)
(X_385  0.5114176869392395)
(X_386  0.4713013768196106)
(X_387  0.4140733480453491)
(X_388  0.4055561125278473)
(X_389  0.48732078075408936)
(X_390  0.5618889331817627)
(X_391  0.6253963708877563)
(X_392  0.41978150606155396)
(X_393  0.398615300655365)
(X_394  0.4001893103122711)
(X_395  0.3972246050834656)
(X_396  0.41915732622146606)
(X_397  0.4867158532142639)
(X_398  0.5452417135238647)
(X_399  0.5314377546310425)
(X_400  0.5806742310523987)
(X_401  0.6011711359024048)
(X_402  0.731249213218689)
(X_403  0.8104186654090881)
(X_404  0.7801835536956787)
(X_405  0.8512389063835144)
(X_406  0.8096428513526917)
(X_407  0.8352300524711609)
(X_408  0.8004365563392639)
(X_409  0.7953402400016785)
(X_410  0.7498016953468323)
(X_411  0.6198857426643372)
(X_412  0.5834401845932007)
(X_413  0.520500898361206)
(X_414  0.40169936418533325)
(X_415  0.38136041164398193)
(X_416  0.3935636878013611)
(X_417  0.4996858835220337)
(X_418  0.5438785552978516)
(X_419  0.5700438022613525)
(X_420  0.5401666164398193)
(X_421  0.46476662158966064)
(X_422  0.41684257984161377)
(X_423  0.3319256901741028)
(X_424  0.3201145529747009)
(X_425  0.3873124122619629)
(X_426  0.4363580346107483)
(X_427  0.467610239982605)
(X_428  0.5216294527053833)
(X_429  0.600970447063446)
(X_430  0.7065165042877197)
(X_431  0.8079800605773926)
(X_432  0.7915468811988831)
(X_433  0.7959691286087036)
(X_434  0.8607100248336792)
(X_435  0.896524965763092)
(X_436  0.7280181646347046)
(X_437  0.7543630003929138)
(X_438  0.7026751637458801)
(X_439  0.7060645222663879)
(X_440  0.6288177967071533)
(X_441  0.581700325012207)
(X_442  0.49490877985954285)
(X_443  0.465096116065979)
(X_444  0.40524548292160034)
(X_445  0.4786556661128998)
(X_446  0.5163893103599548)
(X_447  0.4935544431209564)
(X_448  0.3391677439212799)
(X_449  0.3347945511341095)
(X_450  0.3320762515068054)
(X_451  0.3681859076023102)
(X_452  0.39158815145492554)
(X_453  0.4143316149711609)
(X_454  0.5234299302101135)
(X_455  0.516038715839386)
(X_456  0.5695137977600098)
(X_457  0.7037554383277893)
(X_458  0.7839453816413879)
(X_459  0.8066136837005615)
(X_460  0.8204396367073059)
(X_461  0.8379034399986267)
(X_462  0.8697476387023926)
(X_463  0.8486418128013611)
(X_464  0.8256160020828247)
(X_465  0.8101093173027039)
(X_466  0.7706605195999146)
(X_467  0.7150875329971313)
(X_468  0.6425507664680481)
(X_469  0.5049113035202026)
(X_470  0.44605928659439087)
(X_471  0.48197314143180847)
(X_472  0.49226856231689453)
(X_473  0.36343666911125183)
(X_474  0.3995267450809479)
(X_475  0.4219019412994385)
(X_476  0.2946741282939911)
(X_477  0.32439109683036804)
(X_478  0.4108612835407257)
(X_479  0.4456770122051239)
(X_480  0.45412200689315796)
(X_481  0.4570232033729553)
(X_482  0.4459097981452942)
(X_483  0.45347312092781067)
(X_484  0.5186510682106018)
(X_485  0.612903356552124)
(X_486  0.7168647646903992)
(X_487  0.7417280077934265)
(X_488  0.8314156532287598)
(X_489  0.850347101688385)
(X_490  0.8692952990531921)
(X_491  0.851006805896759)
(X_492  0.8541004061698914)
(X_493  0.7605360746383667)
(X_494  0.7733268141746521)
(X_495  0.725619912147522)
(X_496  0.7308170199394226)
(X_497  0.6377785205841064)
(X_498  0.41658005118370056)
(X_499  0.37077653408050537)
(X_500  0.31133338809013367)
(X_501  0.36371374130249023)
(X_502  0.47384554147720337)
(X_503  0.46696755290031433)
(X_504  0.36924198269844055)
(X_505  0.3429495096206665)
(X_506  0.3751606345176697)
(X_507  0.3723514974117279)
(X_508  0.35871246457099915)
(X_509  0.31492310762405396)
(X_510  0.44497448205947876)
(X_511  0.44019460678100586)
(X_512  0.4627186357975006)
(X_513  0.5561490058898926)
(X_514  0.7202842235565186)
(X_515  0.7921666502952576)
(X_516  0.8285973072052002)
(X_517  0.8486086130142212)
(X_518  0.8758101463317871)
(X_519  0.8141185641288757)
(X_520  0.7902353405952454)
(X_521  0.7968523502349854)
(X_522  0.7371541261672974)
(X_523  0.781215250492096)
(X_524  0.715108335018158)
(X_525  0.6368873715400696)
(X_526  0.48879188299179077)
(X_527  0.4163213074207306)
(X_528  0.34690195322036743)
(X_529  0.37819355726242065)
(X_530  0.4888959527015686)
(X_531  0.5235971212387085)
(X_532  0.4129713475704193)
(X_533  0.36523324251174927)
(X_534  0.26123276352882385)
(X_535  0.24539676308631897)
(X_536  0.3093540370464325)
(X_537  0.3636440932750702)
(X_538  0.4455459415912628)
(X_539  0.44951871037483215)
(X_540  0.5058838725090027)
(X_541  0.5459365844726562)
(X_542  0.6715840101242065)
(X_543  0.7480268478393555)
(X_544  0.7927235960960388)
(X_545  0.8521640300750732)
(X_546  0.8693867325782776)
(X_547  0.8471689820289612)
(X_548  0.8504100441932678)
(X_549  0.7452499270439148)
(X_550  0.7384902238845825)
(X_551  0.7178291082382202)
(X_552  0.7125753164291382)
(X_553  0.5744519829750061)
(X_554  0.4629456698894501)
(X_555  0.40424299240112305)
(X_556  0.37695929408073425)
(X_557  0.4051293432712555)
(X_558  0.3975798189640045)
(X_559  0.4024873375892639)
(X_560  0.3628613352775574)
(X_561  0.3785512447357178)
(X_562  0.41167619824409485)
(X_563  0.5138956308364868)
(X_564  0.5503764748573303)
(X_565  0.5699757933616638)
(X_566  0.5664083957672119)
(X_567  0.5326383113861084)
(X_568  0.5795214772224426)
(X_569  0.5889286398887634)
(X_570  0.7050366997718811)
(X_571  0.7198959589004517)
(X_572  0.7830080986022949)
(X_573  0.8504504561424255)
(X_574  0.8237680196762085)
(X_575  0.8328889012336731)
(X_576  0.7700972557067871)
(X_577  0.7134189605712891)
(X_578  0.7144787907600403)
(X_579  0.7653353810310364)
(X_580  0.7147529125213623)
(X_581  0.6226884722709656)
(X_582  0.4555502235889435)
(X_583  0.3848384618759155)
(X_584  0.3151390850543976)
(X_585  0.3452177941799164)
(X_586  0.3335675001144409)
(X_587  0.3716721534729004)
(X_588  0.4356265366077423)
(X_589  0.5735638737678528)
(X_590  0.608535647392273)
(X_591  0.708358645439148)
(X_592  0.7160964608192444)
(X_593  0.7679743766784668)
(X_594  0.7458295822143555)
(X_595  0.7253748178482056)
(X_596  0.6867769956588745)
(X_597  0.7474442720413208)
(X_598  0.7249792814254761)
(X_599  0.7762131690979004)
(X_600  0.8093920946121216)
(X_601  0.8260518908500671)
(X_602  0.8493039011955261)
(X_603  0.8580901026725769)
(X_604  0.8006610870361328)
(X_605  0.7332377433776855)
(X_606  0.681209921836853)
(X_607  0.7124893069267273)
(X_608  0.6746531128883362)
(X_609  0.5768927335739136)
(X_610  0.477175235748291)
(X_611  0.41072118282318115)
(X_612  0.32462775707244873)
(X_613  0.24965235590934753)
(X_614  0.3027513921260834)
(X_615  0.40916186571121216)
(X_616  0.6726614236831665)
(X_617  0.7541331052780151)
(X_618  0.7513108849525452)
(X_619  0.7803505659103394)
(X_620  0.7406044006347656)
(X_621  0.8264709711074829)
(X_622  0.8427736163139343)
(X_623  0.8609561324119568)
(X_624  0.8390041589736938)
(X_625  0.8063299059867859)
(X_626  0.866637110710144)
(X_627  0.8972480297088623)
(X_628  0.9002065062522888)
(X_629  0.816324770450592)
(X_630  0.8744726181030273)
(X_631  0.8574975728988647)
(X_632  0.7891765236854553)
(X_633  0.755090057849884)
(X_634  0.7796958088874817)
(X_635  0.665866494178772)
(X_636  0.5985622406005859)
(X_637  0.4339720904827118)
(X_638  0.39121735095977783)
(X_639  0.35614052414894104)
(X_640  0.37061402201652527)
(X_641  0.3046058118343353)
(X_642  0.32179635763168335)
(X_643  0.37200209498405457)
(X_644  0.664978563785553)
(X_645  0.7528975009918213)
(X_646  0.7527500987052917)
(X_647  0.8406156897544861)
(X_648  0.8242028951644897)
(X_649  0.8302367925643921)
(X_650  0.8086522817611694)
(X_651  0.7790353298187256)
(X_652  0.8419520854949951)
(X_653  0.8473045825958252)
(X_654  0.7820751667022705)
(X_655  0.8515263795852661)
(X_656  0.8633047342300415)
(X_657  0.9045854806900024)
(X_658  0.9095074534416199)
(X_659  0.8854013681411743)
(X_660  0.7967032790184021)
(X_661  0.7643078565597534)
(X_662  0.7416406273841858)
(X_663  0.7774198055267334)
(X_664  0.7815385460853577)
(X_665  0.7065279483795166)
(X_666  0.5334575176239014)
(X_667  0.40534013509750366)
(X_668  0.35770183801651)
(X_669  0.34801533818244934)
(X_670  0.42103052139282227)
(X_671  0.35853201150894165)
(X_672  0.735771894454956)
(X_673  0.8261123299598694)
(X_674  0.831987202167511)
(X_675  0.8095438480377197)
(X_676  0.8398476243019104)
(X_677  0.8820210695266724)
(X_678  0.8676749467849731)
(X_679  0.8764879107475281)
(X_680  0.8600591421127319)
(X_681  0.8170943856239319)
(X_682  0.9019801616668701)
(X_683  0.8681972622871399)
(X_684  0.8981921076774597)
(X_685  0.9068636894226074)
(X_686  0.8716316819190979)
(X_687  0.8556219339370728)
(X_688  0.796320915222168)
(X_689  0.8824852108955383)
(X_690  0.8235098123550415)
(X_691  0.8027698397636414)
(X_692  0.8443140387535095)
(X_693  0.8051873445510864)
(X_694  0.7321470379829407)
(X_695  0.7443414926528931)
(X_696  0.53163743019104)
(X_697  0.41498062014579773)
(X_698  0.3255673050880432)
(X_699  0.39230847358703613)
(X_700  0.7383624911308289)
(X_701  0.8257668614387512)
(X_702  0.8234685659408569)
(X_703  0.8589310646057129)
(X_704  0.8572059869766235)
(X_705  0.8449497818946838)
(X_706  0.8659705519676208)
(X_707  0.8509666323661804)
(X_708  0.8567555546760559)
(X_709  0.8470187783241272)
(X_710  0.8331491947174072)
(X_711  0.8683995604515076)
(X_712  0.8592455983161926)
(X_713  0.8960134983062744)
(X_714  0.9058314561843872)
(X_715  0.9227617979049683)
(X_716  0.8806129097938538)
(X_717  0.8778101205825806)
(X_718  0.9054943323135376)
(X_719  0.8211742639541626)
(X_720  0.8070797920227051)
(X_721  0.8376674652099609)
(X_722  0.8273332715034485)
(X_723  0.7428118586540222)
(X_724  0.7139814496040344)
(X_725  0.5731339454650879)
(X_726  0.4891563057899475)
(X_727  0.4191935956478119)
(X_728  0.794804036617279)
(X_729  0.7731790542602539)
(X_730  0.8370216488838196)
(X_731  0.8229275345802307)
(X_732  0.8844832181930542)
(X_733  0.8677576184272766)
(X_734  0.8337791562080383)
(X_735  0.861339807510376)
(X_736  0.882205069065094)
(X_737  0.9056669473648071)
(X_738  0.8766794204711914)
(X_739  0.8708173036575317)
(X_740  0.914360523223877)
(X_741  0.9270763397216797)
(X_742  0.923542857170105)
(X_743  0.8768384456634521)
(X_744  0.8413724303245544)
(X_745  0.9024817943572998)
(X_746  0.9086934328079224)
(X_747  0.8527824878692627)
(X_748  0.8278950452804565)
(X_749  0.8563220500946045)
(X_750  0.8213550448417664)
(X_751  0.8214324712753296)
(X_752  0.7777323722839355)
(X_753  0.681469738483429)
(X_754  0.5648002028465271)
(X_755  0.5344547629356384)
(X_756  0.8196313977241516)
(X_757  0.8401667475700378)
(X_758  0.8167620301246643)
(X_759  0.8471702933311462)
(X_760  0.8831419944763184)
(X_761  0.8846243023872375)
(X_762  0.8725162744522095)
(X_763  0.891066312789917)
(X_764  0.8545579314231873)
(X_765  0.8510270714759827)
(X_766  0.8723830580711365)
(X_767  0.8553149700164795)
(X_768  0.8678844571113586)
(X_769  0.8789713978767395)
(X_770  0.9092169404029846)
(X_771  0.8544163107872009)
(X_772  0.8760890960693359)
(X_773  0.8659101724624634)
(X_774  0.9073766469955444)
(X_775  0.8701809048652649)
(X_776  0.8962115049362183)
(X_777  0.8462897539138794)
(X_778  0.8089200258255005)
(X_779  0.82521653175354)
(X_780  0.8135918974876404)
(X_781  0.7366095185279846)
(X_782  0.6847962141036987)
(X_783  0.6632888913154602)
(Y_0 -0.004768580198287964))