((X_0  0.18352940678596497)
(X_1  0.17568626999855042)
(X_2  0.17568626999855042)
(X_3  0.24627451598644257)
(X_4  0.3482353091239929)
(X_5  0.35607844591140747)
(X_6  0.3168627619743347)
(X_7  0.320784330368042)
(X_8  0.31294119358062744)
(X_9  0.4282352924346924)
(X_10  0.4596078395843506)
(X_11  0.4556862711906433)
(X_12  0.4282352924346924)
(X_13  0.40470588207244873)
(X_14  0.4125490188598633)
(X_15  0.4282352924346924)
(X_16  0.3929411768913269)
(X_17  0.3498039245605469)
(X_18  0.30666667222976685)
(X_19  0.32235294580459595)
(X_20  0.3772549033164978)
(X_21  0.3325490355491638)
(X_22  0.3050980567932129)
(X_23  0.2580392360687256)
(X_24  0.1796078383922577)
(X_25  0.15215685963630676)
(X_26  0.2164705991744995)
(X_27  0.2321568727493286)
(X_28  0.2792156934738159)
(X_29  0.30274510383605957)
(X_30  0.2109804004430771)
(X_31  0.23058824241161346)
(X_32  0.32470589876174927)
(X_33  0.3835294246673584)
(X_34  0.3678431510925293)
(X_35  0.35607844591140747)
(X_36  0.31294119358062744)
(X_37  0.34039217233657837)
(X_38  0.45176470279693604)
(X_39  0.46352940797805786)
(X_40  0.45176470279693604)
(X_41  0.43607842922210693)
(X_42  0.43607842922210693)
(X_43  0.4439215660095215)
(X_44  0.42039215564727783)
(X_45  0.38509804010391235)
(X_46  0.3615686297416687)
(X_47  0.3011764883995056)
(X_48  0.34431374073028564)
(X_49  0.3521568775177002)
(X_50  0.29725492000579834)
(X_51  0.23843137919902802)
(X_52  0.1796078383922577)
(X_53  0.15215685963630676)
(X_54  0.2203921675682068)
(X_55  0.24000000953674316)
(X_56  0.30274510383605957)
(X_57  0.2894117832183838)
(X_58  0.2854902148246765)
(X_59  0.26588237285614014)
(X_60  0.3364706039428711)
(X_61  0.40705883502960205)
(X_62  0.39137256145477295)
(X_63  0.35607844591140747)
(X_64  0.3168627619743347)
(X_65  0.3364706039428711)
(X_66  0.44784313440322876)
(X_67  0.4752941131591797)
(X_68  0.4870588183403015)
(X_69  0.48313724994659424)
(X_70  0.4713725447654724)
(X_71  0.4596078395843506)
(X_72  0.36000001430511475)
(X_73  0.40078431367874146)
(X_74  0.3733333349227905)
(X_75  0.38509804010391235)
(X_76  0.34039217233657837)
(X_77  0.3364706039428711)
(X_78  0.2894117832183838)
(X_79  0.2423529475927353)
(X_80  0.20705881714820862)
(X_81  0.25960785150527954)
(X_82  0.24784314632415771)
(X_83  0.25960785150527954)
(X_84  0.3301960825920105)
(X_85  0.3325490355491638)
(X_86  0.363921582698822)
(X_87  0.36000001430511475)
(X_88  0.4713725447654724)
(X_89  0.3992156982421875)
(X_90  0.35607844591140747)
(X_91  0.40470588207244873)
(X_92  0.41647058725357056)
(X_93  0.4243137240409851)
(X_94  0.45176470279693604)
(X_95  0.40705883502960205)
(X_96  0.43843138217926025)
(X_97  0.43843138217926025)
(X_98  0.4149019718170166)
(X_99  0.39137256145477295)
(X_100  0.4596078395843506)
(X_101  0.3968627452850342)
(X_102  0.3419607877731323)
(X_103  0.33803921937942505)
(X_104  0.36941176652908325)
(X_105  0.38901960849761963)
(X_106  0.38509804010391235)
(X_107  0.3772549033164978)
(X_108  0.28156864643096924)
(X_109  0.3301960825920105)
(X_110  0.30274510383605957)
(X_111  0.30274510383605957)
(X_112  0.365490198135376)
(X_113  0.43215686082839966)
(X_114  0.3952941298484802)
(X_115  0.4149019718170166)
(X_116  0.4149019718170166)
(X_117  0.43607842922210693)
(X_118  0.3929411768913269)
(X_119  0.4125490188598633)
(X_120  0.43607842922210693)
(X_121  0.4399999976158142)
(X_122  0.4596078395843506)
(X_123  0.4188235402107239)
(X_124  0.45411765575408936)
(X_125  0.4619608223438263)
(X_126  0.4305882453918457)
(X_127  0.3992156982421875)
(X_128  0.48313724994659424)
(X_129  0.408627450466156)
(X_130  0.33803921937942505)
(X_131  0.3262745141983032)
(X_132  0.3498039245605469)
(X_133  0.3733333349227905)
(X_134  0.3968627452850342)
(X_135  0.42039215564727783)
(X_136  0.36000001430511475)
(X_137  0.408627450466156)
(X_138  0.3733333349227905)
(X_139  0.3498039245605469)
(X_140  0.3168627619743347)
(X_141  0.4439215660095215)
(X_142  0.46745097637176514)
(X_143  0.39137256145477295)
(X_144  0.363921582698822)
(X_145  0.3772549033164978)
(X_146  0.3733333349227905)
(X_147  0.4439215660095215)
(X_148  0.44784313440322876)
(X_149  0.44784313440322876)
(X_150  0.46352940797805786)
(X_151  0.42274510860443115)
(X_152  0.4619608223438263)
(X_153  0.46980395913124084)
(X_154  0.522352933883667)
(X_155  0.4909803867340088)
(X_156  0.48313724994659424)
(X_157  0.4125490188598633)
(X_158  0.35372549295425415)
(X_159  0.3458823561668396)
(X_160  0.35372549295425415)
(X_161  0.35372549295425415)
(X_162  0.36941176652908325)
(X_163  0.3968627452850342)
(X_164  0.4752941131591797)
(X_165  0.4596078395843506)
(X_166  0.4282352924346924)
(X_167  0.3929411768913269)
(X_168  0.40078431367874146)
(X_169  0.4713725447654724)
(X_170  0.47921568155288696)
(X_171  0.4243137240409851)
(X_172  0.3733333349227905)
(X_173  0.33803921937942505)
(X_174  0.3576470613479614)
(X_175  0.4243137240409851)
(X_176  0.44784313440322876)
(X_177  0.3678431510925293)
(X_178  0.3835294246673584)
(X_179  0.4188235402107239)
(X_180  0.45803922414779663)
(X_181  0.46980395913124084)
(X_182  0.45411765575408936)
(X_183  0.5105882287025452)
(X_184  0.49490195512771606)
(X_185  0.4282352924346924)
(X_186  0.3772549033164978)
(X_187  0.36941176652908325)
(X_188  0.365490198135376)
(X_189  0.35372549295425415)
(X_190  0.365490198135376)
(X_191  0.3968627452850342)
(X_192  0.45176470279693604)
(X_193  0.46352940797805786)
(X_194  0.4556862711906433)
(X_195  0.42039215564727783)
(X_196  0.38901960849761963)
(X_197  0.49882352352142334)
(X_198  0.5066666603088379)
(X_199  0.40078431367874146)
(X_200  0.3341176509857178)
(X_201  0.31843137741088867)
(X_202  0.33803921937942505)
(X_203  0.36941176652908325)
(X_204  0.4399999976158142)
(X_205  0.363921582698822)
(X_206  0.3796078562736511)
(X_207  0.4149019718170166)
(X_208  0.45411765575408936)
(X_209  0.5498039722442627)
(X_210  0.5419608354568481)
(X_211  0.5262745022773743)
(X_212  0.45803922414779663)
(X_213  0.46352940797805786)
(X_214  0.40078431367874146)
(X_215  0.38901960849761963)
(X_216  0.38509804010391235)
(X_217  0.3772549033164978)
(X_218  0.40470588207244873)
(X_219  0.45176470279693604)
(X_220  0.41647058725357056)
(X_221  0.44784313440322876)
(X_222  0.4596078395843506)
(X_223  0.43215686082839966)
(X_224  0.4282352924346924)
(X_225  0.4713725447654724)
(X_226  0.46352940797805786)
(X_227  0.3929411768913269)
(X_228  0.3498039245605469)
(X_229  0.36941176652908325)
(X_230  0.30901962518692017)
(X_231  0.29725492000579834)
(X_232  0.3325490355491638)
(X_233  0.3678431510925293)
(X_234  0.3874509930610657)
(X_235  0.3952941298484802)
(X_236  0.4266666769981384)
(X_237  0.55372554063797)
(X_238  0.5654902458190918)
(X_239  0.4619608223438263)
(X_240  0.4501960873603821)
(X_241  0.42274510860443115)
(X_242  0.39137256145477295)
(X_243  0.3717647194862366)
(X_244  0.4439215660095215)
(X_245  0.43215686082839966)
(X_246  0.40470588207244873)
(X_247  0.38509804010391235)
(X_248  0.38901960849761963)
(X_249  0.46352940797805786)
(X_250  0.4909803867340088)
(X_251  0.43215686082839966)
(X_252  0.4713725447654724)
(X_253  0.44784313440322876)
(X_254  0.42039215564727783)
(X_255  0.3929411768913269)
(X_256  0.3733333349227905)
(X_257  0.36941176652908325)
(X_258  0.38901960849761963)
(X_259  0.32862746715545654)
(X_260  0.3521568775177002)
(X_261  0.39137256145477295)
(X_262  0.4109804034233093)
(X_263  0.4149019718170166)
(X_264  0.43843138217926025)
(X_265  0.5615686774253845)
(X_266  0.5772549510002136)
(X_267  0.48156866431236267)
(X_268  0.48549023270606995)
(X_269  0.4619608223438263)
(X_270  0.43843138217926025)
(X_271  0.42274510860443115)
(X_272  0.4149019718170166)
(X_273  0.4752941131591797)
(X_274  0.44784313440322876)
(X_275  0.4282352924346924)
(X_276  0.4282352924346924)
(X_277  0.48313724994659424)
(X_278  0.5066666603088379)
(X_279  0.48313724994659424)
(X_280  0.4266666769981384)
(X_281  0.3482353091239929)
(X_282  0.36941176652908325)
(X_283  0.36941176652908325)
(X_284  0.365490198135376)
(X_285  0.3498039245605469)
(X_286  0.29725492000579834)
(X_287  0.3482353091239929)
(X_288  0.3678431510925293)
(X_289  0.4109804034233093)
(X_290  0.43843138217926025)
(X_291  0.4305882453918457)
(X_292  0.44235295057296753)
(X_293  0.5615686774253845)
(X_294  0.5850980877876282)
(X_295  0.5011764764785767)
(X_296  0.4737255275249481)
(X_297  0.45803922414779663)
(X_298  0.43843138217926025)
(X_299  0.4266666769981384)
(X_300  0.4149019718170166)
(X_301  0.3952941298484802)
(X_302  0.44784313440322876)
(X_303  0.4243137240409851)
(X_304  0.4282352924346924)
(X_305  0.4556862711906433)
(X_306  0.4870588183403015)
(X_307  0.5105882287025452)
(X_308  0.4149019718170166)
(X_309  0.3364706039428711)
(X_310  0.3498039245605469)
(X_311  0.3301960825920105)
(X_312  0.3262745141983032)
(X_313  0.25019609928131104)
(X_314  0.2894117832183838)
(X_315  0.3482353091239929)
(X_316  0.3796078562736511)
(X_317  0.4266666769981384)
(X_318  0.4501960873603821)
(X_319  0.43843138217926025)
(X_320  0.43843138217926025)
(X_321  0.5576471090316772)
(X_322  0.5090196132659912)
(X_323  0.5129411816596985)
(X_324  0.5090196132659912)
(X_325  0.5011764764785767)
(X_326  0.4894118010997772)
(X_327  0.4776470959186554)
(X_328  0.46588239073753357)
(X_329  0.4462745189666748)
(X_330  0.49490195512771606)
(X_331  0.4752941131591797)
(X_332  0.42039215564727783)
(X_333  0.41647058725357056)
(X_334  0.44784313440322876)
(X_335  0.5105882287025452)
(X_336  0.3521568775177002)
(X_337  0.32470589876174927)
(X_338  0.3498039245605469)
(X_339  0.30274510383605957)
(X_340  0.294901967048645)
(X_341  0.2580392360687256)
(X_342  0.32470589876174927)
(X_343  0.3678431510925293)
(X_344  0.3952941298484802)
(X_345  0.43843138217926025)
(X_346  0.45803922414779663)
(X_347  0.44235295057296753)
(X_348  0.44235295057296753)
(X_349  0.5654902458190918)
(X_350  0.59686279296875)
(X_351  0.6047059297561646)
(X_352  0.5168627500534058)
(X_353  0.5129411816596985)
(X_354  0.5050980448722839)
(X_355  0.4972549378871918)
(X_356  0.48156866431236267)
(X_357  0.45803922414779663)
(X_358  0.434509813785553)
(X_359  0.49882352352142334)
(X_360  0.45176470279693604)
(X_361  0.4243137240409851)
(X_362  0.43607842922210693)
(X_363  0.5027450919151306)
(X_364  0.3011764883995056)
(X_365  0.3733333349227905)
(X_366  0.3419607877731323)
(X_367  0.30274510383605957)
(X_368  0.23058824241161346)
(X_369  0.29333335161209106)
(X_370  0.363921582698822)
(X_371  0.4031372666358948)
(X_372  0.4188235402107239)
(X_373  0.4501960873603821)
(X_374  0.4619608223438263)
(X_375  0.4462745189666748)
(X_376  0.45411765575408936)
(X_377  0.5811765193939209)
(X_378  0.6164706349372864)
(X_379  0.6164706349372864)
(X_380  0.5811765193939209)
(X_381  0.4972549378871918)
(X_382  0.4933333694934845)
(X_383  0.4776470959186554)
(X_384  0.4619608223438263)
(X_385  0.44235295057296753)
(X_386  0.4266666769981384)
(X_387  0.4149019718170166)
(X_388  0.4909803867340088)
(X_389  0.44784313440322876)
(X_390  0.43215686082839966)
(X_391  0.45176470279693604)
(X_392  0.3050980567932129)
(X_393  0.33803921937942505)
(X_394  0.30666667222976685)
(X_395  0.23843137919902802)
(X_396  0.26588237285614014)
(X_397  0.3011764883995056)
(X_398  0.3521568775177002)
(X_399  0.4031372666358948)
(X_400  0.4266666769981384)
(X_401  0.4462745189666748)
(X_402  0.4501960873603821)
(X_403  0.43843138217926025)
(X_404  0.5380392074584961)
(X_405  0.5890196561813354)
(X_406  0.6203922033309937)
(X_407  0.6164706349372864)
(X_408  0.5403921604156494)
(X_409  0.5364705920219421)
(X_410  0.5286274552345276)
(X_411  0.5129411816596985)
(X_412  0.4972549378871918)
(X_413  0.48156866431236267)
(X_414  0.46980395913124084)
(X_415  0.46588239073753357)
(X_416  0.44235295057296753)
(X_417  0.47921568155288696)
(X_418  0.4282352924346924)
(X_419  0.40078431367874146)
(X_420  0.32862746715545654)
(X_421  0.3105882406234741)
(X_422  0.27137255668640137)
(X_423  0.2541176676750183)
(X_424  0.29333335161209106)
(X_425  0.2854902148246765)
(X_426  0.31294119358062744)
(X_427  0.3796078562736511)
(X_428  0.4188235402107239)
(X_429  0.434509813785553)
(X_430  0.4305882453918457)
(X_431  0.4188235402107239)
(X_432  0.4501960873603821)
(X_433  0.5890196561813354)
(X_434  0.6164706349372864)
(X_435  0.6047059297561646)
(X_436  0.6047059297561646)
(X_437  0.520784318447113)
(X_438  0.5090196132659912)
(X_439  0.4933333694934845)
(X_440  0.4737255275249481)
(X_441  0.5419608354568481)
(X_442  0.45411765575408936)
(X_443  0.45803922414779663)
(X_444  0.46980395913124084)
(X_445  0.5105882287025452)
(X_446  0.4439215660095215)
(X_447  0.38509804010391235)
(X_448  0.27764707803726196)
(X_449  0.3145098090171814)
(X_450  0.2831372618675232)
(X_451  0.23058824241161346)
(X_452  0.29725492000579834)
(X_453  0.3521568775177002)
(X_454  0.363921582698822)
(X_455  0.3521568775177002)
(X_456  0.3796078562736511)
(X_457  0.4266666769981384)
(X_458  0.4462745189666748)
(X_459  0.4266666769981384)
(X_460  0.5184313654899597)
(X_461  0.5811765193939209)
(X_462  0.6282353401184082)
(X_463  0.5600000023841858)
(X_464  0.5521568655967712)
(X_465  0.5443137288093567)
(X_466  0.5247058868408203)
(X_467  0.5011764764785767)
(X_468  0.4776470959186554)
(X_469  0.45411765575408936)
(X_470  0.434509813785553)
(X_471  0.4266666769981384)
(X_472  0.43843138217926025)
(X_473  0.4909803867340088)
(X_474  0.44784313440322876)
(X_475  0.4125490188598633)
(X_476  0.2227451056241989)
(X_477  0.2792156934738159)
(X_478  0.19137254357337952)
(X_479  0.2266666740179062)
(X_480  0.2894117832183838)
(X_481  0.34431374073028564)
(X_482  0.36000001430511475)
(X_483  0.35607844591140747)
(X_484  0.363921582698822)
(X_485  0.40705883502960205)
(X_486  0.42274510860443115)
(X_487  0.40705883502960205)
(X_488  0.4188235402107239)
(X_489  0.5615686774253845)
(X_490  0.6164706349372864)
(X_491  0.6321569085121155)
(X_492  0.6047059297561646)
(X_493  0.5168627500534058)
(X_494  0.5050980448722839)
(X_495  0.48549023270606995)
(X_496  0.46980395913124084)
(X_497  0.45411765575408936)
(X_498  0.44235295057296753)
(X_499  0.43843138217926025)
(X_500  0.39137256145477295)
(X_501  0.3678431510925293)
(X_502  0.41647058725357056)
(X_503  0.3968627452850342)
(X_504  0.24000000953674316)
(X_505  0.24392157793045044)
(X_506  0.18352940678596497)
(X_507  0.2266666740179062)
(X_508  0.2854902148246765)
(X_509  0.32862746715545654)
(X_510  0.3521568775177002)
(X_511  0.35607844591140747)
(X_512  0.3952941298484802)
(X_513  0.4266666769981384)
(X_514  0.43843138217926025)
(X_515  0.4188235402107239)
(X_516  0.4266666769981384)
(X_517  0.5576471090316772)
(X_518  0.6086274981498718)
(X_519  0.6321569085121155)
(X_520  0.548235297203064)
(X_521  0.5325490236282349)
(X_522  0.5090196132659912)
(X_523  0.48156866431236267)
(X_524  0.45411765575408936)
(X_525  0.434509813785553)
(X_526  0.4188235402107239)
(X_527  0.4149019718170166)
(X_528  0.3796078562736511)
(X_529  0.36000001430511475)
(X_530  0.4125490188598633)
(X_531  0.3929411768913269)
(X_532  0.24784314632415771)
(X_533  0.27137255668640137)
(X_534  0.3145098090171814)
(X_535  0.27764707803726196)
(X_536  0.320784330368042)
(X_537  0.35607844591140747)
(X_538  0.3796078562736511)
(X_539  0.39137256145477295)
(X_540  0.4501960873603821)
(X_541  0.46980395913124084)
(X_542  0.46980395913124084)
(X_543  0.44235295057296753)
(X_544  0.434509813785553)
(X_545  0.5498039722442627)
(X_546  0.59686279296875)
(X_547  0.6164706349372864)
(X_548  0.5600000023841858)
(X_549  0.5443137288093567)
(X_550  0.520784318447113)
(X_551  0.4894118010997772)
(X_552  0.4619608223438263)
(X_553  0.43843138217926025)
(X_554  0.4266666769981384)
(X_555  0.42274510860443115)
(X_556  0.4305882453918457)
(X_557  0.4031372666358948)
(X_558  0.44784313440322876)
(X_559  0.41647058725357056)
(X_560  0.3262745141983032)
(X_561  0.3576470613479614)
(X_562  0.32470589876174927)
(X_563  0.363921582698822)
(X_564  0.39137256145477295)
(X_565  0.4149019718170166)
(X_566  0.434509813785553)
(X_567  0.4462745189666748)
(X_568  0.46980395913124084)
(X_569  0.48549023270606995)
(X_570  0.48156866431236267)
(X_571  0.45803922414779663)
(X_572  0.4462745189666748)
(X_573  0.5458824038505554)
(X_574  0.5850980877876282)
(X_575  0.6086274981498718)
(X_576  0.5364705920219421)
(X_577  0.5286274552345276)
(X_578  0.5168627500534058)
(X_579  0.5011764764785767)
(X_580  0.4894118010997772)
(X_581  0.48549023270606995)
(X_582  0.48156866431236267)
(X_583  0.48156866431236267)
(X_584  0.46980395913124084)
(X_585  0.43843138217926025)
(X_586  0.4752941131591797)
(X_587  0.43607842922210693)
(X_588  0.3968627452850342)
(X_589  0.4243137240409851)
(X_590  0.3835294246673584)
(X_591  0.4909803867340088)
(X_592  0.5066666603088379)
(X_593  0.5184313654899597)
(X_594  0.5341176390647888)
(X_595  0.5458824038505554)
(X_596  0.5694118142127991)
(X_597  0.5011764764785767)
(X_598  0.5050980448722839)
(X_599  0.4933333694934845)
(X_600  0.48156866431236267)
(X_601  0.5733333826065063)
(X_602  0.6086274981498718)
(X_603  0.6360784769058228)
(X_604  0.548235297203064)
(X_605  0.5403921604156494)
(X_606  0.5325490236282349)
(X_607  0.5247058868408203)
(X_608  0.5129411816596985)
(X_609  0.5011764764785767)
(X_610  0.4894118010997772)
(X_611  0.48549023270606995)
(X_612  0.5380392074584961)
(X_613  0.5105882287025452)
(X_614  0.4713725447654724)
(X_615  0.4439215660095215)
(X_616  0.44784313440322876)
(X_617  0.46352940797805786)
(X_618  0.4870588183403015)
(X_619  0.5027450919151306)
(X_620  0.5145097970962524)
(X_621  0.5262745022773743)
(X_622  0.5419608354568481)
(X_623  0.5498039722442627)
(X_624  0.5168627500534058)
(X_625  0.6047059297561646)
(X_626  0.5325490236282349)
(X_627  0.5247058868408203)
(X_628  0.5129411816596985)
(X_629  0.5929412245750427)
(X_630  0.5403921604156494)
(X_631  0.5678431391716003)
(X_632  0.5639215707778931)
(X_633  0.5600000023841858)
(X_634  0.5521568655967712)
(X_635  0.5364705920219421)
(X_636  0.5168627500534058)
(X_637  0.4894118010997772)
(X_638  0.46980395913124084)
(X_639  0.45411765575408936)
(X_640  0.5027450919151306)
(X_641  0.4870588183403015)
(X_642  0.46745097637176514)
(X_643  0.4596078395843506)
(X_644  0.49490195512771606)
(X_645  0.5027450919151306)
(X_646  0.5145097970962524)
(X_647  0.5262745022773743)
(X_648  0.5380392074584961)
(X_649  0.5498039722442627)
(X_650  0.5654902458190918)
(X_651  0.4933333694934845)
(X_652  0.520784318447113)
(X_653  0.5286274552345276)
(X_654  0.5364705920219421)
(X_655  0.6086274981498718)
(X_656  0.5890196561813354)
(X_657  0.5772549510002136)
(X_658  0.59686279296875)
(X_659  0.6203922033309937)
(X_660  0.5364705920219421)
(X_661  0.5403921604156494)
(X_662  0.5403921604156494)
(X_663  0.5325490236282349)
(X_664  0.6007843613624573)
(X_665  0.5011764764785767)
(X_666  0.4776470959186554)
(X_667  0.46588239073753357)
(X_668  0.4031372666358948)
(X_669  0.3992156982421875)
(X_670  0.4713725447654724)
(X_671  0.4752941131591797)
(X_672  0.4556862711906433)
(X_673  0.5066666603088379)
(X_674  0.5458824038505554)
(X_675  0.5576471090316772)
(X_676  0.5576471090316772)
(X_677  0.4894118010997772)
(X_678  0.5811765193939209)
(X_679  0.5811765193939209)
(X_680  0.6007843613624573)
(X_681  0.6007843613624573)
(X_682  0.520784318447113)
(X_683  0.6047059297561646)
(X_684  0.6086274981498718)
(X_685  0.6125490665435791)
(X_686  0.6203922033309937)
(X_687  0.6243137717247009)
(X_688  0.5756862759590149)
(X_689  0.5521568655967712)
(X_690  0.5364705920219421)
(X_691  0.6203922033309937)
(X_692  0.5325490236282349)
(X_693  0.5050980448722839)
(X_694  0.4737255275249481)
(X_695  0.4619608223438263)
(X_696  0.40705883502960205)
(X_697  0.3992156982421875)
(X_698  0.39137256145477295)
(X_699  0.3874509930610657)
(X_700  0.46745097637176514)
(X_701  0.5145097970962524)
(X_702  0.55372554063797)
(X_703  0.5615686774253845)
(X_704  0.5615686774253845)
(X_705  0.5694118142127991)
(X_706  0.5811765193939209)
(X_707  0.5011764764785767)
(X_708  0.6047059297561646)
(X_709  0.6047059297561646)
(X_710  0.6007843613624573)
(X_711  0.6047059297561646)
(X_712  0.6047059297561646)
(X_713  0.6125490665435791)
(X_714  0.6164706349372864)
(X_715  0.6203922033309937)
(X_716  0.5639215707778931)
(X_717  0.5403921604156494)
(X_718  0.6086274981498718)
(X_719  0.6164706349372864)
(X_720  0.6086274981498718)
(X_721  0.4933333694934845)
(X_722  0.45803922414779663)
(X_723  0.43843138217926025)
(X_724  0.39137256145477295)
(X_725  0.3796078562736511)
(X_726  0.3717647194862366)
(X_727  0.3678431510925293)
(X_728  0.4031372666358948)
(X_729  0.4462745189666748)
(X_730  0.48156866431236267)
(X_731  0.5654902458190918)
(X_732  0.5615686774253845)
(X_733  0.5733333826065063)
(X_734  0.5811765193939209)
(X_735  0.5850980877876282)
(X_736  0.6086274981498718)
(X_737  0.6086274981498718)
(X_738  0.6047059297561646)
(X_739  0.6047059297561646)
(X_740  0.6047059297561646)
(X_741  0.6047059297561646)
(X_742  0.6086274981498718)
(X_743  0.6125490665435791)
(X_744  0.6321569085121155)
(X_745  0.6125490665435791)
(X_746  0.6047059297561646)
(X_747  0.6125490665435791)
(X_748  0.6007843613624573)
(X_749  0.5576471090316772)
(X_750  0.434509813785553)
(X_751  0.4909803867340088)
(X_752  0.37568628787994385)
(X_753  0.363921582698822)
(X_754  0.4282352924346924)
(X_755  0.34431374073028564)
(X_756  0.4149019718170166)
(X_757  0.45803922414779663)
(X_758  0.5694118142127991)
(X_759  0.5733333826065063)
(X_760  0.5654902458190918)
(X_761  0.5733333826065063)
(X_762  0.5850980877876282)
(X_763  0.5850980877876282)
(X_764  0.6125490665435791)
(X_765  0.6125490665435791)
(X_766  0.6086274981498718)
(X_767  0.6047059297561646)
(X_768  0.6007843613624573)
(X_769  0.6007843613624573)
(X_770  0.6007843613624573)
(X_771  0.5247058868408203)
(X_772  0.6282353401184082)
(X_773  0.6086274981498718)
(X_774  0.6047059297561646)
(X_775  0.6125490665435791)
(X_776  0.59686279296875)
(X_777  0.5498039722442627)
(X_778  0.49882352352142334)
(X_779  0.4713725447654724)
(X_780  0.45176470279693604)
(X_781  0.43607842922210693)
(X_782  0.34039217233657837)
(X_783  0.408627450466156)
(Y_0 -0.2067834734916687))