((X_0  0.5639215707778931)
(X_1  0.5952941179275513)
(X_2  0.6031372547149658)
(X_3  0.5952941179275513)
(X_4  0.6266666650772095)
(X_5  0.6894117593765259)
(X_6  0.7090196013450623)
(X_7  0.6894117593765259)
(X_8  0.7168627381324768)
(X_9  0.796862781047821)
(X_10  0.8007843494415283)
(X_11  0.8086274862289429)
(X_12  0.8164706230163574)
(X_13  0.8203921914100647)
(X_14  0.8203921914100647)
(X_15  0.824313759803772)
(X_16  0.796862781047821)
(X_17  0.7341176867485046)
(X_18  0.7145098447799683)
(X_19  0.7380392551422119)
(X_20  0.7615686655044556)
(X_21  0.6933333277702332)
(X_22  0.634509801864624)
(X_23  0.5247058868408203)
(X_24  0.28156864643096924)
(X_25  0.20313724875450134)
(X_26  0.2321568727493286)
(X_27  0.14196078479290009)
(X_28  0.6360784769058228)
(X_29  0.6831372976303101)
(X_30  0.6266666650772095)
(X_31  0.6149019598960876)
(X_32  0.6227450966835022)
(X_33  0.6698039174079895)
(X_34  0.6972548961639404)
(X_35  0.6933333277702332)
(X_36  0.705098032951355)
(X_37  0.7129411697387695)
(X_38  0.7890196442604065)
(X_39  0.7772549390792847)
(X_40  0.7811765074729919)
(X_41  0.8007843494415283)
(X_42  0.8007843494415283)
(X_43  0.7890196442604065)
(X_44  0.7694118022918701)
(X_45  0.7733333706855774)
(X_46  0.8007843494415283)
(X_47  0.7129411697387695)
(X_48  0.6737254858016968)
(X_49  0.6541176438331604)
(X_50  0.6149019598960876)
(X_51  0.5364705920219421)
(X_52  0.31294119358062744)
(X_53  0.2109804004430771)
(X_54  0.22823530435562134)
(X_55  0.14980392158031464)
(X_56  0.6203922033309937)
(X_57  0.6031372547149658)
(X_58  0.6501960754394531)
(X_59  0.6462745070457458)
(X_60  0.6423529386520386)
(X_61  0.6658823490142822)
(X_62  0.6933333277702332)
(X_63  0.6972548961639404)
(X_64  0.6972548961639404)
(X_65  0.7286274433135986)
(X_66  0.8086274862289429)
(X_67  0.7811765074729919)
(X_68  0.7850980758666992)
(X_69  0.8164706230163574)
(X_70  0.8047059178352356)
(X_71  0.7615686655044556)
(X_72  0.6266666650772095)
(X_73  0.7419608235359192)
(X_74  0.7929412126541138)
(X_75  0.7850980758666992)
(X_76  0.6658823490142822)
(X_77  0.6580392122268677)
(X_78  0.6188235282897949)
(X_79  0.5325490236282349)
(X_80  0.363921582698822)
(X_81  0.30666667222976685)
(X_82  0.22823530435562134)
(X_83  0.16549021005630493)
(X_84  0.6007843613624573)
(X_85  0.591372549533844)
(X_86  0.6580392122268677)
(X_87  0.677647054195404)
(X_88  0.753725528717041)
(X_89  0.6737254858016968)
(X_90  0.6737254858016968)
(X_91  0.7458823919296265)
(X_92  0.7301961183547974)
(X_93  0.7929412126541138)
(X_94  0.8203921914100647)
(X_95  0.7207843065261841)
(X_96  0.7325490117073059)
(X_97  0.7599999904632568)
(X_98  0.7207843065261841)
(X_99  0.6384313702583313)
(X_100  0.6164706349372864)
(X_101  0.6164706349372864)
(X_102  0.6439216136932373)
(X_103  0.6752941608428955)
(X_104  0.7184314131736755)
(X_105  0.7654902338981628)
(X_106  0.7262745499610901)
(X_107  0.6086274981498718)
(X_108  0.4266666769981384)
(X_109  0.33803921937942505)
(X_110  0.24392157793045044)
(X_111  0.18901962041854858)
(X_112  0.59686279296875)
(X_113  0.6596078872680664)
(X_114  0.6501960754394531)
(X_115  0.6854901909828186)
(X_116  0.6815686225891113)
(X_117  0.7301961183547974)
(X_118  0.6870588660240173)
(X_119  0.6517647504806519)
(X_120  0.6282353401184082)
(X_121  0.7184314131736755)
(X_122  0.7811765074729919)
(X_123  0.7168627381324768)
(X_124  0.7403921484947205)
(X_125  0.7560784220695496)
(X_126  0.6854901909828186)
(X_127  0.5796078443527222)
(X_128  0.5341176390647888)
(X_129  0.49882352352142334)
(X_130  0.5105882287025452)
(X_131  0.5654902458190918)
(X_132  0.6439216136932373)
(X_133  0.7262745499610901)
(X_134  0.7301961183547974)
(X_135  0.6517647504806519)
(X_136  0.48549023270606995)
(X_137  0.3929411768913269)
(X_138  0.28705883026123047)
(X_139  0.22431373596191406)
(X_140  0.5129411816596985)
(X_141  0.6478431820869446)
(X_142  0.710588276386261)
(X_143  0.6658823490142822)
(X_144  0.6423529386520386)
(X_145  0.6635294556617737)
(X_146  0.5929412245750427)
(X_147  0.5458824038505554)
(X_148  0.55372554063797)
(X_149  0.64000004529953)
(X_150  0.7301961183547974)
(X_151  0.705098032951355)
(X_152  0.7521568536758423)
(X_153  0.7599999904632568)
(X_154  0.7615686655044556)
(X_155  0.6596078872680664)
(X_156  0.522352933883667)
(X_157  0.47921568155288696)
(X_158  0.4909803867340088)
(X_159  0.5262745022773743)
(X_160  0.5498039722442627)
(X_161  0.6086274981498718)
(X_162  0.6792157292366028)
(X_163  0.6988235712051392)
(X_164  0.6203922033309937)
(X_165  0.46352940797805786)
(X_166  0.3576470613479614)
(X_167  0.2674509882926941)
(X_168  0.5811765193939209)
(X_169  0.64000004529953)
(X_170  0.7027451395988464)
(X_171  0.7223529815673828)
(X_172  0.6792157292366028)
(X_173  0.6047059297561646)
(X_174  0.5419608354568481)
(X_175  0.5184313654899597)
(X_176  0.5301960706710815)
(X_177  0.5129411816596985)
(X_178  0.6031372547149658)
(X_179  0.6894117593765259)
(X_180  0.7560784220695496)
(X_181  0.7639215588569641)
(X_182  0.7090196013450623)
(X_183  0.7223529815673828)
(X_184  0.5929412245750427)
(X_185  0.5184313654899597)
(X_186  0.5066666603088379)
(X_187  0.522352933883667)
(X_188  0.4909803867340088)
(X_189  0.5066666603088379)
(X_190  0.6047059297561646)
(X_191  0.6949020028114319)
(X_192  0.667451024055481)
(X_193  0.5380392074584961)
(X_194  0.43215686082839966)
(X_195  0.3145098090171814)
(X_196  0.5654902458190918)
(X_197  0.6321569085121155)
(X_198  0.7027451395988464)
(X_199  0.7145098447799683)
(X_200  0.6517647504806519)
(X_201  0.5772549510002136)
(X_202  0.5419608354568481)
(X_203  0.5419608354568481)
(X_204  0.522352933883667)
(X_205  0.48156866431236267)
(X_206  0.5600000023841858)
(X_207  0.661960780620575)
(X_208  0.7403921484947205)
(X_209  0.8360784649848938)
(X_210  0.8047059178352356)
(X_211  0.7654902338981628)
(X_212  0.5992156863212585)
(X_213  0.5498039722442627)
(X_214  0.49882352352142334)
(X_215  0.5145097970962524)
(X_216  0.47921568155288696)
(X_217  0.46745097637176514)
(X_218  0.5576471090316772)
(X_219  0.6517647504806519)
(X_220  0.6949020028114319)
(X_221  0.5850980877876282)
(X_222  0.4870588183403015)
(X_223  0.3458823561668396)
(X_224  0.5654902458190918)
(X_225  0.6752941608428955)
(X_226  0.6909804344177246)
(X_227  0.6047059297561646)
(X_228  0.5380392074584961)
(X_229  0.5105882287025452)
(X_230  0.434509813785553)
(X_231  0.46588239073753357)
(X_232  0.4501960873603821)
(X_233  0.4894118010997772)
(X_234  0.5717647075653076)
(X_235  0.677647054195404)
(X_236  0.748235285282135)
(X_237  0.8321568965911865)
(X_238  0.8086274862289429)
(X_239  0.7090196013450623)
(X_240  0.5992156863212585)
(X_241  0.5364705920219421)
(X_242  0.434509813785553)
(X_243  0.36000001430511475)
(X_244  0.4399999976158142)
(X_245  0.48313724994659424)
(X_246  0.5027450919151306)
(X_247  0.4870588183403015)
(X_248  0.5890196561813354)
(X_249  0.7027451395988464)
(X_250  0.4713725447654724)
(X_251  0.40078431367874146)
(X_252  0.5772549510002136)
(X_253  0.6792157292366028)
(X_254  0.6988235712051392)
(X_255  0.6243137717247009)
(X_256  0.5576471090316772)
(X_257  0.5027450919151306)
(X_258  0.46352940797805786)
(X_259  0.3874509930610657)
(X_260  0.45803922414779663)
(X_261  0.4933333694934845)
(X_262  0.5796078443527222)
(X_263  0.6854901909828186)
(X_264  0.748235285282135)
(X_265  0.8321568965911865)
(X_266  0.8164706230163574)
(X_267  0.7247058749198914)
(X_268  0.7247058749198914)
(X_269  0.6580392122268677)
(X_270  0.5364705920219421)
(X_271  0.4266666769981384)
(X_272  0.3796078562736511)
(X_273  0.46352940797805786)
(X_274  0.4713725447654724)
(X_275  0.4596078395843506)
(X_276  0.5654902458190918)
(X_277  0.6713725924491882)
(X_278  0.5262745022773743)
(X_279  0.408627450466156)
(X_280  0.5286274552345276)
(X_281  0.5835294127464294)
(X_282  0.64000004529953)
(X_283  0.5694118142127991)
(X_284  0.5380392074584961)
(X_285  0.5262745022773743)
(X_286  0.4501960873603821)
(X_287  0.4776470959186554)
(X_288  0.4462745189666748)
(X_289  0.4894118010997772)
(X_290  0.5756862759590149)
(X_291  0.677647054195404)
(X_292  0.7403921484947205)
(X_293  0.8321568965911865)
(X_294  0.824313759803772)
(X_295  0.748235285282135)
(X_296  0.677647054195404)
(X_297  0.6266666650772095)
(X_298  0.5247058868408203)
(X_299  0.40705883502960205)
(X_300  0.3325490355491638)
(X_301  0.31294119358062744)
(X_302  0.40078431367874146)
(X_303  0.40470588207244873)
(X_304  0.49882352352142334)
(X_305  0.5929412245750427)
(X_306  0.5850980877876282)
(X_307  0.408627450466156)
(X_308  0.591372549533844)
(X_309  0.5835294127464294)
(X_310  0.5811765193939209)
(X_311  0.48313724994659424)
(X_312  0.44784313440322876)
(X_313  0.3482353091239929)
(X_314  0.3521568775177002)
(X_315  0.39137256145477295)
(X_316  0.4501960873603821)
(X_317  0.4894118010997772)
(X_318  0.5717647075653076)
(X_319  0.6658823490142822)
(X_320  0.7286274433135986)
(X_321  0.824313759803772)
(X_322  0.748235285282135)
(X_323  0.7599999904632568)
(X_324  0.7286274433135986)
(X_325  0.705098032951355)
(X_326  0.6423529386520386)
(X_327  0.548235297203064)
(X_328  0.46588239073753357)
(X_329  0.42274510860443115)
(X_330  0.49490195512771606)
(X_331  0.5027450919151306)
(X_332  0.42039215564727783)
(X_333  0.5027450919151306)
(X_334  0.6086274981498718)
(X_335  0.42039215564727783)
(X_336  0.5756862759590149)
(X_337  0.5560784339904785)
(X_338  0.5615686774253845)
(X_339  0.49882352352142334)
(X_340  0.47921568155288696)
(X_341  0.35607844591140747)
(X_342  0.3364706039428711)
(X_343  0.363921582698822)
(X_344  0.4972549378871918)
(X_345  0.5247058868408203)
(X_346  0.5874509811401367)
(X_347  0.6698039174079895)
(X_348  0.7247058749198914)
(X_349  0.8203921914100647)
(X_350  0.824313759803772)
(X_351  0.8321568965911865)
(X_352  0.705098032951355)
(X_353  0.6933333277702332)
(X_354  0.6541176438331604)
(X_355  0.5796078443527222)
(X_356  0.48156866431236267)
(X_357  0.39137256145477295)
(X_358  0.34039217233657837)
(X_359  0.40470588207244873)
(X_360  0.38901960849761963)
(X_361  0.4596078395843506)
(X_362  0.6086274981498718)
(X_363  0.46745097637176514)
(X_364  0.5521568655967712)
(X_365  0.5850980877876282)
(X_366  0.5027450919151306)
(X_367  0.46745097637176514)
(X_368  0.3952941298484802)
(X_369  0.3874509930610657)
(X_370  0.40705883502960205)
(X_371  0.4737255275249481)
(X_372  0.5560784339904785)
(X_373  0.5639215707778931)
(X_374  0.6070588231086731)
(X_375  0.677647054195404)
(X_376  0.7325490117073059)
(X_377  0.824313759803772)
(X_378  0.824313759803772)
(X_379  0.8203921914100647)
(X_380  0.8125490546226501)
(X_381  0.7207843065261841)
(X_382  0.6972548961639404)
(X_383  0.6541176438331604)
(X_384  0.5600000023841858)
(X_385  0.44235295057296753)
(X_386  0.34431374073028564)
(X_387  0.29725492000579834)
(X_388  0.40470588207244873)
(X_389  0.46745097637176514)
(X_390  0.5811765193939209)
(X_391  0.5458824038505554)
(X_392  0.5756862759590149)
(X_393  0.5733333826065063)
(X_394  0.44784313440322876)
(X_395  0.3050980567932129)
(X_396  0.29725492000579834)
(X_397  0.2894117832183838)
(X_398  0.32862746715545654)
(X_399  0.42274510860443115)
(X_400  0.5600000023841858)
(X_401  0.5521568655967712)
(X_402  0.5835294127464294)
(X_403  0.661960780620575)
(X_404  0.8125490546226501)
(X_405  0.8400000333786011)
(X_406  0.8360784649848938)
(X_407  0.8282353281974792)
(X_408  0.7207843065261841)
(X_409  0.7011764645576477)
(X_410  0.6854901909828186)
(X_411  0.6737254858016968)
(X_412  0.6109803915023804)
(X_413  0.4894118010997772)
(X_414  0.3678431510925293)
(X_415  0.29725492000579834)
(X_416  0.32470589876174927)
(X_417  0.46352940797805786)
(X_418  0.5105882287025452)
(X_419  0.6086274981498718)
(X_420  0.520784318447113)
(X_421  0.5419608354568481)
(X_422  0.4596078395843506)
(X_423  0.3521568775177002)
(X_424  0.36000001430511475)
(X_425  0.34039217233657837)
(X_426  0.363921582698822)
(X_427  0.4501960873603821)
(X_428  0.5286274552345276)
(X_429  0.5168627500534058)
(X_430  0.5443137288093567)
(X_431  0.634509801864624)
(X_432  0.7286274433135986)
(X_433  0.8517647385597229)
(X_434  0.8556863069534302)
(X_435  0.8478431701660156)
(X_436  0.8164706230163574)
(X_437  0.705098032951355)
(X_438  0.6854901909828186)
(X_439  0.6854901909828186)
(X_440  0.6384313702583313)
(X_441  0.59686279296875)
(X_442  0.3796078562736511)
(X_443  0.29725492000579834)
(X_444  0.3011764883995056)
(X_445  0.4439215660095215)
(X_446  0.4399999976158142)
(X_447  0.6360784769058228)
(X_448  0.5129411816596985)
(X_449  0.4752941131591797)
(X_450  0.45176470279693604)
(X_451  0.40705883502960205)
(X_452  0.36000001430511475)
(X_453  0.3050980567932129)
(X_454  0.3482353091239929)
(X_455  0.42274510860443115)
(X_456  0.5325490236282349)
(X_457  0.5521568655967712)
(X_458  0.5600000023841858)
(X_459  0.6188235282897949)
(X_460  0.8047059178352356)
(X_461  0.8517647385597229)
(X_462  0.8439216017723083)
(X_463  0.7717646956443787)
(X_464  0.7364705801010132)
(X_465  0.7011764645576477)
(X_466  0.6737254858016968)
(X_467  0.677647054195404)
(X_468  0.6737254858016968)
(X_469  0.5992156863212585)
(X_470  0.45803922414779663)
(X_471  0.34431374073028564)
(X_472  0.26196080446243286)
(X_473  0.3615686297416687)
(X_474  0.4556862711906433)
(X_475  0.5890196561813354)
(X_476  0.5678431391716003)
(X_477  0.522352933883667)
(X_478  0.3364706039428711)
(X_479  0.27764707803726196)
(X_480  0.26588237285614014)
(X_481  0.32862746715545654)
(X_482  0.39137256145477295)
(X_483  0.3952941298484802)
(X_484  0.4501960873603821)
(X_485  0.48549023270606995)
(X_486  0.5129411816596985)
(X_487  0.5835294127464294)
(X_488  0.6933333277702332)
(X_489  0.8282353281974792)
(X_490  0.8360784649848938)
(X_491  0.8556863069534302)
(X_492  0.8164706230163574)
(X_493  0.6972548961639404)
(X_494  0.6737254858016968)
(X_495  0.6854901909828186)
(X_496  0.6815686225891113)
(X_497  0.591372549533844)
(X_498  0.42274510860443115)
(X_499  0.2854902148246765)
(X_500  0.30901962518692017)
(X_501  0.34431374073028564)
(X_502  0.5027450919151306)
(X_503  0.5811765193939209)
(X_504  0.6321569085121155)
(X_505  0.5301960706710815)
(X_506  0.3717647194862366)
(X_507  0.3325490355491638)
(X_508  0.30901962518692017)
(X_509  0.34039217233657837)
(X_510  0.3678431510925293)
(X_511  0.3521568775177002)
(X_512  0.4266666769981384)
(X_513  0.4776470959186554)
(X_514  0.5168627500534058)
(X_515  0.5874509811401367)
(X_516  0.6854901909828186)
(X_517  0.8164706230163574)
(X_518  0.8321568965911865)
(X_519  0.8635294437408447)
(X_520  0.7207843065261841)
(X_521  0.6854901909828186)
(X_522  0.661960780620575)
(X_523  0.677647054195404)
(X_524  0.677647054195404)
(X_525  0.5835294127464294)
(X_526  0.4031372666358948)
(X_527  0.2541176676750183)
(X_528  0.2894117832183838)
(X_529  0.3168627619743347)
(X_530  0.45176470279693604)
(X_531  0.5145097970962524)
(X_532  0.5929412245750427)
(X_533  0.4870588183403015)
(X_534  0.4713725447654724)
(X_535  0.42274510860443115)
(X_536  0.363921582698822)
(X_537  0.29725492000579834)
(X_538  0.3364706039428711)
(X_539  0.4031372666358948)
(X_540  0.5168627500534058)
(X_541  0.5717647075653076)
(X_542  0.6070588231086731)
(X_543  0.6541176438331604)
(X_544  0.7247058749198914)
(X_545  0.8321568965911865)
(X_546  0.8400000333786011)
(X_547  0.8752941489219666)
(X_548  0.7247058749198914)
(X_549  0.6972548961639404)
(X_550  0.6854901909828186)
(X_551  0.7011764645576477)
(X_552  0.7011764645576477)
(X_553  0.6266666650772095)
(X_554  0.4894118010997772)
(X_555  0.3796078562736511)
(X_556  0.29333335161209106)
(X_557  0.25019609928131104)
(X_558  0.3341176509857178)
(X_559  0.40470588207244873)
(X_560  0.6086274981498718)
(X_561  0.4556862711906433)
(X_562  0.3011764883995056)
(X_563  0.31294119358062744)
(X_564  0.29333335161209106)
(X_565  0.3050980567932129)
(X_566  0.4305882453918457)
(X_567  0.5521568655967712)
(X_568  0.6266666650772095)
(X_569  0.677647054195404)
(X_570  0.7011764645576477)
(X_571  0.7247058749198914)
(X_572  0.7678431272506714)
(X_573  0.8517647385597229)
(X_574  0.8517647385597229)
(X_575  0.8831372857093811)
(X_576  0.7639215588569641)
(X_577  0.7521568536758423)
(X_578  0.748235285282135)
(X_579  0.7560784220695496)
(X_580  0.7521568536758423)
(X_581  0.7168627381324768)
(X_582  0.6580392122268677)
(X_583  0.6070588231086731)
(X_584  0.4737255275249481)
(X_585  0.3325490355491638)
(X_586  0.33803921937942505)
(X_587  0.38509804010391235)
(X_588  0.59686279296875)
(X_589  0.45176470279693604)
(X_590  0.2541176676750183)
(X_591  0.31843137741088867)
(X_592  0.3968627452850342)
(X_593  0.5576471090316772)
(X_594  0.6949020028114319)
(X_595  0.7341176867485046)
(X_596  0.7694118022918701)
(X_597  0.7247058749198914)
(X_598  0.7325490117073059)
(X_599  0.748235285282135)
(X_600  0.7835294008255005)
(X_601  0.867451012134552)
(X_602  0.8596078753471375)
(X_603  0.8870588541030884)
(X_604  0.7835294008255005)
(X_605  0.7835294008255005)
(X_606  0.7835294008255005)
(X_607  0.7796078324317932)
(X_608  0.7756862640380859)
(X_609  0.7678431272506714)
(X_610  0.7560784220695496)
(X_611  0.748235285282135)
(X_612  0.7694118022918701)
(X_613  0.6164706349372864)
(X_614  0.5105882287025452)
(X_615  0.5145097970962524)
(X_616  0.5419608354568481)
(X_617  0.4399999976158142)
(X_618  0.40078431367874146)
(X_619  0.46745097637176514)
(X_620  0.5850980877876282)
(X_621  0.7262745499610901)
(X_622  0.8047059178352356)
(X_623  0.7890196442604065)
(X_624  0.7129411697387695)
(X_625  0.8203921914100647)
(X_626  0.7364705801010132)
(X_627  0.748235285282135)
(X_628  0.791372537612915)
(X_629  0.8752941489219666)
(X_630  0.791372537612915)
(X_631  0.8149019479751587)
(X_632  0.7952941060066223)
(X_633  0.7874509692192078)
(X_634  0.7796078324317932)
(X_635  0.7796078324317932)
(X_636  0.7796078324317932)
(X_637  0.7717646956443787)
(X_638  0.7560784220695496)
(X_639  0.7443137168884277)
(X_640  0.8203921914100647)
(X_641  0.7654902338981628)
(X_642  0.6988235712051392)
(X_643  0.6556863188743591)
(X_644  0.522352933883667)
(X_645  0.4243137240409851)
(X_646  0.4713725447654724)
(X_647  0.6321569085121155)
(X_648  0.7262745499610901)
(X_649  0.7576470971107483)
(X_650  0.8047059178352356)
(X_651  0.7717646956443787)
(X_652  0.7364705801010132)
(X_653  0.7560784220695496)
(X_654  0.7403921484947205)
(X_655  0.8282353281974792)
(X_656  0.8752941489219666)
(X_657  0.8870588541030884)
(X_658  0.8792157173156738)
(X_659  0.9027451276779175)
(X_660  0.8149019479751587)
(X_661  0.7992156744003296)
(X_662  0.7874509692192078)
(X_663  0.7874509692192078)
(X_664  0.867451012134552)
(X_665  0.7717646956443787)
(X_666  0.7364705801010132)
(X_667  0.7011764645576477)
(X_668  0.677647054195404)
(X_669  0.7247058749198914)
(X_670  0.7890196442604065)
(X_671  0.710588276386261)
(X_672  0.522352933883667)
(X_673  0.522352933883667)
(X_674  0.5850980877876282)
(X_675  0.7066667079925537)
(X_676  0.7929412126541138)
(X_677  0.7286274433135986)
(X_678  0.8164706230163574)
(X_679  0.8360784649848938)
(X_680  0.8478431701660156)
(X_681  0.8478431701660156)
(X_682  0.7717646956443787)
(X_683  0.8635294437408447)
(X_684  0.8792157173156738)
(X_685  0.8909804224967957)
(X_686  0.8949019908905029)
(X_687  0.8949019908905029)
(X_688  0.8031372427940369)
(X_689  0.7678431272506714)
(X_690  0.7443137168884277)
(X_691  0.8321568965911865)
(X_692  0.7521568536758423)
(X_693  0.7247058749198914)
(X_694  0.6854901909828186)
(X_695  0.6658823490142822)
(X_696  0.6815686225891113)
(X_697  0.6737254858016968)
(X_698  0.6737254858016968)
(X_699  0.6854901909828186)
(X_700  0.5498039722442627)
(X_701  0.5850980877876282)
(X_702  0.6635294556617737)
(X_703  0.7498039603233337)
(X_704  0.8007843494415283)
(X_705  0.8164706230163574)
(X_706  0.8360784649848938)
(X_707  0.7796078324317932)
(X_708  0.8556863069534302)
(X_709  0.8596078753471375)
(X_710  0.8635294437408447)
(X_711  0.8713725805282593)
(X_712  0.8831372857093811)
(X_713  0.8909804224967957)
(X_714  0.8949019908905029)
(X_715  0.8949019908905029)
(X_716  0.7717646956443787)
(X_717  0.7443137168884277)
(X_718  0.8047059178352356)
(X_719  0.8086274862289429)
(X_720  0.8047059178352356)
(X_721  0.6972548961639404)
(X_722  0.6698039174079895)
(X_723  0.6580392122268677)
(X_724  0.6698039174079895)
(X_725  0.6580392122268677)
(X_726  0.6580392122268677)
(X_727  0.6737254858016968)
(X_728  0.4894118010997772)
(X_729  0.5717647075653076)
(X_730  0.661960780620575)
(X_731  0.7811765074729919)
(X_732  0.796862781047821)
(X_733  0.824313759803772)
(X_734  0.8517647385597229)
(X_735  0.8713725805282593)
(X_736  0.867451012134552)
(X_737  0.8713725805282593)
(X_738  0.8752941489219666)
(X_739  0.8792157173156738)
(X_740  0.8831372857093811)
(X_741  0.8870588541030884)
(X_742  0.8909804224967957)
(X_743  0.8909804224967957)
(X_744  0.8517647385597229)
(X_745  0.8321568965911865)
(X_746  0.8203921914100647)
(X_747  0.8164706230163574)
(X_748  0.8047059178352356)
(X_749  0.7811765074729919)
(X_750  0.6933333277702332)
(X_751  0.7811765074729919)
(X_752  0.677647054195404)
(X_753  0.6580392122268677)
(X_754  0.7301961183547974)
(X_755  0.661960780620575)
(X_756  0.4933333694934845)
(X_757  0.5992156863212585)
(X_758  0.7694118022918701)
(X_759  0.7811765074729919)
(X_760  0.7890196442604065)
(X_761  0.8321568965911865)
(X_762  0.8596078753471375)
(X_763  0.8556863069534302)
(X_764  0.8752941489219666)
(X_765  0.8792157173156738)
(X_766  0.8792157173156738)
(X_767  0.8792157173156738)
(X_768  0.8752941489219666)
(X_769  0.8752941489219666)
(X_770  0.8792157173156738)
(X_771  0.8031372427940369)
(X_772  0.8635294437408447)
(X_773  0.8517647385597229)
(X_774  0.8439216017723083)
(X_775  0.8400000333786011)
(X_776  0.8164706230163574)
(X_777  0.796862781047821)
(X_778  0.8047059178352356)
(X_779  0.8282353281974792)
(X_780  0.7929412126541138)
(X_781  0.7615686655044556)
(X_782  0.6580392122268677)
(X_783  0.7380392551422119)
(Y_0 -0.127284973859787))