100.0%
100.0%
100.0%
100.0%
100.0%
97.92387543252595%
93.77162629757785%
95.15570934256056%
96.7128027681661%
97.05882352941177%
96.88581314878893%
97.05882352941177%
97.23183391003461%
97.23183391003461%
95.8477508650519%
94.29065743944636%
94.29065743944636%
94.11764705882352%
93.07958477508652%
91.86851211072664%
91.17647058823529%
89.10034602076125%
86.67820069204151%
86.159169550173%
87.88927335640139%
87.37024221453287%
88.92733564013841%
90.3114186851211%
88.58131487889274%
87.19723183391004%
89.10034602076125%
87.0242214532872%
83.56401384083046%
81.31487889273356%
81.83391003460207%
80.27681660899654%
81.4878892733564%
80.79584775086505%
81.83391003460207%
81.31487889273356%
78.54671280276817%
77.68166089965398%
77.68166089965398%
80.44982698961938%
80.44982698961938%
78.89273356401384%
77.85467128027682%
78.54671280276817%
77.16262975778547%
79.93079584775087%
81.66089965397923%
79.41176470588235%
79.06574394463668%
79.93079584775087%
78.54671280276817%
76.98961937716263%
77.85467128027682%
75.9515570934256%
75.60553633217994%
78.89273356401384%
78.89273356401384%
78.719723183391%
75.77854671280276%
73.70242214532871%
74.22145328719724%
75.08650519031141%
74.5674740484429%
73.70242214532871%
75.08650519031141%
72.49134948096886%
71.62629757785467%
72.31833910034602%
69.72318339100346%
68.68512110726644%
68.68512110726644%
68.85813148788927%
65.22491349480968%
66.43598615916954%
66.43598615916954%
67.99307958477509%
67.1280276816609%
66.26297577854672%
65.7439446366782%
66.26297577854672%
66.95501730103807%
65.91695501730104%
65.7439446366782%
64.87889273356402%
62.80276816608996%
62.629757785467135%
62.629757785467135%
62.11072664359861%
61.0726643598616%
61.418685121107266%
59.688581314878896%
59.515570934256054%
59.34256055363322%
59.16955017301038%
59.34256055363322%
58.82352941176471%
58.82352941176471%
58.47750865051903%
58.47750865051903%
57.785467128027676%
58.13148788927336%
58.47750865051903%
58.3044982698962%
58.3044982698962%
58.3044982698962%
58.3044982698962%
58.3044982698962%
58.3044982698962%
58.47750865051903%
58.47750865051903%
58.47750865051903%
58.47750865051903%
57.09342560553633%
56.92041522491349%
57.09342560553633%
57.266435986159166%
57.266435986159166%
57.266435986159166%
56.92041522491349%
56.92041522491349%
57.43944636678201%
57.43944636678201%
56.40138408304498%
56.92041522491349%
57.43944636678201%
57.266435986159166%
56.92041522491349%
57.43944636678201%
57.95847750865052%
57.43944636678201%
57.43944636678201%
57.61245674740484%
57.785467128027676%
57.43944636678201%
57.785467128027676%
57.785467128027676%
57.61245674740484%
57.09342560553633%
57.09342560553633%
57.266435986159166%
57.43944636678201%
57.43944636678201%
58.13148788927336%
58.3044982698962%
58.3044982698962%
58.99653979238755%
58.99653979238755%
58.99653979238755%
59.34256055363322%
58.3044982698962%
57.95847750865052%
58.47750865051903%
57.95847750865052%
58.13148788927336%
58.13148788927336%
58.3044982698962%
58.3044982698962%
58.13148788927336%
58.3044982698962%
58.47750865051903%
58.3044982698962%
58.47750865051903%
58.99653979238755%
59.515570934256054%
58.47750865051903%
58.47750865051903%
59.688581314878896%
58.99653979238755%
58.82352941176471%
59.34256055363322%
60.38062283737025%
61.0726643598616%
61.0726643598616%
61.0726643598616%
61.0726643598616%
61.0726643598616%
61.0726643598616%
61.0726643598616%
61.0726643598616%
61.0726643598616%
61.0726643598616%
60.726643598615915%
61.245674740484425%
61.76470588235294%
61.418685121107266%
61.0726643598616%
61.245674740484425%
60.553633217993074%
60.034602076124564%
58.99653979238755%
58.82352941176471%
59.515570934256054%
59.16955017301038%
59.16955017301038%
59.688581314878896%
60.207612456747405%
59.86159169550172%
60.034602076124564%
59.515570934256054%
60.207612456747405%
59.515570934256054%
59.86159169550172%
59.688581314878896%
58.99653979238755%
58.99653979238755%
58.82352941176471%
58.99653979238755%
59.16955017301038%
58.65051903114187%
58.82352941176471%
58.47750865051903%
58.99653979238755%
59.34256055363322%
59.34256055363322%
59.34256055363322%
59.34256055363322%
58.99653979238755%
58.99653979238755%
59.34256055363322%
59.16955017301038%
58.99653979238755%
59.16955017301038%
59.16955017301038%
59.34256055363322%
59.34256055363322%
59.16955017301038%
59.16955017301038%
58.99653979238755%
59.16955017301038%
59.16955017301038%
59.688581314878896%
59.515570934256054%
59.515570934256054%
59.688581314878896%
59.688581314878896%
59.34256055363322%
59.515570934256054%
58.99653979238755%
58.99653979238755%
58.82352941176471%
59.16955017301038%
58.82352941176471%
59.515570934256054%
59.515570934256054%
59.16955017301038%
59.16955017301038%
59.515570934256054%
58.82352941176471%
59.16955017301038%
59.34256055363322%
59.34256055363322%
59.16955017301038%
59.688581314878896%
59.688581314878896%
59.515570934256054%
59.86159169550172%
59.515570934256054%
59.688581314878896%
60.034602076124564%
60.034602076124564%
60.034602076124564%
59.688581314878896%
59.515570934256054%
60.38062283737025%
60.207612456747405%
60.034602076124564%
59.688581314878896%
59.86159169550172%
60.207612456747405%
60.207612456747405%
60.034602076124564%
59.86159169550172%
59.86159169550172%
60.207612456747405%
60.38062283737025%
60.207612456747405%
60.034602076124564%
60.207612456747405%
59.86159169550172%
60.034602076124564%
59.86159169550172%
60.034602076124564%
59.86159169550172%
59.86159169550172%
59.688581314878896%
59.515570934256054%
59.515570934256054%
59.688581314878896%
59.688581314878896%
59.688581314878896%
59.688581314878896%
60.034602076124564%
60.553633217993074%
60.034602076124564%
60.034602076124564%
60.207612456747405%
60.207612456747405%
59.86159169550172%
60.207612456747405%
60.207612456747405%
59.86159169550172%
60.034602076124564%
59.688581314878896%
60.38062283737025%
60.207612456747405%
60.207612456747405%
59.86159169550172%
59.515570934256054%
59.515570934256054%
60.553633217993074%
60.207612456747405%
60.207612456747405%
60.38062283737025%
61.0726643598616%
61.0726643598616%
61.0726643598616%
60.38062283737025%
61.0726643598616%
61.245674740484425%
61.0726643598616%
61.0726643598616%
61.5916955017301%
63.32179930795848%
63.32179930795848%
63.667820069204154%
64.70588235294117%
64.53287197231833%
66.95501730103807%
67.30103806228374%
67.1280276816609%
69.8961937716263%
69.55017301038062%
71.62629757785467%
70.58823529411765%
73.01038062283737%
75.4325259515571%
75.77854671280276%
77.50865051903114%
77.68166089965398%
78.719723183391%
76.98961937716263%
76.12456747404845%
77.50865051903114%
80.1038062283737%
80.1038062283737%
84.42906574394463%
85.12110726643598%
86.67820069204151%
85.12110726643598%
83.21799307958477%
82.52595155709342%
76.64359861591696%
71.45328719723183%
71.45328719723183%
71.45328719723183%
71.45328719723183%
71.45328719723183%
71.45328719723183%
71.45328719723183%
71.45328719723183%
71.45328719723183%
75.9515570934256%
75.08650519031141%
74.39446366782006%
74.0484429065744%
73.01038062283737%
72.49134948096886%
71.97231833910035%
71.79930795847751%
70.93425605536332%
69.55017301038062%
66.60899653979239%
64.3598615916955%
65.05190311418684%
64.70588235294117%
64.87889273356402%
64.18685121107266%
63.49480968858131%
65.22491349480968%
62.80276816608996%
62.629757785467135%
62.11072664359861%
61.245674740484425%
61.418685121107266%
60.553633217993074%
60.553633217993074%
60.89965397923876%
62.629757785467135%
61.418685121107266%
60.553633217993074%
60.207612456747405%
59.688581314878896%
60.207612456747405%
60.89965397923876%
60.726643598615915%
61.245674740484425%
62.11072664359861%
61.93771626297578%
61.418685121107266%
61.418685121107266%
60.89965397923876%
60.553633217993074%
60.726643598615915%
61.0726643598616%
61.418685121107266%
61.0726643598616%
60.726643598615915%
61.5916955017301%
61.418685121107266%
61.76470588235294%
61.418685121107266%
61.76470588235294%
61.5916955017301%
61.5916955017301%
60.38062283737025%
60.207612456747405%
60.38062283737025%
60.726643598615915%
62.11072664359861%
62.28373702422145%
61.76470588235294%
61.418685121107266%
61.245674740484425%
60.89965397923876%
61.245674740484425%
60.89965397923876%
60.553633217993074%
60.207612456747405%
60.726643598615915%
60.38062283737025%
60.38062283737025%
60.726643598615915%
61.245674740484425%
61.76470588235294%
62.11072664359861%
61.0726643598616%
60.553633217993074%
60.207612456747405%
59.86159169550172%
60.034602076124564%
59.688581314878896%
59.86159169550172%
59.688581314878896%
60.207612456747405%
60.553633217993074%
60.726643598615915%
60.89965397923876%
60.726643598615915%
61.0726643598616%
61.5916955017301%
59.688581314878896%
59.34256055363322%
59.688581314878896%
60.207612456747405%
60.553633217993074%
60.207612456747405%
60.726643598615915%
60.553633217993074%
60.034602076124564%
59.86159169550172%
59.515570934256054%
59.16955017301038%
59.16955017301038%
59.16955017301038%
58.99653979238755%
59.515570934256054%
58.82352941176471%
58.99653979238755%
58.99653979238755%
59.34256055363322%
59.16955017301038%
58.99653979238755%
58.65051903114187%
58.47750865051903%
57.61245674740484%
58.13148788927336%
58.3044982698962%
58.13148788927336%
59.16955017301038%
58.13148788927336%
58.3044982698962%
58.99653979238755%
59.34256055363322%
58.82352941176471%
58.13148788927336%
58.99653979238755%
58.13148788927336%
58.47750865051903%
58.82352941176471%
58.3044982698962%
58.82352941176471%
58.99653979238755%
58.82352941176471%
59.688581314878896%
59.86159169550172%
60.207612456747405%
60.726643598615915%
60.553633217993074%
60.726643598615915%
60.726643598615915%
61.418685121107266%
61.76470588235294%
63.32179930795848%
62.80276816608996%
64.87889273356402%
65.05190311418684%
63.84083044982699%
64.53287197231833%
64.87889273356402%
66.95501730103807%
68.16608996539793%
68.5121107266436%
68.85813148788927%
70.06920415224913%
69.55017301038062%
69.72318339100346%
70.41522491349481%
71.45328719723183%
70.93425605536332%
71.45328719723183%
71.10726643598616%
72.14532871972318%
72.31833910034602%
73.1833910034602%
74.39446366782006%
73.87543252595155%
72.83737024221453%
73.01038062283737%
73.1833910034602%
72.31833910034602%
71.45328719723183%
70.24221453287197%
70.41522491349481%
70.41522491349481%
70.41522491349481%
70.41522491349481%
70.41522491349481%
70.41522491349481%
70.41522491349481%
70.41522491349481%
70.41522491349481%
71.62629757785467%
71.79930795847751%
71.79930795847751%
71.79930795847751%
71.62629757785467%
70.76124567474048%
70.06920415224913%
69.03114186851211%
67.99307958477509%
66.26297577854672%
66.08996539792388%
65.7439446366782%
64.70588235294117%
63.148788927335644%
63.148788927335644%
62.629757785467135%
63.32179930795848%
63.32179930795848%
62.629757785467135%
62.45674740484429%
62.11072664359861%
61.93771626297578%
60.38062283737025%
60.89965397923876%
60.38062283737025%
59.688581314878896%
60.38062283737025%
60.38062283737025%
60.207612456747405%
60.38062283737025%
61.0726643598616%
60.726643598615915%
61.0726643598616%
60.553633217993074%
60.207612456747405%
60.38062283737025%
60.553633217993074%
60.034602076124564%
60.207612456747405%
60.38062283737025%
60.553633217993074%
60.726643598615915%
60.89965397923876%
60.726643598615915%
60.553633217993074%
60.726643598615915%
60.38062283737025%
60.89965397923876%
60.89965397923876%
61.0726643598616%
61.0726643598616%
60.89965397923876%
60.89965397923876%
61.76470588235294%
61.93771626297578%
62.11072664359861%
61.245674740484425%
60.89965397923876%
61.418685121107266%
61.0726643598616%
61.418685121107266%
61.245674740484425%
60.89965397923876%
60.89965397923876%
61.245674740484425%
60.89965397923876%
61.0726643598616%
60.89965397923876%
60.726643598615915%
60.726643598615915%
60.726643598615915%
60.38062283737025%
60.553633217993074%
60.38062283737025%
60.553633217993074%
60.726643598615915%
60.553633217993074%
60.553633217993074%
60.553633217993074%
60.38062283737025%
60.207612456747405%
60.38062283737025%
60.726643598615915%
60.726643598615915%
60.89965397923876%
60.553633217993074%
60.89965397923876%
60.553633217993074%
60.207612456747405%
60.207612456747405%
60.207612456747405%
60.89965397923876%
61.5916955017301%
61.93771626297578%
62.28373702422145%
62.11072664359861%
62.11072664359861%
62.80276816608996%
63.148788927335644%
63.667820069204154%
64.01384083044984%
63.84083044982699%
63.84083044982699%
66.08996539792388%
66.60899653979239%
65.57093425605537%
64.87889273356402%
65.05190311418684%
65.05190311418684%
65.7439446366782%
66.26297577854672%
67.99307958477509%
68.16608996539793%
69.55017301038062%
71.97231833910035%
73.1833910034602%
73.35640138408304%
73.1833910034602%
73.1833910034602%
74.39446366782006%
74.91349480968859%
75.60553633217994%
76.8166089965398%
77.16262975778547%
78.20069204152249%
78.37370242214533%
77.85467128027682%
73.01038062283737%
75.60553633217994%
74.91349480968859%
75.77854671280276%
76.8166089965398%
78.20069204152249%
76.64359861591696%
76.8166089965398%
76.29757785467129%
78.54671280276817%
80.96885813148789%
81.31487889273356%
83.91003460207612%
84.60207612456747%
85.12110726643598%
85.81314878892734%
86.85121107266436%
88.23529411764706%
89.61937716262976%
89.61937716262976%
89.10034602076125%
89.79238754325259%
89.61937716262976%
89.61937716262976%
91.00346020761245%
91.17647058823529%
91.86851211072664%
92.04152249134948%
92.38754325259517%
92.90657439446368%
92.73356401384083%
92.73356401384083%
93.25259515570934%
93.42560553633218%
92.21453287197232%
89.79238754325259%
90.13840830449827%
90.83044982698962%
89.79238754325259%
90.65743944636678%
91.17647058823529%
93.07958477508652%
93.9446366782007%
95.67474048442907%
100.0%
100.0%
100.0%
100.0%
