100.0%
100.0%
99.82698961937716%
99.82698961937716%
99.82698961937716%
100.0%
100.0%
99.48096885813149%
99.82698961937716%
99.65397923875432%
99.48096885813149%
99.65397923875432%
100.0%
100.0%
99.82698961937716%
99.65397923875432%
99.48096885813149%
99.30795847750865%
99.48096885813149%
99.13494809688581%
100.0%
99.65397923875432%
100.0%
99.48096885813149%
99.30795847750865%
99.48096885813149%
99.65397923875432%
99.48096885813149%
98.78892733564014%
98.78892733564014%
97.75086505190312%
98.6159169550173%
98.78892733564014%
92.90657439446368%
92.73356401384083%
77.85467128027682%
82.00692041522491%
82.8719723183391%
76.98961937716263%
74.91349480968859%
76.98961937716263%
74.39446366782006%
79.93079584775087%
83.91003460207612%
85.12110726643598%
87.19723183391004%
87.5432525951557%
87.5432525951557%
87.5432525951557%
86.85121107266436%
87.19723183391004%
86.67820069204151%
83.39100346020761%
80.96885813148789%
88.06228373702422%
87.5432525951557%
86.85121107266436%
88.92733564013841%
91.34948096885813%
91.52249134948097%
84.42906574394463%
86.50519031141869%
81.14186851211073%
89.61937716262976%
90.48442906574394%
83.21799307958477%
82.00692041522491%
82.8719723183391%
85.6401384083045%
83.21799307958477%
89.10034602076125%
89.79238754325259%
87.5432525951557%
92.90657439446368%
93.25259515570934%
92.04152249134948%
90.83044982698962%
90.83044982698962%
89.44636678200692%
89.61937716262976%
89.61937716262976%
89.61937716262976%
91.52249134948097%
87.71626297577855%
90.83044982698962%
91.00346020761245%
91.86851211072664%
92.56055363321799%
92.04152249134948%
90.83044982698962%
85.46712802768167%
89.27335640138409%
88.92733564013841%
88.75432525951558%
85.6401384083045%
88.4083044982699%
88.92733564013841%
91.86851211072664%
94.80968858131487%
93.9446366782007%
85.29411764705883%
82.00692041522491%
79.58477508650519%
79.41176470588235%
81.31487889273356%
85.46712802768167%
84.08304498269896%
81.83391003460207%
82.00692041522491%
88.06228373702422%
88.92733564013841%
90.48442906574394%
90.65743944636678%
85.46712802768167%
85.46712802768167%
84.77508650519032%
81.14186851211073%
76.98961937716263%
78.02768166089965%
78.02768166089965%
67.82006920415225%
68.16608996539793%
74.91349480968859%
74.0484429065744%
74.74048442906575%
75.25951557093425%
74.91349480968859%
74.22145328719724%
74.74048442906575%
74.5674740484429%
74.91349480968859%
78.20069204152249%
79.06574394463668%
78.37370242214533%
78.89273356401384%
77.68166089965398%
77.68166089965398%
82.00692041522491%
82.8719723183391%
83.73702422145328%
84.60207612456747%
84.60207612456747%
85.6401384083045%
86.33217993079585%
86.33217993079585%
89.27335640138409%
89.61937716262976%
89.61937716262976%
89.96539792387543%
90.13840830449827%
88.58131487889274%
88.92733564013841%
90.65743944636678%
88.92733564013841%
88.92733564013841%
88.92733564013841%
89.27335640138409%
89.27335640138409%
89.61937716262976%
88.75432525951558%
88.23529411764706%
88.75432525951558%
87.71626297577855%
89.10034602076125%
89.10034602076125%
89.27335640138409%
88.75432525951558%
88.23529411764706%
87.37024221453287%
86.85121107266436%
87.19723183391004%
88.23529411764706%
89.44636678200692%
89.61937716262976%
89.44636678200692%
87.0242214532872%
86.67820069204151%
85.98615916955016%
83.39100346020761%
83.39100346020761%
83.91003460207612%
84.08304498269896%
82.00692041522491%
82.00692041522491%
83.91003460207612%
84.08304498269896%
84.08304498269896%
87.37024221453287%
87.88927335640139%
87.88927335640139%
87.88927335640139%
83.21799307958477%
78.89273356401384%
77.50865051903114%
75.4325259515571%
78.719723183391%
75.25951557093425%
76.29757785467129%
79.75778546712803%
75.77854671280276%
75.77854671280276%
76.12456747404845%
75.25951557093425%
74.0484429065744%
75.60553633217994%
74.74048442906575%
74.74048442906575%
77.33564013840831%
73.01038062283737%
74.91349480968859%
74.91349480968859%
76.47058823529412%
77.16262975778547%
78.20069204152249%
78.89273356401384%
76.47058823529412%
77.50865051903114%
76.98961937716263%
76.98961937716263%
77.33564013840831%
77.33564013840831%
77.68166089965398%
79.06574394463668%
78.89273356401384%
78.89273356401384%
79.41176470588235%
79.41176470588235%
79.41176470588235%
80.44982698961938%
79.58477508650519%
79.41176470588235%
79.41176470588235%
78.719723183391%
77.85467128027682%
77.33564013840831%
78.20069204152249%
78.20069204152249%
78.20069204152249%
78.20069204152249%
77.85467128027682%
75.25951557093425%
75.25951557093425%
75.77854671280276%
75.77854671280276%
75.77854671280276%
75.77854671280276%
75.60553633217994%
76.98961937716263%
76.98961937716263%
77.85467128027682%
77.85467128027682%
76.8166089965398%
75.60553633217994%
76.29757785467129%
75.25951557093425%
75.25951557093425%
74.39446366782006%
74.39446366782006%
79.75778546712803%
79.75778546712803%
78.54671280276817%
78.02768166089965%
77.85467128027682%
77.68166089965398%
77.68166089965398%
83.04498269896193%
82.17993079584775%
83.56401384083046%
83.04498269896193%
84.08304498269896%
84.08304498269896%
83.91003460207612%
83.91003460207612%
83.91003460207612%
83.91003460207612%
83.91003460207612%
83.21799307958477%
83.21799307958477%
83.21799307958477%
82.35294117647058%
82.35294117647058%
81.66089965397923%
81.31487889273356%
81.31487889273356%
80.79584775086505%
81.31487889273356%
81.4878892733564%
81.31487889273356%
81.4878892733564%
81.4878892733564%
80.44982698961938%
81.66089965397923%
79.23875432525952%
79.23875432525952%
75.9515570934256%
75.9515570934256%
74.39446366782006%
74.39446366782006%
73.52941176470588%
76.12456747404845%
75.77854671280276%
75.4325259515571%
75.25951557093425%
75.25951557093425%
73.87543252595155%
71.97231833910035%
73.52941176470588%
69.37716262975778%
69.37716262975778%
69.37716262975778%
68.68512110726644%
68.68512110726644%
70.76124567474048%
74.39446366782006%
74.39446366782006%
74.39446366782006%
76.64359861591696%
76.64359861591696%
80.1038062283737%
80.1038062283737%
80.96885813148789%
78.89273356401384%
86.33217993079585%
83.56401384083046%
83.56401384083046%
83.56401384083046%
83.56401384083046%
83.56401384083046%
83.56401384083046%
83.56401384083046%
83.56401384083046%
85.6401384083045%
84.77508650519032%
84.77508650519032%
84.42906574394463%
84.42906574394463%
84.42906574394463%
84.08304498269896%
84.60207612456747%
83.73702422145328%
87.5432525951557%
93.25259515570934%
93.25259515570934%
92.21453287197232%
92.21453287197232%
92.21453287197232%
97.40484429065745%
97.57785467128028%
97.57785467128028%
98.6159169550173%
98.6159169550173%
98.6159169550173%
99.13494809688581%
99.82698961937716%
99.30795847750865%
99.65397923875432%
100.0%
100.0%
100.0%
99.82698961937716%
99.82698961937716%
99.82698961937716%
99.48096885813149%
99.48096885813149%
99.48096885813149%
99.48096885813149%
99.65397923875432%
98.26989619377161%
99.13494809688581%
99.13494809688581%
98.26989619377161%
97.75086505190312%
94.80968858131487%
93.77162629757785%
95.15570934256056%
95.15570934256056%
96.19377162629758%
97.57785467128028%
96.19377162629758%
93.77162629757785%
94.11764705882352%
96.02076124567473%
96.02076124567473%
94.98269896193771%
97.75086505190312%
98.09688581314879%
97.57785467128028%
96.36678200692042%
96.88581314878893%
96.88581314878893%
96.88581314878893%
96.88581314878893%
99.30795847750865%
99.82698961937716%
100.0%
100.0%
99.82698961937716%
100.0%
100.0%
100.0%
100.0%
100.0%
100.0%
99.82698961937716%
99.82698961937716%
99.82698961937716%
100.0%
100.0%
100.0%
100.0%
100.0%
100.0%
100.0%
100.0%
100.0%
100.0%
100.0%
100.0%
100.0%
99.82698961937716%
98.96193771626297%
98.96193771626297%
98.96193771626297%
99.65397923875432%
99.65397923875432%
98.96193771626297%
98.96193771626297%
98.26989619377161%
98.26989619377161%
98.26989619377161%
99.30795847750865%
99.30795847750865%
99.30795847750865%
99.65397923875432%
99.65397923875432%
99.65397923875432%
99.65397923875432%
99.13494809688581%
98.26989619377161%
94.98269896193771%
94.98269896193771%
91.17647058823529%
89.61937716262976%
89.61937716262976%
90.48442906574394%
90.48442906574394%
90.48442906574394%
90.48442906574394%
91.17647058823529%
93.07958477508652%
92.38754325259517%
91.52249134948097%
88.06228373702422%
88.06228373702422%
87.37024221453287%
90.65743944636678%
90.65743944636678%
90.65743944636678%
97.40484429065745%
97.40484429065745%
97.40484429065745%
97.75086505190312%
97.75086505190312%
96.53979238754326%
96.53979238754326%
96.53979238754326%
96.53979238754326%
96.53979238754326%
96.53979238754326%
97.57785467128028%
99.13494809688581%
99.30795847750865%
99.48096885813149%
99.65397923875432%
99.65397923875432%
99.48096885813149%
99.48096885813149%
99.82698961937716%
99.82698961937716%
99.82698961937716%
99.82698961937716%
99.82698961937716%
99.65397923875432%
100.0%
99.82698961937716%
99.82698961937716%
99.65397923875432%
98.96193771626297%
98.78892733564014%
96.7128027681661%
96.88581314878893%
96.53979238754326%
97.05882352941177%
97.05882352941177%
92.04152249134948%
91.86851211072664%
91.86851211072664%
91.86851211072664%
92.38754325259517%
92.38754325259517%
91.52249134948097%
91.52249134948097%
92.56055363321799%
93.9446366782007%
93.9446366782007%
93.9446366782007%
95.50173010380622%
96.02076124567473%
98.09688581314879%
99.65397923875432%
99.65397923875432%
99.65397923875432%
99.65397923875432%
99.65397923875432%
100.0%
100.0%
100.0%
100.0%
100.0%
100.0%
100.0%
100.0%
100.0%
100.0%
100.0%
99.48096885813149%
99.48096885813149%
99.82698961937716%
99.30795847750865%
99.30795847750865%
99.30795847750865%
99.30795847750865%
99.30795847750865%
99.13494809688581%
97.92387543252595%
98.09688581314879%
96.36678200692042%
96.36678200692042%
96.36678200692042%
98.78892733564014%
99.13494809688581%
99.13494809688581%
99.30795847750865%
99.30795847750865%
99.30795847750865%
99.30795847750865%
99.30795847750865%
98.96193771626297%
98.96193771626297%
98.26989619377161%
98.26989619377161%
98.26989619377161%
98.44290657439446%
98.26989619377161%
97.40484429065745%
97.40484429065745%
96.88581314878893%
96.88581314878893%
96.88581314878893%
98.44290657439446%
97.57785467128028%
97.57785467128028%
97.57785467128028%
97.57785467128028%
97.57785467128028%
97.57785467128028%
97.57785467128028%
97.23183391003461%
97.23183391003461%
97.23183391003461%
97.23183391003461%
97.23183391003461%
97.23183391003461%
97.23183391003461%
96.88581314878893%
96.88581314878893%
94.29065743944636%
94.29065743944636%
94.29065743944636%
94.4636678200692%
95.50173010380622%
95.50173010380622%
95.50173010380622%
97.40484429065745%
97.40484429065745%
97.40484429065745%
98.6159169550173%
98.78892733564014%
98.6159169550173%
98.6159169550173%
99.30795847750865%
99.30795847750865%
98.6159169550173%
98.6159169550173%
98.6159169550173%
98.6159169550173%
98.6159169550173%
98.96193771626297%
98.96193771626297%
99.65397923875432%
99.65397923875432%
99.65397923875432%
99.65397923875432%
99.65397923875432%
99.65397923875432%
99.30795847750865%
99.30795847750865%
99.30795847750865%
98.96193771626297%
99.13494809688581%
97.75086505190312%
98.26989619377161%
97.57785467128028%
97.57785467128028%
97.57785467128028%
97.75086505190312%
98.6159169550173%
99.13494809688581%
99.13494809688581%
99.13494809688581%
99.13494809688581%
99.13494809688581%
99.48096885813149%
99.48096885813149%
99.48096885813149%
99.48096885813149%
99.48096885813149%
100.0%
100.0%
100.0%
100.0%
100.0%
100.0%
100.0%
100.0%
100.0%
100.0%
100.0%
100.0%
100.0%
100.0%
100.0%
100.0%
100.0%
100.0%
100.0%
100.0%
100.0%
100.0%
100.0%
100.0%
99.65397923875432%
98.96193771626297%
98.96193771626297%
99.65397923875432%
99.65397923875432%
99.65397923875432%
99.82698961937716%
99.82698961937716%
99.82698961937716%
99.82698961937716%
99.82698961937716%
99.82698961937716%
99.82698961937716%
99.82698961937716%
99.82698961937716%
99.82698961937716%
99.65397923875432%
99.65397923875432%
99.82698961937716%
99.82698961937716%
99.82698961937716%
99.82698961937716%
99.82698961937716%
99.82698961937716%
99.82698961937716%
99.82698961937716%
99.82698961937716%
99.82698961937716%
99.82698961937716%
99.82698961937716%
100.0%
100.0%
100.0%
100.0%
100.0%
100.0%
100.0%
99.82698961937716%
99.82698961937716%
99.82698961937716%
99.82698961937716%
99.48096885813149%
99.48096885813149%
99.48096885813149%
99.48096885813149%
99.48096885813149%
99.48096885813149%
98.44290657439446%
98.44290657439446%
98.44290657439446%
98.44290657439446%
98.44290657439446%
98.6159169550173%
98.6159169550173%
98.44290657439446%
98.44290657439446%
98.44290657439446%
98.44290657439446%
99.13494809688581%
99.65397923875432%
99.65397923875432%
99.65397923875432%
100.0%
100.0%
100.0%
100.0%
100.0%
100.0%
100.0%
100.0%
100.0%
100.0%
100.0%
99.82698961937716%
99.82698961937716%
99.82698961937716%
99.65397923875432%
99.65397923875432%
99.65397923875432%
99.65397923875432%
99.65397923875432%
99.65397923875432%
99.65397923875432%
99.65397923875432%
99.65397923875432%
99.65397923875432%
99.65397923875432%
99.65397923875432%
99.65397923875432%
99.65397923875432%
99.65397923875432%
99.65397923875432%
100.0%
100.0%
100.0%
100.0%
100.0%
100.0%
100.0%
100.0%
100.0%
100.0%
100.0%
100.0%
100.0%
100.0%
100.0%
100.0%
100.0%
100.0%
100.0%
100.0%
100.0%
100.0%
100.0%
100.0%
100.0%
100.0%
100.0%
100.0%
100.0%
100.0%
100.0%
100.0%
100.0%
100.0%
100.0%
100.0%
100.0%
100.0%
100.0%
100.0%
100.0%
17508
