100.0%
99.8015873015873%
99.8015873015873%
99.8015873015873%
99.8015873015873%
99.8015873015873%
99.60317460317461%
99.60317460317461%
99.60317460317461%
99.60317460317461%
99.20634920634922%
98.61111111111111%
97.81746031746032%
97.81746031746032%
98.61111111111111%
97.61904761904762%
97.61904761904762%
97.81746031746032%
97.61904761904762%
97.02380952380952%
96.62698412698413%
96.82539682539682%
97.61904761904762%
98.01587301587301%
98.61111111111111%
97.42063492063492%
97.42063492063492%
98.21428571428571%
97.22222222222221%
96.82539682539682%
97.02380952380952%
97.42063492063492%
96.82539682539682%
96.62698412698413%
96.23015873015873%
96.42857142857143%
96.62698412698413%
96.42857142857143%
96.62698412698413%
96.42857142857143%
95.43650793650794%
96.23015873015873%
96.03174603174604%
96.82539682539682%
96.82539682539682%
96.82539682539682%
97.81746031746032%
97.22222222222221%
97.81746031746032%
98.21428571428571%
97.42063492063492%
98.4126984126984%
98.4126984126984%
99.0079365079365%
98.4126984126984%
98.01587301587301%
97.22222222222221%
97.61904761904762%
98.80952380952381%
99.0079365079365%
98.61111111111111%
98.61111111111111%
97.61904761904762%
97.61904761904762%
98.01587301587301%
98.01587301587301%
98.80952380952381%
99.40476190476191%
99.40476190476191%
98.4126984126984%
99.0079365079365%
99.40476190476191%
99.60317460317461%
99.40476190476191%
98.61111111111111%
98.61111111111111%
97.61904761904762%
97.42063492063492%
97.42063492063492%
97.42063492063492%
97.42063492063492%
97.22222222222221%
96.62698412698413%
96.62698412698413%
96.03174603174604%
96.62698412698413%
97.22222222222221%
96.62698412698413%
97.42063492063492%
97.02380952380952%
96.62698412698413%
97.02380952380952%
97.22222222222221%
97.02380952380952%
96.82539682539682%
97.02380952380952%
97.02380952380952%
97.02380952380952%
97.02380952380952%
97.81746031746032%
97.42063492063492%
97.42063492063492%
97.22222222222221%
97.22222222222221%
97.22222222222221%
97.81746031746032%
97.81746031746032%
99.0079365079365%
99.0079365079365%
99.0079365079365%
99.0079365079365%
99.0079365079365%
99.0079365079365%
99.0079365079365%
99.0079365079365%
98.61111111111111%
99.0079365079365%
99.0079365079365%
98.61111111111111%
97.81746031746032%
97.42063492063492%
96.82539682539682%
97.61904761904762%
98.01587301587301%
97.81746031746032%
98.4126984126984%
98.21428571428571%
98.21428571428571%
98.01587301587301%
98.01587301587301%
98.01587301587301%
99.0079365079365%
98.80952380952381%
98.80952380952381%
98.80952380952381%
98.21428571428571%
97.61904761904762%
97.61904761904762%
97.42063492063492%
98.01587301587301%
97.61904761904762%
96.62698412698413%
96.82539682539682%
97.42063492063492%
98.01587301587301%
98.01587301587301%
97.42063492063492%
97.42063492063492%
97.42063492063492%
96.42857142857143%
97.42063492063492%
97.22222222222221%
97.81746031746032%
97.42063492063492%
98.01587301587301%
98.01587301587301%
97.81746031746032%
97.61904761904762%
96.82539682539682%
97.61904761904762%
98.01587301587301%
97.61904761904762%
97.61904761904762%
97.61904761904762%
97.61904761904762%
97.61904761904762%
97.81746031746032%
97.61904761904762%
97.81746031746032%
97.42063492063492%
97.42063492063492%
95.83333333333334%
96.82539682539682%
97.02380952380952%
96.42857142857143%
96.82539682539682%
97.22222222222221%
96.42857142857143%
97.22222222222221%
96.62698412698413%
96.82539682539682%
97.22222222222221%
97.81746031746032%
97.81746031746032%
96.82539682539682%
96.42857142857143%
97.02380952380952%
97.42063492063492%
97.81746031746032%
98.01587301587301%
97.61904761904762%
97.81746031746032%
97.61904761904762%
97.61904761904762%
97.81746031746032%
98.01587301587301%
98.4126984126984%
98.4126984126984%
97.61904761904762%
97.61904761904762%
97.61904761904762%
97.42063492063492%
97.81746031746032%
97.61904761904762%
97.81746031746032%
97.81746031746032%
98.61111111111111%
98.61111111111111%
98.61111111111111%
98.61111111111111%
98.4126984126984%
97.42063492063492%
98.21428571428571%
98.61111111111111%
98.4126984126984%
98.21428571428571%
98.21428571428571%
98.4126984126984%
98.4126984126984%
98.61111111111111%
97.81746031746032%
98.21428571428571%
97.61904761904762%
97.61904761904762%
98.4126984126984%
98.21428571428571%
97.61904761904762%
97.61904761904762%
97.61904761904762%
97.61904761904762%
97.61904761904762%
97.42063492063492%
97.61904761904762%
96.42857142857143%
97.61904761904762%
97.22222222222221%
96.62698412698413%
96.62698412698413%
96.23015873015873%
97.61904761904762%
97.61904761904762%
97.42063492063492%
95.43650793650794%
97.61904761904762%
97.61904761904762%
97.61904761904762%
97.42063492063492%
97.61904761904762%
98.4126984126984%
97.42063492063492%
97.61904761904762%
97.61904761904762%
97.02380952380952%
97.61904761904762%
97.81746031746032%
95.63492063492063%
95.63492063492063%
97.22222222222221%
97.61904761904762%
97.61904761904762%
96.82539682539682%
97.22222222222221%
97.61904761904762%
97.22222222222221%
97.22222222222221%
96.23015873015873%
95.83333333333334%
97.02380952380952%
97.42063492063492%
97.22222222222221%
98.01587301587301%
97.81746031746032%
97.81746031746032%
97.22222222222221%
97.42063492063492%
97.81746031746032%
97.42063492063492%
97.42063492063492%
98.01587301587301%
98.01587301587301%
98.01587301587301%
98.21428571428571%
98.01587301587301%
98.01587301587301%
98.80952380952381%
98.01587301587301%
98.4126984126984%
98.01587301587301%
97.42063492063492%
98.01587301587301%
98.21428571428571%
97.61904761904762%
97.61904761904762%
97.61904761904762%
97.22222222222221%
97.81746031746032%
97.42063492063492%
97.42063492063492%
97.42063492063492%
97.22222222222221%
95.63492063492063%
95.63492063492063%
95.63492063492063%
95.03968253968253%
95.23809523809523%
95.03968253968253%
94.24603174603175%
94.24603174603175%
95.43650793650794%
96.23015873015873%
96.23015873015873%
97.02380952380952%
97.02380952380952%
96.23015873015873%
97.02380952380952%
95.83333333333334%
96.82539682539682%
96.03174603174604%
96.82539682539682%
97.42063492063492%
97.61904761904762%
97.02380952380952%
97.61904761904762%
97.42063492063492%
97.02380952380952%
97.02380952380952%
97.22222222222221%
97.22222222222221%
97.02380952380952%
97.42063492063492%
97.42063492063492%
96.82539682539682%
97.42063492063492%
97.42063492063492%
97.61904761904762%
97.42063492063492%
97.42063492063492%
97.42063492063492%
97.61904761904762%
97.81746031746032%
97.81746031746032%
97.22222222222221%
97.81746031746032%
97.22222222222221%
96.82539682539682%
98.21428571428571%
98.01587301587301%
96.23015873015873%
94.64285714285714%
95.43650793650794%
96.03174603174604%
97.61904761904762%
97.81746031746032%
97.02380952380952%
97.42063492063492%
97.02380952380952%
97.02380952380952%
97.42063492063492%
97.42063492063492%
96.62698412698413%
97.22222222222221%
97.02380952380952%
97.02380952380952%
96.42857142857143%
96.42857142857143%
97.22222222222221%
97.42063492063492%
97.61904761904762%
97.22222222222221%
97.02380952380952%
96.42857142857143%
96.03174603174604%
96.23015873015873%
96.23015873015873%
96.23015873015873%
94.24603174603175%
95.63492063492063%
95.63492063492063%
96.23015873015873%
96.42857142857143%
95.83333333333334%
95.43650793650794%
95.43650793650794%
95.43650793650794%
96.03174603174604%
95.83333333333334%
96.03174603174604%
96.23015873015873%
96.23015873015873%
96.23015873015873%
95.83333333333334%
96.03174603174604%
96.03174603174604%
95.83333333333334%
95.63492063492063%
95.63492063492063%
94.64285714285714%
92.46031746031747%
91.86507936507937%
89.28571428571429%
91.07142857142857%
92.26190476190477%
91.86507936507937%
92.65873015873017%
89.48412698412699%
89.48412698412699%
89.48412698412699%
89.28571428571429%
88.4920634920635%
89.48412698412699%
85.71428571428571%
85.71428571428571%
85.71428571428571%
84.32539682539682%
85.11904761904762%
84.32539682539682%
84.32539682539682%
84.32539682539682%
84.92063492063492%
85.11904761904762%
84.12698412698413%
83.33333333333334%
84.32539682539682%
84.92063492063492%
84.12698412698413%
83.73015873015873%
83.33333333333334%
84.12698412698413%
83.92857142857143%
83.92857142857143%
86.5079365079365%
86.30952380952381%
84.32539682539682%
86.70634920634922%
88.4920634920635%
91.46825396825396%
91.26984126984127%
91.07142857142857%
87.3015873015873%
87.5%
87.5%
85.11904761904762%
82.73809523809523%
82.73809523809523%
82.73809523809523%
81.74603174603175%
82.73809523809523%
81.74603174603175%
81.74603174603175%
81.54761904761905%
82.34126984126983%
83.33333333333334%
86.30952380952381%
84.12698412698413%
82.93650793650794%
81.74603174603175%
81.15079365079364%
78.37301587301587%
77.18253968253968%
80.35714285714286%
80.75396825396825%
81.74603174603175%
79.16666666666666%
78.57142857142857%
76.19047619047619%
75.1984126984127%
75.9920634920635%
75.9920634920635%
75.9920634920635%
75.9920634920635%
77.38095238095238%
77.18253968253968%
75.9920634920635%
78.76984126984127%
75.9920634920635%
75.9920634920635%
76.19047619047619%
74.8015873015873%
75.79365079365078%
74.20634920634922%
72.42063492063492%
72.81746031746032%
73.01587301587301%
74.20634920634922%
74.20634920634922%
74.0079365079365%
74.0079365079365%
72.61904761904762%
72.61904761904762%
72.61904761904762%
73.61111111111111%
74.20634920634922%
71.82539682539682%
70.23809523809523%
70.43650793650794%
71.82539682539682%
72.22222222222221%
72.22222222222221%
72.42063492063492%
71.23015873015873%
71.82539682539682%
72.22222222222221%
71.82539682539682%
72.02380952380952%
73.01587301587301%
72.61904761904762%
72.61904761904762%
71.62698412698413%
71.42857142857143%
71.03174603174604%
70.83333333333334%
69.64285714285714%
69.04761904761905%
67.85714285714286%
67.85714285714286%
68.65079365079364%
67.65873015873017%
67.85714285714286%
67.85714285714286%
67.85714285714286%
66.66666666666666%
66.66666666666666%
66.86507936507937%
67.85714285714286%
69.04761904761905%
69.04761904761905%
69.04761904761905%
69.44444444444444%
69.24603174603175%
69.04761904761905%
67.06349206349206%
67.26190476190477%
66.46825396825396%
65.67460317460318%
65.27777777777779%
65.67460317460318%
65.07936507936508%
65.07936507936508%
65.67460317460318%
65.07936507936508%
65.47619047619048%
65.67460317460318%
65.47619047619048%
65.07936507936508%
66.07142857142857%
65.07936507936508%
65.27777777777779%
65.27777777777779%
65.67460317460318%
65.07936507936508%
65.67460317460318%
64.68253968253968%
64.68253968253968%
64.88095238095238%
64.88095238095238%
64.68253968253968%
65.27777777777779%
65.27777777777779%
65.87301587301587%
65.27777777777779%
65.67460317460318%
65.27777777777779%
64.68253968253968%
65.07936507936508%
65.07936507936508%
64.68253968253968%
65.07936507936508%
65.07936507936508%
65.07936507936508%
65.07936507936508%
64.88095238095238%
65.07936507936508%
64.88095238095238%
64.88095238095238%
65.07936507936508%
65.47619047619048%
65.47619047619048%
65.47619047619048%
65.47619047619048%
