99.20634920634922%
98.80952380952381%
98.4126984126984%
98.61111111111111%
98.61111111111111%
98.4126984126984%
98.21428571428571%
99.0079365079365%
98.80952380952381%
97.22222222222221%
96.82539682539682%
96.62698412698413%
96.62698412698413%
96.82539682539682%
97.02380952380952%
97.02380952380952%
97.81746031746032%
98.80952380952381%
99.40476190476191%
99.20634920634922%
98.61111111111111%
98.4126984126984%
98.61111111111111%
99.0079365079365%
99.40476190476191%
98.01587301587301%
99.20634920634922%
99.0079365079365%
98.61111111111111%
98.21428571428571%
98.01587301587301%
98.01587301587301%
98.4126984126984%
99.0079365079365%
99.20634920634922%
98.4126984126984%
97.42063492063492%
97.02380952380952%
97.22222222222221%
97.42063492063492%
97.42063492063492%
98.21428571428571%
98.4126984126984%
98.80952380952381%
99.20634920634922%
98.21428571428571%
98.21428571428571%
98.21428571428571%
99.20634920634922%
99.20634920634922%
98.4126984126984%
97.42063492063492%
99.20634920634922%
98.80952380952381%
99.20634920634922%
99.0079365079365%
98.61111111111111%
99.0079365079365%
99.0079365079365%
99.20634920634922%
99.0079365079365%
99.20634920634922%
99.20634920634922%
98.80952380952381%
99.0079365079365%
99.0079365079365%
99.20634920634922%
99.0079365079365%
97.81746031746032%
97.61904761904762%
98.80952380952381%
99.20634920634922%
99.20634920634922%
99.20634920634922%
99.20634920634922%
99.20634920634922%
97.61904761904762%
97.81746031746032%
99.20634920634922%
98.61111111111111%
99.20634920634922%
99.20634920634922%
99.40476190476191%
99.0079365079365%
97.42063492063492%
97.42063492063492%
98.01587301587301%
99.20634920634922%
99.20634920634922%
99.20634920634922%
99.20634920634922%
99.20634920634922%
99.20634920634922%
97.61904761904762%
97.42063492063492%
97.42063492063492%
97.22222222222221%
97.42063492063492%
98.21428571428571%
99.0079365079365%
99.0079365079365%
99.20634920634922%
98.21428571428571%
97.61904761904762%
99.20634920634922%
99.20634920634922%
99.20634920634922%
99.0079365079365%
98.61111111111111%
97.42063492063492%
96.82539682539682%
97.42063492063492%
98.80952380952381%
99.20634920634922%
99.20634920634922%
99.20634920634922%
99.20634920634922%
99.20634920634922%
97.81746031746032%
97.02380952380952%
97.02380952380952%
97.22222222222221%
97.02380952380952%
97.22222222222221%
97.61904761904762%
98.80952380952381%
99.20634920634922%
99.0079365079365%
98.4126984126984%
97.61904761904762%
98.4126984126984%
99.0079365079365%
99.20634920634922%
98.80952380952381%
97.61904761904762%
96.82539682539682%
96.82539682539682%
98.61111111111111%
99.40476190476191%
99.20634920634922%
99.0079365079365%
99.20634920634922%
99.40476190476191%
99.0079365079365%
97.81746031746032%
97.02380952380952%
97.22222222222221%
97.22222222222221%
97.02380952380952%
97.02380952380952%
97.22222222222221%
97.61904761904762%
97.61904761904762%
98.21428571428571%
97.61904761904762%
97.22222222222221%
97.61904761904762%
97.81746031746032%
97.42063492063492%
97.22222222222221%
97.02380952380952%
97.22222222222221%
97.81746031746032%
99.40476190476191%
98.80952380952381%
98.80952380952381%
99.20634920634922%
99.20634920634922%
99.20634920634922%
99.20634920634922%
99.0079365079365%
98.61111111111111%
98.01587301587301%
97.22222222222221%
97.22222222222221%
97.22222222222221%
97.22222222222221%
96.82539682539682%
97.02380952380952%
97.81746031746032%
97.81746031746032%
97.02380952380952%
97.42063492063492%
97.61904761904762%
97.22222222222221%
97.22222222222221%
97.81746031746032%
99.0079365079365%
99.20634920634922%
99.0079365079365%
97.81746031746032%
98.01587301587301%
98.80952380952381%
99.40476190476191%
98.80952380952381%
99.20634920634922%
99.20634920634922%
99.20634920634922%
99.20634920634922%
99.40476190476191%
99.20634920634922%
98.01587301587301%
97.22222222222221%
96.62698412698413%
96.82539682539682%
97.61904761904762%
97.61904761904762%
97.81746031746032%
98.61111111111111%
97.61904761904762%
97.22222222222221%
97.42063492063492%
99.0079365079365%
99.20634920634922%
99.20634920634922%
98.01587301587301%
97.81746031746032%
98.01587301587301%
98.61111111111111%
99.20634920634922%
99.0079365079365%
99.20634920634922%
99.0079365079365%
98.61111111111111%
98.61111111111111%
98.4126984126984%
99.20634920634922%
99.0079365079365%
97.02380952380952%
97.02380952380952%
97.02380952380952%
97.22222222222221%
97.61904761904762%
97.81746031746032%
99.0079365079365%
98.01587301587301%
97.22222222222221%
98.01587301587301%
99.20634920634922%
99.20634920634922%
98.61111111111111%
98.01587301587301%
98.01587301587301%
98.21428571428571%
98.80952380952381%
99.20634920634922%
98.80952380952381%
99.20634920634922%
98.80952380952381%
98.21428571428571%
98.21428571428571%
98.01587301587301%
98.4126984126984%
99.20634920634922%
98.80952380952381%
97.02380952380952%
97.02380952380952%
97.61904761904762%
97.61904761904762%
97.81746031746032%
99.20634920634922%
98.01587301587301%
97.81746031746032%
98.80952380952381%
99.20634920634922%
99.20634920634922%
98.61111111111111%
98.21428571428571%
98.01587301587301%
98.61111111111111%
99.20634920634922%
99.40476190476191%
99.20634920634922%
99.0079365079365%
99.20634920634922%
98.01587301587301%
97.61904761904762%
98.01587301587301%
98.01587301587301%
99.0079365079365%
99.20634920634922%
97.61904761904762%
97.22222222222221%
97.61904761904762%
97.61904761904762%
97.81746031746032%
99.20634920634922%
97.42063492063492%
98.01587301587301%
99.0079365079365%
99.20634920634922%
99.20634920634922%
98.61111111111111%
98.01587301587301%
98.01587301587301%
98.61111111111111%
99.20634920634922%
99.40476190476191%
99.0079365079365%
98.80952380952381%
99.20634920634922%
98.21428571428571%
97.61904761904762%
98.01587301587301%
98.4126984126984%
98.61111111111111%
99.20634920634922%
98.61111111111111%
97.22222222222221%
97.42063492063492%
97.61904761904762%
98.01587301587301%
98.4126984126984%
98.01587301587301%
99.20634920634922%
99.20634920634922%
99.0079365079365%
98.61111111111111%
98.01587301587301%
97.61904761904762%
97.81746031746032%
98.4126984126984%
99.20634920634922%
99.20634920634922%
98.80952380952381%
98.61111111111111%
99.20634920634922%
98.80952380952381%
98.01587301587301%
98.4126984126984%
98.61111111111111%
98.21428571428571%
98.61111111111111%
99.20634920634922%
97.81746031746032%
97.22222222222221%
97.61904761904762%
98.21428571428571%
98.01587301587301%
99.0079365079365%
99.20634920634922%
99.0079365079365%
98.80952380952381%
98.61111111111111%
98.01587301587301%
97.81746031746032%
98.01587301587301%
98.4126984126984%
99.20634920634922%
99.20634920634922%
98.61111111111111%
98.80952380952381%
99.20634920634922%
99.20634920634922%
98.21428571428571%
98.4126984126984%
98.01587301587301%
98.01587301587301%
98.4126984126984%
99.0079365079365%
99.40476190476191%
98.21428571428571%
97.42063492063492%
98.21428571428571%
97.42063492063492%
99.0079365079365%
99.20634920634922%
98.4126984126984%
98.4126984126984%
98.01587301587301%
98.01587301587301%
98.01587301587301%
98.61111111111111%
99.20634920634922%
99.20634920634922%
98.80952380952381%
98.4126984126984%
98.61111111111111%
99.20634920634922%
99.20634920634922%
98.80952380952381%
98.4126984126984%
98.4126984126984%
99.0079365079365%
99.20634920634922%
99.0079365079365%
98.80952380952381%
99.20634920634922%
97.61904761904762%
98.01587301587301%
97.81746031746032%
99.20634920634922%
99.20634920634922%
99.0079365079365%
98.21428571428571%
98.01587301587301%
98.01587301587301%
98.01587301587301%
98.4126984126984%
98.80952380952381%
99.20634920634922%
98.80952380952381%
97.42063492063492%
98.61111111111111%
99.20634920634922%
99.20634920634922%
99.20634920634922%
98.21428571428571%
98.21428571428571%
99.0079365079365%
99.20634920634922%
99.20634920634922%
99.20634920634922%
99.0079365079365%
98.01587301587301%
98.01587301587301%
99.20634920634922%
99.20634920634922%
99.20634920634922%
99.0079365079365%
98.61111111111111%
98.21428571428571%
98.01587301587301%
97.81746031746032%
98.01587301587301%
98.4126984126984%
99.20634920634922%
98.80952380952381%
97.42063492063492%
98.61111111111111%
99.0079365079365%
99.20634920634922%
99.20634920634922%
98.21428571428571%
98.21428571428571%
98.21428571428571%
98.80952380952381%
99.0079365079365%
99.0079365079365%
99.20634920634922%
99.20634920634922%
98.4126984126984%
99.20634920634922%
98.80952380952381%
98.4126984126984%
98.21428571428571%
98.01587301587301%
98.21428571428571%
98.01587301587301%
97.42063492063492%
97.61904761904762%
98.01587301587301%
98.80952380952381%
99.20634920634922%
98.21428571428571%
98.4126984126984%
99.20634920634922%
99.20634920634922%
98.61111111111111%
98.21428571428571%
98.21428571428571%
98.21428571428571%
98.4126984126984%
98.80952380952381%
98.4126984126984%
98.21428571428571%
99.20634920634922%
98.61111111111111%
99.0079365079365%
99.0079365079365%
98.01587301587301%
98.01587301587301%
98.01587301587301%
98.01587301587301%
98.01587301587301%
97.61904761904762%
97.61904761904762%
97.81746031746032%
98.4126984126984%
99.20634920634922%
98.61111111111111%
98.80952380952381%
99.20634920634922%
98.61111111111111%
97.81746031746032%
98.01587301587301%
98.21428571428571%
98.21428571428571%
98.01587301587301%
98.01587301587301%
98.01587301587301%
98.21428571428571%
99.20634920634922%
98.61111111111111%
99.20634920634922%
98.80952380952381%
98.4126984126984%
98.4126984126984%
98.4126984126984%
98.21428571428571%
98.21428571428571%
98.21428571428571%
98.01587301587301%
98.01587301587301%
98.4126984126984%
99.20634920634922%
98.80952380952381%
98.61111111111111%
99.40476190476191%
98.21428571428571%
97.61904761904762%
97.81746031746032%
98.61111111111111%
98.21428571428571%
97.81746031746032%
98.01587301587301%
98.01587301587301%
98.21428571428571%
99.60317460317461%
98.01587301587301%
99.20634920634922%
99.20634920634922%
99.20634920634922%
99.20634920634922%
99.0079365079365%
99.20634920634922%
99.20634920634922%
99.20634920634922%
99.0079365079365%
98.80952380952381%
99.20634920634922%
99.20634920634922%
98.80952380952381%
98.4126984126984%
99.20634920634922%
98.21428571428571%
97.81746031746032%
98.01587301587301%
98.21428571428571%
98.21428571428571%
98.01587301587301%
98.4126984126984%
99.0079365079365%
99.20634920634922%
99.20634920634922%
98.01587301587301%
99.0079365079365%
98.61111111111111%
98.21428571428571%
97.61904761904762%
97.61904761904762%
98.4126984126984%
98.61111111111111%
99.20634920634922%
99.20634920634922%
99.20634920634922%
99.20634920634922%
99.20634920634922%
99.20634920634922%
99.0079365079365%
99.20634920634922%
98.61111111111111%
98.01587301587301%
98.21428571428571%
99.0079365079365%
99.0079365079365%
98.01587301587301%
98.4126984126984%
99.20634920634922%
99.0079365079365%
98.80952380952381%
98.01587301587301%
97.61904761904762%
97.61904761904762%
97.42063492063492%
97.61904761904762%
97.61904761904762%
98.61111111111111%
99.0079365079365%
99.20634920634922%
99.20634920634922%
99.20634920634922%
99.20634920634922%
99.20634920634922%
99.20634920634922%
99.0079365079365%
99.20634920634922%
99.20634920634922%
98.21428571428571%
98.80952380952381%
99.20634920634922%
99.20634920634922%
99.0079365079365%
98.61111111111111%
99.20634920634922%
99.20634920634922%
99.0079365079365%
98.61111111111111%
97.22222222222221%
97.42063492063492%
97.42063492063492%
98.61111111111111%
98.80952380952381%
98.80952380952381%
99.20634920634922%
99.20634920634922%
99.40476190476191%
99.0079365079365%
99.20634920634922%
98.80952380952381%
98.61111111111111%
99.0079365079365%
99.20634920634922%
99.20634920634922%
98.4126984126984%
99.20634920634922%
99.20634920634922%
99.20634920634922%
99.0079365079365%
98.4126984126984%
98.4126984126984%
99.20634920634922%
99.20634920634922%
99.20634920634922%
98.80952380952381%
98.61111111111111%
98.61111111111111%
99.20634920634922%
99.20634920634922%
99.20634920634922%
99.20634920634922%
99.20634920634922%
99.20634920634922%
99.0079365079365%
99.0079365079365%
98.80952380952381%
98.4126984126984%
98.80952380952381%
99.40476190476191%
99.20634920634922%
99.20634920634922%
99.20634920634922%
99.20634920634922%
99.20634920634922%
99.20634920634922%
98.21428571428571%
99.20634920634922%
99.20634920634922%
99.20634920634922%
99.20634920634922%
99.20634920634922%
99.20634920634922%
99.20634920634922%
99.0079365079365%
98.80952380952381%
99.20634920634922%
99.20634920634922%
99.20634920634922%
98.80952380952381%
98.61111111111111%
98.80952380952381%
98.80952380952381%
98.4126984126984%
98.80952380952381%
99.20634920634922%
99.20634920634922%
98.80952380952381%
99.0079365079365%
99.0079365079365%
99.20634920634922%
99.20634920634922%
99.20634920634922%
99.20634920634922%
99.20634920634922%
99.20634920634922%
99.40476190476191%
