100.0%
99.8015873015873%
99.8015873015873%
99.8015873015873%
99.8015873015873%
99.8015873015873%
99.8015873015873%
99.8015873015873%
99.8015873015873%
99.8015873015873%
99.60317460317461%
98.80952380952381%
97.81746031746032%
97.81746031746032%
98.4126984126984%
97.61904761904762%
97.42063492063492%
97.61904761904762%
97.61904761904762%
97.22222222222221%
97.02380952380952%
97.42063492063492%
97.61904761904762%
98.01587301587301%
99.40476190476191%
97.81746031746032%
98.01587301587301%
99.0079365079365%
97.81746031746032%
97.22222222222221%
97.42063492063492%
97.81746031746032%
97.42063492063492%
96.62698412698413%
96.42857142857143%
96.82539682539682%
97.02380952380952%
96.82539682539682%
97.22222222222221%
96.82539682539682%
96.62698412698413%
96.82539682539682%
96.62698412698413%
96.82539682539682%
97.42063492063492%
97.42063492063492%
97.81746031746032%
97.42063492063492%
98.21428571428571%
98.4126984126984%
98.01587301587301%
98.80952380952381%
98.80952380952381%
99.60317460317461%
98.61111111111111%
98.01587301587301%
97.42063492063492%
98.21428571428571%
99.20634920634922%
99.60317460317461%
98.80952380952381%
98.4126984126984%
97.42063492063492%
97.42063492063492%
97.61904761904762%
97.42063492063492%
97.81746031746032%
99.0079365079365%
98.01587301587301%
97.61904761904762%
98.4126984126984%
99.20634920634922%
99.20634920634922%
99.20634920634922%
97.61904761904762%
97.61904761904762%
97.02380952380952%
97.02380952380952%
96.82539682539682%
96.82539682539682%
96.82539682539682%
96.42857142857143%
96.03174603174604%
96.03174603174604%
95.03968253968253%
96.03174603174604%
96.23015873015873%
96.03174603174604%
96.23015873015873%
96.03174603174604%
95.63492063492063%
96.03174603174604%
96.23015873015873%
96.23015873015873%
95.43650793650794%
95.63492063492063%
96.03174603174604%
95.63492063492063%
96.03174603174604%
96.82539682539682%
96.62698412698413%
96.82539682539682%
96.23015873015873%
96.23015873015873%
96.23015873015873%
96.23015873015873%
96.42857142857143%
96.82539682539682%
97.02380952380952%
96.82539682539682%
97.02380952380952%
97.02380952380952%
97.02380952380952%
97.02380952380952%
97.02380952380952%
97.22222222222221%
97.02380952380952%
97.02380952380952%
96.82539682539682%
96.23015873015873%
95.83333333333334%
95.63492063492063%
96.03174603174604%
96.03174603174604%
96.03174603174604%
96.03174603174604%
96.03174603174604%
96.03174603174604%
96.03174603174604%
96.03174603174604%
96.03174603174604%
96.82539682539682%
97.02380952380952%
97.02380952380952%
96.62698412698413%
96.03174603174604%
96.03174603174604%
96.03174603174604%
95.63492063492063%
96.03174603174604%
95.63492063492063%
93.45238095238095%
94.44444444444444%
95.43650793650794%
96.03174603174604%
96.03174603174604%
95.03968253968253%
93.45238095238095%
93.45238095238095%
92.46031746031747%
92.85714285714286%
92.85714285714286%
94.44444444444444%
92.65873015873017%
92.85714285714286%
92.85714285714286%
92.46031746031747%
92.06349206349206%
91.66666666666666%
91.86507936507937%
92.65873015873017%
91.66666666666666%
92.06349206349206%
91.86507936507937%
91.86507936507937%
92.26190476190477%
93.05555555555556%
93.25396825396825%
92.65873015873017%
91.86507936507937%
91.86507936507937%
91.26984126984127%
91.86507936507937%
92.06349206349206%
91.66666666666666%
91.86507936507937%
93.45238095238095%
92.26190476190477%
92.85714285714286%
92.46031746031747%
92.85714285714286%
93.45238095238095%
94.64285714285714%
94.64285714285714%
93.45238095238095%
92.26190476190477%
93.45238095238095%
94.04761904761905%
95.23809523809523%
95.83333333333334%
95.23809523809523%
95.43650793650794%
95.43650793650794%
95.43650793650794%
95.83333333333334%
96.23015873015873%
97.02380952380952%
97.61904761904762%
97.02380952380952%
96.23015873015873%
96.23015873015873%
96.23015873015873%
96.82539682539682%
96.62698412698413%
97.02380952380952%
97.02380952380952%
97.42063492063492%
98.01587301587301%
98.21428571428571%
98.21428571428571%
98.21428571428571%
98.4126984126984%
98.21428571428571%
98.21428571428571%
97.81746031746032%
97.61904761904762%
97.42063492063492%
97.81746031746032%
98.01587301587301%
97.22222222222221%
96.62698412698413%
96.82539682539682%
96.23015873015873%
96.03174603174604%
97.02380952380952%
97.02380952380952%
96.23015873015873%
96.03174603174604%
96.03174603174604%
96.03174603174604%
95.83333333333334%
95.83333333333334%
95.83333333333334%
94.64285714285714%
95.83333333333334%
95.03968253968253%
94.24603174603175%
94.24603174603175%
94.24603174603175%
95.23809523809523%
95.23809523809523%
94.24603174603175%
93.25396825396825%
93.84920634920636%
94.44444444444444%
95.23809523809523%
96.03174603174604%
96.03174603174604%
96.82539682539682%
96.03174603174604%
95.63492063492063%
95.43650793650794%
95.03968253968253%
95.43650793650794%
95.03968253968253%
93.65079365079364%
93.45238095238095%
94.44444444444444%
95.23809523809523%
94.84126984126983%
93.05555555555556%
93.25396825396825%
94.04761904761905%
92.65873015873017%
92.46031746031747%
91.66666666666666%
91.26984126984127%
92.26190476190477%
93.05555555555556%
93.84920634920636%
95.23809523809523%
95.63492063492063%
94.84126984126983%
96.23015873015873%
95.63492063492063%
96.42857142857143%
96.82539682539682%
96.82539682539682%
96.42857142857143%
95.43650793650794%
95.43650793650794%
95.83333333333334%
96.23015873015873%
96.23015873015873%
95.23809523809523%
95.43650793650794%
95.23809523809523%
95.43650793650794%
96.82539682539682%
95.43650793650794%
95.03968253968253%
95.83333333333334%
96.42857142857143%
96.03174603174604%
97.22222222222221%
96.62698412698413%
97.42063492063492%
97.22222222222221%
97.22222222222221%
97.22222222222221%
98.01587301587301%
98.01587301587301%
97.61904761904762%
98.01587301587301%
97.81746031746032%
98.01587301587301%
98.4126984126984%
98.21428571428571%
98.21428571428571%
97.22222222222221%
97.22222222222221%
96.82539682539682%
97.02380952380952%
97.22222222222221%
97.02380952380952%
97.61904761904762%
97.02380952380952%
97.22222222222221%
96.62698412698413%
95.43650793650794%
94.64285714285714%
95.03968253968253%
94.64285714285714%
94.24603174603175%
94.64285714285714%
95.23809523809523%
94.84126984126983%
94.04761904761905%
94.04761904761905%
92.85714285714286%
92.65873015873017%
92.06349206349206%
90.67460317460318%
90.67460317460318%
89.88095238095238%
89.88095238095238%
88.88888888888889%
90.07936507936508%
89.88095238095238%
88.69047619047619%
88.09523809523809%
89.68253968253968%
88.4920634920635%
86.70634920634922%
85.11904761904762%
86.70634920634922%
86.5079365079365%
84.32539682539682%
83.13492063492063%
83.73015873015873%
84.52380952380952%
85.31746031746032%
85.31746031746032%
84.52380952380952%
85.31746031746032%
84.32539682539682%
85.11904761904762%
85.9126984126984%
85.71428571428571%
86.90476190476191%
85.51587301587301%
85.51587301587301%
85.11904761904762%
86.30952380952381%
86.11111111111111%
85.51587301587301%
84.92063492063492%
84.32539682539682%
84.92063492063492%
85.71428571428571%
87.5%
88.69047619047619%
87.3015873015873%
89.48412698412699%
90.67460317460318%
92.26190476190477%
91.07142857142857%
91.07142857142857%
90.07936507936508%
89.68253968253968%
90.07936507936508%
90.47619047619048%
91.07142857142857%
90.47619047619048%
90.07936507936508%
89.28571428571429%
88.4920634920635%
87.89682539682539%
87.6984126984127%
89.0873015873016%
90.07936507936508%
88.4920634920635%
86.70634920634922%
87.6984126984127%
89.68253968253968%
89.28571428571429%
90.87301587301587%
92.85714285714286%
93.84920634920636%
94.84126984126983%
94.04761904761905%
93.45238095238095%
94.24603174603175%
94.04761904761905%
94.84126984126983%
94.84126984126983%
95.43650793650794%
95.63492063492063%
96.42857142857143%
95.43650793650794%
96.42857142857143%
96.23015873015873%
96.23015873015873%
96.42857142857143%
96.23015873015873%
96.42857142857143%
96.42857142857143%
96.23015873015873%
96.23015873015873%
95.63492063492063%
96.42857142857143%
96.62698412698413%
96.03174603174604%
95.03968253968253%
96.03174603174604%
96.62698412698413%
96.62698412698413%
96.03174603174604%
96.03174603174604%
96.03174603174604%
95.03968253968253%
95.23809523809523%
96.03174603174604%
95.03968253968253%
92.65873015873017%
91.26984126984127%
91.86507936507937%
92.06349206349206%
93.84920634920636%
93.84920634920636%
93.05555555555556%
94.64285714285714%
95.63492063492063%
95.63492063492063%
96.03174603174604%
96.23015873015873%
96.03174603174604%
96.03174603174604%
96.03174603174604%
96.03174603174604%
95.23809523809523%
94.44444444444444%
92.26190476190477%
93.84920634920636%
94.24603174603175%
95.23809523809523%
95.83333333333334%
96.23015873015873%
96.42857142857143%
95.63492063492063%
95.23809523809523%
94.84126984126983%
96.03174603174604%
96.03174603174604%
96.82539682539682%
96.42857142857143%
96.62698412698413%
97.02380952380952%
96.82539682539682%
96.42857142857143%
96.23015873015873%
96.42857142857143%
97.02380952380952%
96.23015873015873%
96.82539682539682%
96.82539682539682%
96.62698412698413%
96.62698412698413%
96.42857142857143%
96.62698412698413%
96.42857142857143%
96.42857142857143%
96.42857142857143%
96.23015873015873%
96.23015873015873%
96.62698412698413%
96.42857142857143%
96.62698412698413%
96.23015873015873%
96.23015873015873%
96.42857142857143%
96.03174603174604%
96.23015873015873%
96.42857142857143%
96.23015873015873%
96.23015873015873%
95.83333333333334%
95.83333333333334%
95.43650793650794%
96.03174603174604%
96.03174603174604%
95.03968253968253%
95.83333333333334%
95.83333333333334%
94.84126984126983%
95.03968253968253%
94.84126984126983%
95.63492063492063%
95.83333333333334%
96.23015873015873%
96.23015873015873%
96.23015873015873%
96.62698412698413%
96.42857142857143%
96.42857142857143%
96.82539682539682%
96.42857142857143%
96.62698412698413%
96.62698412698413%
96.62698412698413%
96.42857142857143%
96.23015873015873%
96.82539682539682%
96.23015873015873%
95.83333333333334%
95.83333333333334%
94.84126984126983%
91.46825396825396%
93.84920634920636%
94.04761904761905%
95.63492063492063%
95.23809523809523%
96.23015873015873%
96.62698412698413%
96.62698412698413%
96.62698412698413%
96.62698412698413%
96.62698412698413%
96.82539682539682%
96.62698412698413%
96.23015873015873%
94.64285714285714%
95.03968253968253%
95.43650793650794%
94.64285714285714%
96.23015873015873%
95.23809523809523%
96.23015873015873%
93.45238095238095%
95.03968253968253%
93.05555555555556%
95.23809523809523%
96.62698412698413%
94.84126984126983%
92.85714285714286%
94.04761904761905%
91.66666666666666%
91.26984126984127%
88.69047619047619%
88.69047619047619%
88.4920634920635%
88.88888888888889%
92.46031746031747%
90.47619047619048%
89.28571428571429%
90.87301587301587%
87.89682539682539%
83.53174603174604%
86.90476190476191%
83.92857142857143%
86.11111111111111%
84.52380952380952%
84.52380952380952%
86.70634920634922%
86.11111111111111%
83.92857142857143%
83.92857142857143%
85.51587301587301%
85.51587301587301%
85.71428571428571%
86.70634920634922%
88.4920634920635%
89.68253968253968%
91.07142857142857%
93.25396825396825%
95.63492063492063%
96.62698412698413%
96.42857142857143%
96.82539682539682%
96.62698412698413%
96.62698412698413%
96.23015873015873%
96.82539682539682%
96.82539682539682%
96.82539682539682%
97.61904761904762%
96.62698412698413%
96.03174603174604%
97.02380952380952%
96.42857142857143%
94.64285714285714%
97.02380952380952%
96.62698412698413%
97.02380952380952%
96.62698412698413%
96.82539682539682%
97.02380952380952%
96.82539682539682%
94.84126984126983%
93.65079365079364%
96.62698412698413%
94.44444444444444%
96.82539682539682%
96.62698412698413%
94.44444444444444%
96.42857142857143%
95.23809523809523%
93.25396825396825%
96.62698412698413%
96.62698412698413%
94.24603174603175%
89.28571428571429%
93.25396825396825%
92.46031746031747%
89.88095238095238%
84.72222222222221%
84.92063492063492%
87.5%
90.87301587301587%
94.84126984126983%
95.03968253968253%
93.45238095238095%
94.64285714285714%
88.69047619047619%
88.4920634920635%
82.14285714285714%
85.51587301587301%
88.69047619047619%
81.54761904761905%
86.5079365079365%
89.48412698412699%
90.67460317460318%
86.5079365079365%
81.54761904761905%
79.36507936507937%
72.81746031746032%
74.8015873015873%
71.23015873015873%
84.72222222222221%
77.97619047619048%
71.62698412698413%
71.82539682539682%
66.86507936507937%
71.82539682539682%
72.22222222222221%
61.30952380952381%
65.67460317460318%
59.12698412698413%
67.65873015873017%
58.92857142857143%
67.06349206349206%
76.19047619047619%
86.11111111111111%
86.90476190476191%
85.11904761904762%
89.88095238095238%
86.30952380952381%
86.5079365079365%
79.56349206349206%
82.93650793650794%
71.42857142857143%
71.42857142857143%
66.46825396825396%
76.5873015873016%
81.15079365079364%
82.34126984126983%
85.9126984126984%
86.5079365079365%
79.36507936507937%
84.92063492063492%
78.57142857142857%
86.30952380952381%
83.33333333333334%
88.69047619047619%
80.15873015873017%
87.5%
87.6984126984127%
86.90476190476191%
83.13492063492063%
74.0079365079365%
67.65873015873017%
76.5873015873016%
81.15079365079364%
90.07936507936508%
90.87301587301587%
91.86507936507937%
88.88888888888889%
88.09523809523809%
80.15873015873017%
83.53174603174604%
82.14285714285714%
80.75396825396825%
85.9126984126984%
86.30952380952381%
88.09523809523809%
89.88095238095238%
88.88888888888889%
79.56349206349206%
68.84920634920636%
58.13492063492064%
60.912698412698404%
61.50793650793651%
70.03968253968253%
81.94444444444444%
80.55555555555556%
85.11904761904762%
79.16666666666666%
76.5873015873016%
61.50793650793651%
74.60317460317461%
62.301587301587304%
58.333333333333336%
61.904761904761905%
47.22222222222222%
47.42063492063492%
58.333333333333336%
70.23809523809523%
82.34126984126983%
83.73015873015873%
83.73015873015873%
85.9126984126984%
78.17460317460318%
75.0%
86.90476190476191%
80.15873015873017%
86.11111111111111%
85.9126984126984%
83.53174603174604%
69.44444444444444%
82.53968253968253%
74.0079365079365%
81.94444444444444%
84.92063492063492%
72.61904761904762%
52.182539682539684%
35.91269841269841%
35.317460317460316%
35.317460317460316%
35.91269841269841%
36.904761904761905%
42.65873015873016%
36.11111111111111%
35.317460317460316%
38.095238095238095%
50.0%
65.47619047619048%
71.23015873015873%
65.87301587301587%
53.57142857142857%
36.7063492063492%
36.507936507936506%
39.682539682539684%
40.07936507936508%
35.317460317460316%
35.317460317460316%
35.317460317460316%
35.317460317460316%
35.317460317460316%
35.317460317460316%
35.317460317460316%
35.317460317460316%
35.317460317460316%
35.317460317460316%
35.317460317460316%
35.317460317460316%
35.317460317460316%
35.317460317460316%
35.317460317460316%
35.317460317460316%
35.317460317460316%
35.317460317460316%
35.317460317460316%
35.317460317460316%
35.317460317460316%
