100.0%
99.8015873015873%
99.8015873015873%
99.8015873015873%
99.8015873015873%
99.60317460317461%
99.60317460317461%
99.0079365079365%
99.60317460317461%
99.60317460317461%
99.60317460317461%
99.60317460317461%
98.80952380952381%
98.80952380952381%
98.61111111111111%
99.0079365079365%
99.8015873015873%
99.60317460317461%
98.4126984126984%
99.60317460317461%
99.8015873015873%
99.8015873015873%
96.82539682539682%
99.60317460317461%
98.61111111111111%
99.60317460317461%
99.60317460317461%
99.20634920634922%
98.61111111111111%
99.60317460317461%
99.8015873015873%
96.62698412698413%
96.03174603174604%
99.40476190476191%
99.0079365079365%
99.8015873015873%
98.21428571428571%
98.4126984126984%
98.80952380952381%
99.8015873015873%
98.80952380952381%
98.4126984126984%
97.42063492063492%
97.81746031746032%
99.60317460317461%
99.60317460317461%
96.82539682539682%
94.24603174603175%
94.24603174603175%
88.69047619047619%
96.82539682539682%
96.82539682539682%
96.82539682539682%
96.23015873015873%
96.03174603174604%
96.23015873015873%
94.84126984126983%
96.42857142857143%
97.61904761904762%
97.42063492063492%
97.22222222222221%
98.01587301587301%
98.21428571428571%
97.42063492063492%
95.83333333333334%
96.42857142857143%
97.61904761904762%
96.42857142857143%
99.0079365079365%
97.61904761904762%
96.82539682539682%
97.42063492063492%
97.42063492063492%
97.42063492063492%
96.42857142857143%
96.62698412698413%
97.02380952380952%
97.42063492063492%
97.02380952380952%
97.42063492063492%
98.01587301587301%
97.42063492063492%
94.44444444444444%
96.23015873015873%
99.40476190476191%
98.80952380952381%
98.80952380952381%
91.86507936507937%
90.07936507936508%
88.4920634920635%
97.81746031746032%
97.42063492063492%
98.61111111111111%
99.20634920634922%
98.61111111111111%
94.24603174603175%
88.88888888888889%
88.4920634920635%
88.88888888888889%
88.88888888888889%
99.20634920634922%
97.22222222222221%
97.02380952380952%
98.61111111111111%
98.80952380952381%
97.02380952380952%
98.21428571428571%
99.0079365079365%
95.63492063492063%
97.02380952380952%
96.82539682539682%
96.42857142857143%
97.02380952380952%
98.01587301587301%
95.03968253968253%
93.25396825396825%
97.81746031746032%
95.83333333333334%
97.02380952380952%
92.85714285714286%
94.84126984126983%
96.23015873015873%
85.9126984126984%
92.85714285714286%
92.26190476190477%
89.88095238095238%
99.0079365079365%
99.0079365079365%
85.9126984126984%
91.86507936507937%
93.65079365079364%
97.02380952380952%
98.21428571428571%
96.23015873015873%
92.65873015873017%
94.04761904761905%
91.07142857142857%
90.07936507936508%
92.26190476190477%
97.02380952380952%
96.82539682539682%
98.21428571428571%
98.01587301587301%
93.05555555555556%
97.61904761904762%
97.02380952380952%
97.02380952380952%
96.62698412698413%
97.42063492063492%
93.65079365079364%
92.46031746031747%
98.21428571428571%
98.01587301587301%
86.5079365079365%
83.53174603174604%
98.01587301587301%
97.81746031746032%
95.23809523809523%
93.05555555555556%
98.01587301587301%
95.63492063492063%
94.64285714285714%
98.01587301587301%
98.01587301587301%
97.02380952380952%
92.65873015873017%
94.84126984126983%
94.64285714285714%
83.92857142857143%
86.90476190476191%
90.47619047619048%
88.29365079365078%
89.88095238095238%
86.11111111111111%
84.72222222222221%
94.84126984126983%
96.23015873015873%
97.22222222222221%
87.5%
82.93650793650794%
83.73015873015873%
91.66666666666666%
86.70634920634922%
86.70634920634922%
97.42063492063492%
97.81746031746032%
97.42063492063492%
97.42063492063492%
96.23015873015873%
95.83333333333334%
88.4920634920635%
89.28571428571429%
91.07142857142857%
89.88095238095238%
86.90476190476191%
86.90476190476191%
90.27777777777779%
90.07936507936508%
92.06349206349206%
92.46031746031747%
96.03174603174604%
96.03174603174604%
96.03174603174604%
98.21428571428571%
97.02380952380952%
98.21428571428571%
83.33333333333334%
75.9920634920635%
71.82539682539682%
69.64285714285714%
75.59523809523809%
83.92857142857143%
88.29365079365078%
89.28571428571429%
96.82539682539682%
93.05555555555556%
94.84126984126983%
79.96031746031747%
84.32539682539682%
82.93650793650794%
83.33333333333334%
81.74603174603175%
97.02380952380952%
97.22222222222221%
95.23809523809523%
95.43650793650794%
98.21428571428571%
92.85714285714286%
86.70634920634922%
86.30952380952381%
84.72222222222221%
85.9126984126984%
86.30952380952381%
86.5079365079365%
93.05555555555556%
91.86507936507937%
95.63492063492063%
94.24603174603175%
95.63492063492063%
83.13492063492063%
81.94444444444444%
83.13492063492063%
86.90476190476191%
87.89682539682539%
81.15079365079364%
85.31746031746032%
94.84126984126983%
97.42063492063492%
94.84126984126983%
81.15079365079364%
76.38888888888889%
79.56349206349206%
78.37301587301587%
83.53174603174604%
83.92857142857143%
95.43650793650794%
95.03968253968253%
85.11904761904762%
79.56349206349206%
78.57142857142857%
93.45238095238095%
89.28571428571429%
83.33333333333334%
66.26984126984127%
66.26984126984127%
82.34126984126983%
81.74603174603175%
91.26984126984127%
87.3015873015873%
92.46031746031747%
94.24603174603175%
90.87301587301587%
91.26984126984127%
97.02380952380952%
96.62698412698413%
94.04761904761905%
85.9126984126984%
89.68253968253968%
80.15873015873017%
80.15873015873017%
72.61904761904762%
71.82539682539682%
65.27777777777779%
68.84920634920636%
80.75396825396825%
85.71428571428571%
85.51587301587301%
83.13492063492063%
76.5873015873016%
76.38888888888889%
84.32539682539682%
91.86507936507937%
86.11111111111111%
86.30952380952381%
85.9126984126984%
71.62698412698413%
85.9126984126984%
86.11111111111111%
95.43650793650794%
88.4920634920635%
90.67460317460318%
89.68253968253968%
89.0873015873016%
89.88095238095238%
89.68253968253968%
91.46825396825396%
79.56349206349206%
98.4126984126984%
91.26984126984127%
84.72222222222221%
85.51587301587301%
87.3015873015873%
87.10317460317461%
81.54761904761905%
74.60317460317461%
92.06349206349206%
75.9920634920635%
85.31746031746032%
96.03174603174604%
94.44444444444444%
81.74603174603175%
97.22222222222221%
96.23015873015873%
88.29365079365078%
91.26984126984127%
65.87301587301587%
68.45238095238095%
68.45238095238095%
68.45238095238095%
73.61111111111111%
68.84920634920636%
83.53174603174604%
84.32539682539682%
69.84126984126983%
96.23015873015873%
86.5079365079365%
96.23015873015873%
97.22222222222221%
97.42063492063492%
91.46825396825396%
96.42857142857143%
81.15079365079364%
80.95238095238095%
89.48412698412699%
87.10317460317461%
90.87301587301587%
94.04761904761905%
88.69047619047619%
85.31746031746032%
90.87301587301587%
74.0079365079365%
73.01587301587301%
82.93650793650794%
97.22222222222221%
90.07936507936508%
96.62698412698413%
86.90476190476191%
67.85714285714286%
68.84920634920636%
67.85714285714286%
79.56349206349206%
87.10317460317461%
78.57142857142857%
68.65079365079364%
68.05555555555556%
72.81746031746032%
88.29365079365078%
89.28571428571429%
84.92063492063492%
95.83333333333334%
77.97619047619048%
75.79365079365078%
77.18253968253968%
97.22222222222221%
83.33333333333334%
86.11111111111111%
94.04761904761905%
91.07142857142857%
97.22222222222221%
80.75396825396825%
78.17460317460318%
69.64285714285714%
74.8015873015873%
85.71428571428571%
81.54761904761905%
68.05555555555556%
68.25396825396825%
77.38095238095238%
76.78571428571429%
78.17460317460318%
87.3015873015873%
65.27777777777779%
65.27777777777779%
68.45238095238095%
74.60317460317461%
72.61904761904762%
83.13492063492063%
85.71428571428571%
85.71428571428571%
69.04761904761905%
81.54761904761905%
80.75396825396825%
74.60317460317461%
84.52380952380952%
85.71428571428571%
87.10317460317461%
92.06349206349206%
93.84920634920636%
93.84920634920636%
84.92063492063492%
91.46825396825396%
88.29365079365078%
71.82539682539682%
85.31746031746032%
97.81746031746032%
91.46825396825396%
91.46825396825396%
96.42857142857143%
78.96825396825396%
78.96825396825396%
94.84126984126983%
69.64285714285714%
67.46031746031747%
67.26190476190477%
65.27777777777779%
64.88095238095238%
64.68253968253968%
64.88095238095238%
64.88095238095238%
91.07142857142857%
95.63492063492063%
93.45238095238095%
88.4920634920635%
72.22222222222221%
69.64285714285714%
75.0%
64.68253968253968%
87.6984126984127%
96.42857142857143%
93.25396825396825%
35.714285714285715%
35.317460317460316%
35.317460317460316%
35.317460317460316%
35.317460317460316%
35.51587301587302%
64.68253968253968%
80.75396825396825%
79.16666666666666%
87.3015873015873%
96.82539682539682%
95.43650793650794%
96.03174603174604%
96.82539682539682%
96.42857142857143%
78.57142857142857%
87.3015873015873%
86.11111111111111%
94.24603174603175%
94.04761904761905%
86.90476190476191%
89.88095238095238%
85.9126984126984%
69.24603174603175%
64.88095238095238%
73.4126984126984%
79.76190476190477%
87.3015873015873%
85.9126984126984%
92.65873015873017%
93.65079365079364%
68.45238095238095%
69.24603174603175%
85.11904761904762%
73.61111111111111%
64.88095238095238%
64.68253968253968%
64.68253968253968%
64.68253968253968%
79.56349206349206%
73.01587301587301%
65.07936507936508%
64.68253968253968%
68.84920634920636%
65.27777777777779%
64.68253968253968%
64.68253968253968%
64.68253968253968%
64.68253968253968%
64.68253968253968%
64.68253968253968%
64.68253968253968%
64.68253968253968%
64.68253968253968%
64.68253968253968%
64.68253968253968%
64.68253968253968%
69.04761904761905%
68.84920634920636%
64.68253968253968%
64.68253968253968%
64.68253968253968%
64.68253968253968%
64.68253968253968%
64.68253968253968%
64.68253968253968%
64.68253968253968%
64.68253968253968%
64.68253968253968%
83.13492063492063%
96.23015873015873%
40.67460317460318%
37.89682539682539%
55.55555555555556%
59.32539682539682%
43.84920634920635%
90.47619047619048%
96.42857142857143%
91.07142857142857%
84.12698412698413%
71.23015873015873%
69.04761904761905%
67.85714285714286%
70.03968253968253%
70.43650793650794%
64.68253968253968%
64.68253968253968%
64.68253968253968%
64.68253968253968%
64.68253968253968%
64.68253968253968%
64.68253968253968%
64.68253968253968%
70.23809523809523%
85.51587301587301%
89.0873015873016%
73.01587301587301%
74.8015873015873%
92.26190476190477%
86.5079365079365%
94.44444444444444%
91.66666666666666%
77.38095238095238%
76.98412698412699%
66.26984126984127%
69.64285714285714%
96.23015873015873%
95.23809523809523%
75.0%
64.48412698412699%
62.89682539682539%
93.05555555555556%
85.9126984126984%
93.65079365079364%
96.42857142857143%
93.65079365079364%
56.94444444444444%
92.26190476190477%
64.68253968253968%
70.83333333333334%
64.68253968253968%
74.8015873015873%
64.68253968253968%
64.68253968253968%
64.68253968253968%
64.68253968253968%
76.19047619047619%
73.21428571428571%
77.97619047619048%
66.07142857142857%
65.67460317460318%
72.22222222222221%
69.24603174603175%
64.68253968253968%
95.63492063492063%
74.20634920634922%
64.68253968253968%
64.68253968253968%
64.68253968253968%
64.68253968253968%
64.68253968253968%
64.68253968253968%
64.68253968253968%
64.68253968253968%
67.85714285714286%
85.31746031746032%
68.65079365079364%
76.98412698412699%
74.20634920634922%
93.45238095238095%
89.68253968253968%
38.492063492063494%
39.285714285714285%
97.22222222222221%
96.42857142857143%
66.46825396825396%
97.22222222222221%
64.68253968253968%
64.68253968253968%
64.68253968253968%
64.68253968253968%
64.68253968253968%
64.68253968253968%
64.68253968253968%
64.68253968253968%
65.67460317460318%
80.15873015873017%
69.04761904761905%
72.61904761904762%
67.26190476190477%
92.06349206349206%
94.44444444444444%
64.68253968253968%
64.68253968253968%
65.07936507936508%
81.15079365079364%
64.68253968253968%
64.68253968253968%
64.68253968253968%
64.68253968253968%
64.68253968253968%
64.68253968253968%
64.68253968253968%
64.68253968253968%
64.68253968253968%
64.68253968253968%
64.68253968253968%
64.68253968253968%
64.68253968253968%
68.25396825396825%
64.68253968253968%
95.83333333333334%
91.26984126984127%
93.25396825396825%
92.65873015873017%
90.47619047619048%
77.38095238095238%
91.86507936507937%
92.26190476190477%
91.07142857142857%
67.06349206349206%
35.51587301587302%
35.317460317460316%
35.317460317460316%
35.317460317460316%
35.317460317460316%
35.317460317460316%
43.25396825396825%
48.80952380952381%
36.904761904761905%
87.6984126984127%
90.67460317460318%
80.95238095238095%
73.80952380952381%
90.47619047619048%
64.88095238095238%
64.68253968253968%
64.68253968253968%
64.68253968253968%
64.68253968253968%
64.68253968253968%
64.68253968253968%
64.68253968253968%
64.68253968253968%
64.68253968253968%
64.68253968253968%
64.68253968253968%
64.68253968253968%
64.68253968253968%
64.68253968253968%
64.68253968253968%
64.68253968253968%
64.68253968253968%
64.68253968253968%
64.68253968253968%
64.68253968253968%
64.68253968253968%
75.1984126984127%
78.76984126984127%
84.72222222222221%
84.32539682539682%
81.74603174603175%
64.68253968253968%
64.68253968253968%
64.68253968253968%
64.68253968253968%
64.68253968253968%
64.68253968253968%
64.68253968253968%
64.68253968253968%
64.68253968253968%
64.68253968253968%
64.68253968253968%
64.68253968253968%
64.68253968253968%
64.68253968253968%
66.86507936507937%
66.07142857142857%
84.12698412698413%
87.89682539682539%
35.317460317460316%
35.317460317460316%
35.317460317460316%
35.317460317460316%
35.317460317460316%
35.317460317460316%
35.317460317460316%
35.317460317460316%
35.317460317460316%
35.317460317460316%
35.317460317460316%
35.317460317460316%
35.317460317460316%
42.26190476190476%
79.36507936507937%
64.68253968253968%
64.68253968253968%
64.68253968253968%
87.89682539682539%
64.68253968253968%
64.68253968253968%
64.68253968253968%
64.68253968253968%
64.68253968253968%
64.68253968253968%
64.68253968253968%
64.68253968253968%
64.68253968253968%
64.68253968253968%
64.68253968253968%
64.68253968253968%
64.68253968253968%
64.68253968253968%
64.68253968253968%
64.68253968253968%
64.88095238095238%
64.68253968253968%
64.68253968253968%
71.23015873015873%
64.68253968253968%
64.68253968253968%
64.68253968253968%
64.68253968253968%
35.317460317460316%
64.68253968253968%
64.68253968253968%
64.68253968253968%
35.317460317460316%
64.68253968253968%
64.68253968253968%
64.68253968253968%
64.68253968253968%
64.68253968253968%
64.68253968253968%
64.68253968253968%
64.68253968253968%
64.68253968253968%
64.68253968253968%
65.87301587301587%
64.68253968253968%
64.68253968253968%
64.68253968253968%
64.68253968253968%
64.68253968253968%
35.317460317460316%
60.51587301587301%
35.11904761904761%
35.317460317460316%
35.317460317460316%
35.317460317460316%
35.317460317460316%
35.317460317460316%
35.317460317460316%
35.317460317460316%
35.317460317460316%
35.317460317460316%
35.317460317460316%
35.317460317460316%
35.317460317460316%
35.317460317460316%
35.317460317460316%
35.317460317460316%
64.68253968253968%
64.68253968253968%
23385
