100.0%
100.0%
100.0%
100.0%
100.0%
97.22222222222221%
96.23015873015873%
94.24603174603175%
92.26190476190477%
91.07142857142857%
90.27777777777779%
89.48412698412699%
89.48412698412699%
87.6984126984127%
83.33333333333334%
82.93650793650794%
83.13492063492063%
82.73809523809523%
82.14285714285714%
81.54761904761905%
79.36507936507937%
75.39682539682539%
72.81746031746032%
72.02380952380952%
71.23015873015873%
71.42857142857143%
70.23809523809523%
70.23809523809523%
70.03968253968253%
69.04761904761905%
69.24603174603175%
69.04761904761905%
68.45238095238095%
68.45238095238095%
68.05555555555556%
68.25396825396825%
68.45238095238095%
68.05555555555556%
67.85714285714286%
67.06349206349206%
67.85714285714286%
68.05555555555556%
68.05555555555556%
68.45238095238095%
68.25396825396825%
67.65873015873017%
68.05555555555556%
67.65873015873017%
67.85714285714286%
67.85714285714286%
67.65873015873017%
67.26190476190477%
67.06349206349206%
66.46825396825396%
66.66666666666666%
66.86507936507937%
67.26190476190477%
67.26190476190477%
66.66666666666666%
66.46825396825396%
65.67460317460318%
65.47619047619048%
65.27777777777779%
65.27777777777779%
65.07936507936508%
65.27777777777779%
65.27777777777779%
65.47619047619048%
65.27777777777779%
65.07936507936508%
65.07936507936508%
65.47619047619048%
65.27777777777779%
65.27777777777779%
65.27777777777779%
65.27777777777779%
65.27777777777779%
65.27777777777779%
65.07936507936508%
65.27777777777779%
65.27777777777779%
65.27777777777779%
65.27777777777779%
65.27777777777779%
65.27777777777779%
65.27777777777779%
65.07936507936508%
65.07936507936508%
65.27777777777779%
65.27777777777779%
65.27777777777779%
65.27777777777779%
65.27777777777779%
65.27777777777779%
65.27777777777779%
65.27777777777779%
65.27777777777779%
65.07936507936508%
65.27777777777779%
65.27777777777779%
65.27777777777779%
65.27777777777779%
65.07936507936508%
65.07936507936508%
65.07936507936508%
65.47619047619048%
65.47619047619048%
65.47619047619048%
65.47619047619048%
65.47619047619048%
65.47619047619048%
65.47619047619048%
65.47619047619048%
65.47619047619048%
65.47619047619048%
65.47619047619048%
65.47619047619048%
65.47619047619048%
65.47619047619048%
65.47619047619048%
65.47619047619048%
65.47619047619048%
65.47619047619048%
65.47619047619048%
65.47619047619048%
65.47619047619048%
65.47619047619048%
65.47619047619048%
65.47619047619048%
65.47619047619048%
65.47619047619048%
65.47619047619048%
65.47619047619048%
65.47619047619048%
65.47619047619048%
65.47619047619048%
65.47619047619048%
65.67460317460318%
65.47619047619048%
65.47619047619048%
65.47619047619048%
65.27777777777779%
65.27777777777779%
64.88095238095238%
64.68253968253968%
64.68253968253968%
65.07936507936508%
65.27777777777779%
65.47619047619048%
65.07936507936508%
64.68253968253968%
64.68253968253968%
64.68253968253968%
64.68253968253968%
64.68253968253968%
64.68253968253968%
64.68253968253968%
64.68253968253968%
64.68253968253968%
64.68253968253968%
64.68253968253968%
64.68253968253968%
64.68253968253968%
64.68253968253968%
64.68253968253968%
64.68253968253968%
64.68253968253968%
64.68253968253968%
64.68253968253968%
64.68253968253968%
64.68253968253968%
64.68253968253968%
64.68253968253968%
65.07936507936508%
66.07142857142857%
66.66666666666666%
68.84920634920636%
68.84920634920636%
68.84920634920636%
68.84920634920636%
68.84920634920636%
68.84920634920636%
68.84920634920636%
68.84920634920636%
68.84920634920636%
68.45238095238095%
67.85714285714286%
67.06349206349206%
67.46031746031747%
67.65873015873017%
68.25396825396825%
68.65079365079364%
68.65079365079364%
71.03174603174604%
67.65873015873017%
68.45238095238095%
68.45238095238095%
69.64285714285714%
68.45238095238095%
69.04761904761905%
68.45238095238095%
68.25396825396825%
68.45238095238095%
68.25396825396825%
68.65079365079364%
70.43650793650794%
71.23015873015873%
68.25396825396825%
69.84126984126983%
70.83333333333334%
72.02380952380952%
72.02380952380952%
73.61111111111111%
75.9920634920635%
73.61111111111111%
71.82539682539682%
72.61904761904762%
73.01587301587301%
73.80952380952381%
73.4126984126984%
76.98412698412699%
77.38095238095238%
79.76190476190477%
83.33333333333334%
83.13492063492063%
83.13492063492063%
83.73015873015873%
83.92857142857143%
85.71428571428571%
86.5079365079365%
87.10317460317461%
87.6984126984127%
87.10317460317461%
87.10317460317461%
86.5079365079365%
87.3015873015873%
87.5%
86.90476190476191%
86.90476190476191%
87.89682539682539%
88.09523809523809%
87.6984126984127%
86.70634920634922%
86.90476190476191%
87.10317460317461%
85.9126984126984%
86.70634920634922%
85.9126984126984%
85.51587301587301%
85.71428571428571%
85.31746031746032%
83.13492063492063%
82.53968253968253%
81.54761904761905%
81.54761904761905%
81.54761904761905%
79.36507936507937%
79.56349206349206%
79.36507936507937%
76.5873015873016%
75.39682539682539%
78.57142857142857%
78.76984126984127%
76.98412698412699%
76.98412698412699%
76.38888888888889%
77.38095238095238%
74.0079365079365%
71.03174603174604%
71.82539682539682%
71.62698412698413%
70.83333333333334%
70.23809523809523%
68.84920634920636%
69.04761904761905%
68.65079365079364%
68.25396825396825%
69.04761904761905%
67.26190476190477%
66.66666666666666%
64.0873015873016%
63.49206349206349%
69.04761904761905%
67.85714285714286%
64.68253968253968%
64.68253968253968%
63.888888888888886%
63.888888888888886%
63.29365079365079%
60.912698412698404%
60.317460317460316%
59.12698412698413%
57.53968253968254%
58.13492063492064%
59.12698412698413%
60.11904761904761%
60.11904761904761%
58.13492063492064%
58.730158730158735%
57.341269841269835%
57.738095238095234%
58.13492063492064%
57.53968253968254%
58.13492063492064%
57.14285714285714%
55.952380952380956%
58.333333333333336%
60.912698412698404%
61.111111111111114%
62.5%
63.69047619047619%
61.30952380952381%
62.5%
62.698412698412696%
62.89682539682539%
62.89682539682539%
62.698412698412696%
62.89682539682539%
64.88095238095238%
65.87301587301587%
66.66666666666666%
67.46031746031747%
67.85714285714286%
70.03968253968253%
70.23809523809523%
71.62698412698413%
70.83333333333334%
73.4126984126984%
75.79365079365078%
76.38888888888889%
75.59523809523809%
75.9920634920635%
75.39682539682539%
76.38888888888889%
75.9920634920635%
77.38095238095238%
77.77777777777779%
80.35714285714286%
81.15079365079364%
80.15873015873017%
79.96031746031747%
81.15079365079364%
80.95238095238095%
81.54761904761905%
81.74603174603175%
81.34920634920636%
79.96031746031747%
80.15873015873017%
78.57142857142857%
78.57142857142857%
78.37301587301587%
78.57142857142857%
77.38095238095238%
76.38888888888889%
74.8015873015873%
72.61904761904762%
73.4126984126984%
73.4126984126984%
73.4126984126984%
73.4126984126984%
73.4126984126984%
73.4126984126984%
73.4126984126984%
73.4126984126984%
73.4126984126984%
74.20634920634922%
72.02380952380952%
70.23809523809523%
70.03968253968253%
69.84126984126983%
69.64285714285714%
69.64285714285714%
69.44444444444444%
69.84126984126983%
69.64285714285714%
69.84126984126983%
70.83333333333334%
70.63492063492063%
70.63492063492063%
71.42857142857143%
71.62698412698413%
70.43650793650794%
71.82539682539682%
71.03174603174604%
71.03174603174604%
71.23015873015873%
71.03174603174604%
71.03174603174604%
71.03174603174604%
71.23015873015873%
71.62698412698413%
71.62698412698413%
71.62698412698413%
72.61904761904762%
74.0079365079365%
72.42063492063492%
71.42857142857143%
72.22222222222221%
72.42063492063492%
72.02380952380952%
73.21428571428571%
73.61111111111111%
73.80952380952381%
73.80952380952381%
74.20634920634922%
74.0079365079365%
74.8015873015873%
74.0079365079365%
73.21428571428571%
74.60317460317461%
75.9920634920635%
76.38888888888889%
76.38888888888889%
75.9920634920635%
76.38888888888889%
75.0%
75.0%
75.1984126984127%
75.0%
73.80952380952381%
73.4126984126984%
73.4126984126984%
72.02380952380952%
71.82539682539682%
73.4126984126984%
73.21428571428571%
73.01587301587301%
72.22222222222221%
72.02380952380952%
72.02380952380952%
72.02380952380952%
71.23015873015873%
70.63492063492063%
70.63492063492063%
70.63492063492063%
70.63492063492063%
70.43650793650794%
70.43650793650794%
70.43650793650794%
70.83333333333334%
70.63492063492063%
70.43650793650794%
69.64285714285714%
70.03968253968253%
69.84126984126983%
70.03968253968253%
69.44444444444444%
69.44444444444444%
68.65079365079364%
67.85714285714286%
67.85714285714286%
67.85714285714286%
67.46031746031747%
67.26190476190477%
66.46825396825396%
66.86507936507937%
67.26190476190477%
67.06349206349206%
66.46825396825396%
66.46825396825396%
67.06349206349206%
66.46825396825396%
66.07142857142857%
66.07142857142857%
66.07142857142857%
66.07142857142857%
66.07142857142857%
66.07142857142857%
66.07142857142857%
65.87301587301587%
65.87301587301587%
65.87301587301587%
65.87301587301587%
65.67460317460318%
65.27777777777779%
65.67460317460318%
65.47619047619048%
65.87301587301587%
65.87301587301587%
65.67460317460318%
65.47619047619048%
65.67460317460318%
65.47619047619048%
65.47619047619048%
65.47619047619048%
65.67460317460318%
65.47619047619048%
64.88095238095238%
65.07936507936508%
65.07936507936508%
65.47619047619048%
65.67460317460318%
65.67460317460318%
65.67460317460318%
65.47619047619048%
65.67460317460318%
65.67460317460318%
65.87301587301587%
65.47619047619048%
65.27777777777779%
65.67460317460318%
65.27777777777779%
65.07936507936508%
64.88095238095238%
65.27777777777779%
64.88095238095238%
65.07936507936508%
65.87301587301587%
65.67460317460318%
65.07936507936508%
65.67460317460318%
65.47619047619048%
64.88095238095238%
65.27777777777779%
65.27777777777779%
65.47619047619048%
65.27777777777779%
65.47619047619048%
65.27777777777779%
65.27777777777779%
65.27777777777779%
64.88095238095238%
65.27777777777779%
64.88095238095238%
64.88095238095238%
65.07936507936508%
64.88095238095238%
65.67460317460318%
65.07936507936508%
64.88095238095238%
65.27777777777779%
65.27777777777779%
64.88095238095238%
64.68253968253968%
64.68253968253968%
64.68253968253968%
64.88095238095238%
64.88095238095238%
64.88095238095238%
64.88095238095238%
64.88095238095238%
64.88095238095238%
64.88095238095238%
64.88095238095238%
64.88095238095238%
65.67460317460318%
65.67460317460318%
65.27777777777779%
65.27777777777779%
65.07936507936508%
65.07936507936508%
65.07936507936508%
65.07936507936508%
64.88095238095238%
64.88095238095238%
64.88095238095238%
64.88095238095238%
64.88095238095238%
64.88095238095238%
64.88095238095238%
64.68253968253968%
64.68253968253968%
64.68253968253968%
64.68253968253968%
64.68253968253968%
64.68253968253968%
64.68253968253968%
64.68253968253968%
64.68253968253968%
64.68253968253968%
64.68253968253968%
64.68253968253968%
64.68253968253968%
64.68253968253968%
64.68253968253968%
64.68253968253968%
64.68253968253968%
64.68253968253968%
64.68253968253968%
64.68253968253968%
64.68253968253968%
64.68253968253968%
64.68253968253968%
64.68253968253968%
64.68253968253968%
64.68253968253968%
64.68253968253968%
64.68253968253968%
64.68253968253968%
64.68253968253968%
64.68253968253968%
64.68253968253968%
64.68253968253968%
64.68253968253968%
64.68253968253968%
64.68253968253968%
64.68253968253968%
64.68253968253968%
64.68253968253968%
64.68253968253968%
64.68253968253968%
64.68253968253968%
64.68253968253968%
64.68253968253968%
64.68253968253968%
64.68253968253968%
64.68253968253968%
64.68253968253968%
64.68253968253968%
64.68253968253968%
64.88095238095238%
65.07936507936508%
65.07936507936508%
65.07936507936508%
65.07936507936508%
65.07936507936508%
65.07936507936508%
65.07936507936508%
65.07936507936508%
65.27777777777779%
65.07936507936508%
65.67460317460318%
65.67460317460318%
65.87301587301587%
66.07142857142857%
66.26984126984127%
66.26984126984127%
66.46825396825396%
66.26984126984127%
68.05555555555556%
68.65079365079364%
69.44444444444444%
68.45238095238095%
68.25396825396825%
67.65873015873017%
68.25396825396825%
68.65079365079364%
68.84920634920636%
68.65079365079364%
68.65079365079364%
69.24603174603175%
69.44444444444444%
70.43650793650794%
70.83333333333334%
70.63492063492063%
73.4126984126984%
73.80952380952381%
73.80952380952381%
74.60317460317461%
75.79365079365078%
75.59523809523809%
76.5873015873016%
76.19047619047619%
77.18253968253968%
78.57142857142857%
80.35714285714286%
80.95238095238095%
81.34920634920636%
81.15079365079364%
82.14285714285714%
83.53174603174604%
83.53174603174604%
85.11904761904762%
86.11111111111111%
86.11111111111111%
85.51587301587301%
88.09523809523809%
87.89682539682539%
89.0873015873016%
89.68253968253968%
90.27777777777779%
89.28571428571429%
89.48412698412699%
91.46825396825396%
92.26190476190477%
91.66666666666666%
91.66666666666666%
92.26190476190477%
92.06349206349206%
92.06349206349206%
92.26190476190477%
92.26190476190477%
92.65873015873017%
92.85714285714286%
92.85714285714286%
93.84920634920636%
94.04761904761905%
94.24603174603175%
94.24603174603175%
94.44444444444444%
94.44444444444444%
95.23809523809523%
95.43650793650794%
94.64285714285714%
94.24603174603175%
93.84920634920636%
93.84920634920636%
94.04761904761905%
94.24603174603175%
94.44444444444444%
95.43650793650794%
96.03174603174604%
96.42857142857143%
96.23015873015873%
96.82539682539682%
97.02380952380952%
96.82539682539682%
96.23015873015873%
97.42063492063492%
97.61904761904762%
96.62698412698413%
96.23015873015873%
96.03174603174604%
96.62698412698413%
98.21428571428571%
99.20634920634922%
100.0%
100.0%
100.0%
100.0%
