100.0%
99.8015873015873%
99.60317460317461%
99.8015873015873%
99.8015873015873%
99.8015873015873%
99.8015873015873%
99.20634920634922%
99.20634920634922%
98.80952380952381%
97.81746031746032%
97.81746031746032%
97.61904761904762%
98.21428571428571%
97.61904761904762%
98.21428571428571%
98.61111111111111%
98.61111111111111%
98.4126984126984%
97.61904761904762%
97.61904761904762%
97.81746031746032%
97.81746031746032%
97.42063492063492%
97.22222222222221%
97.42063492063492%
96.82539682539682%
95.63492063492063%
96.23015873015873%
96.23015873015873%
96.23015873015873%
97.02380952380952%
97.22222222222221%
96.82539682539682%
96.82539682539682%
96.82539682539682%
95.63492063492063%
94.64285714285714%
94.44444444444444%
93.65079365079364%
92.65873015873017%
92.46031746031747%
92.65873015873017%
93.45238095238095%
92.85714285714286%
92.26190476190477%
92.26190476190477%
91.26984126984127%
92.06349206349206%
90.87301587301587%
91.66666666666666%
91.66666666666666%
92.65873015873017%
92.65873015873017%
93.45238095238095%
92.85714285714286%
91.86507936507937%
91.86507936507937%
91.86507936507937%
90.67460317460318%
90.07936507936508%
90.07936507936508%
90.07936507936508%
89.48412698412699%
90.67460317460318%
92.06349206349206%
92.65873015873017%
93.25396825396825%
92.26190476190477%
92.46031746031747%
92.46031746031747%
91.86507936507937%
90.67460317460318%
91.26984126984127%
90.67460317460318%
89.88095238095238%
88.88888888888889%
88.69047619047619%
88.69047619047619%
87.89682539682539%
86.70634920634922%
86.30952380952381%
86.5079365079365%
85.51587301587301%
86.70634920634922%
85.9126984126984%
84.72222222222221%
85.51587301587301%
85.71428571428571%
85.51587301587301%
84.72222222222221%
86.30952380952381%
86.70634920634922%
85.51587301587301%
86.11111111111111%
87.3015873015873%
87.3015873015873%
88.09523809523809%
87.89682539682539%
88.88888888888889%
88.88888888888889%
89.28571428571429%
89.68253968253968%
88.88888888888889%
89.0873015873016%
91.46825396825396%
90.67460317460318%
91.46825396825396%
90.47619047619048%
89.48412698412699%
90.07936507936508%
90.67460317460318%
92.06349206349206%
90.67460317460318%
91.66666666666666%
90.87301587301587%
91.66666666666666%
91.66666666666666%
92.06349206349206%
90.07936507936508%
90.07936507936508%
90.47619047619048%
90.07936507936508%
89.28571428571429%
88.69047619047619%
88.29365079365078%
88.29365079365078%
89.28571428571429%
90.47619047619048%
90.47619047619048%
92.06349206349206%
91.26984126984127%
90.87301587301587%
92.26190476190477%
92.26190476190477%
92.85714285714286%
92.85714285714286%
94.64285714285714%
95.23809523809523%
94.84126984126983%
94.84126984126983%
93.05555555555556%
94.44444444444444%
95.03968253968253%
95.63492063492063%
96.23015873015873%
96.23015873015873%
97.61904761904762%
96.82539682539682%
96.42857142857143%
97.22222222222221%
96.42857142857143%
95.83333333333334%
96.23015873015873%
96.03174603174604%
96.82539682539682%
95.63492063492063%
95.23809523809523%
95.03968253968253%
93.25396825396825%
94.64285714285714%
95.03968253968253%
95.23809523809523%
96.62698412698413%
97.81746031746032%
98.61111111111111%
98.01587301587301%
98.80952380952381%
98.61111111111111%
99.0079365079365%
99.40476190476191%
99.20634920634922%
98.80952380952381%
98.80952380952381%
99.0079365079365%
99.20634920634922%
99.0079365079365%
98.4126984126984%
98.01587301587301%
98.01587301587301%
97.02380952380952%
97.61904761904762%
97.61904761904762%
97.61904761904762%
97.61904761904762%
97.02380952380952%
97.61904761904762%
97.61904761904762%
97.02380952380952%
96.82539682539682%
96.82539682539682%
96.82539682539682%
97.61904761904762%
97.61904761904762%
98.4126984126984%
97.02380952380952%
96.82539682539682%
97.61904761904762%
97.81746031746032%
96.62698412698413%
96.82539682539682%
97.61904761904762%
97.02380952380952%
97.42063492063492%
97.02380952380952%
96.82539682539682%
96.62698412698413%
96.23015873015873%
96.03174603174604%
96.42857142857143%
96.23015873015873%
96.23015873015873%
96.42857142857143%
96.23015873015873%
96.23015873015873%
96.42857142857143%
96.42857142857143%
96.82539682539682%
96.62698412698413%
96.82539682539682%
97.02380952380952%
96.82539682539682%
96.62698412698413%
96.82539682539682%
96.62698412698413%
96.42857142857143%
96.23015873015873%
96.42857142857143%
96.42857142857143%
96.62698412698413%
96.82539682539682%
96.42857142857143%
96.42857142857143%
95.83333333333334%
96.23015873015873%
95.23809523809523%
96.03174603174604%
95.43650793650794%
96.42857142857143%
96.42857142857143%
96.42857142857143%
97.42063492063492%
96.82539682539682%
97.02380952380952%
97.42063492063492%
97.02380952380952%
96.62698412698413%
96.03174603174604%
95.43650793650794%
96.23015873015873%
96.82539682539682%
96.23015873015873%
96.23015873015873%
96.23015873015873%
96.23015873015873%
97.02380952380952%
96.23015873015873%
96.23015873015873%
96.03174603174604%
96.03174603174604%
95.83333333333334%
96.03174603174604%
95.23809523809523%
94.64285714285714%
96.03174603174604%
96.03174603174604%
96.62698412698413%
96.03174603174604%
96.23015873015873%
94.84126984126983%
93.65079365079364%
93.65079365079364%
93.45238095238095%
94.24603174603175%
93.45238095238095%
93.45238095238095%
93.84920634920636%
93.65079365079364%
93.45238095238095%
94.24603174603175%
93.45238095238095%
93.45238095238095%
93.84920634920636%
94.24603174603175%
94.64285714285714%
94.64285714285714%
93.65079365079364%
94.24603174603175%
94.64285714285714%
95.63492063492063%
96.42857142857143%
97.42063492063492%
96.42857142857143%
96.42857142857143%
96.03174603174604%
96.03174603174604%
96.03174603174604%
96.82539682539682%
96.62698412698413%
96.23015873015873%
95.83333333333334%
96.03174603174604%
95.83333333333334%
95.83333333333334%
95.03968253968253%
96.23015873015873%
96.03174603174604%
96.03174603174604%
95.23809523809523%
94.84126984126983%
95.83333333333334%
96.82539682539682%
97.22222222222221%
98.01587301587301%
98.01587301587301%
98.61111111111111%
98.21428571428571%
98.4126984126984%
98.80952380952381%
98.21428571428571%
98.80952380952381%
98.61111111111111%
98.21428571428571%
98.4126984126984%
98.4126984126984%
98.21428571428571%
98.21428571428571%
97.42063492063492%
98.01587301587301%
96.62698412698413%
96.62698412698413%
96.62698412698413%
96.03174603174604%
94.64285714285714%
95.43650793650794%
93.65079365079364%
93.25396825396825%
93.84920634920636%
93.84920634920636%
95.03968253968253%
93.45238095238095%
94.04761904761905%
94.04761904761905%
93.65079365079364%
95.43650793650794%
95.63492063492063%
96.03174603174604%
96.03174603174604%
96.82539682539682%
96.03174603174604%
96.62698412698413%
96.42857142857143%
97.22222222222221%
95.83333333333334%
97.42063492063492%
98.21428571428571%
97.61904761904762%
96.82539682539682%
97.61904761904762%
98.4126984126984%
98.80952380952381%
98.61111111111111%
98.61111111111111%
98.80952380952381%
98.61111111111111%
97.22222222222221%
98.4126984126984%
98.4126984126984%
97.81746031746032%
98.61111111111111%
98.21428571428571%
98.4126984126984%
98.4126984126984%
98.01587301587301%
96.82539682539682%
95.23809523809523%
95.83333333333334%
96.62698412698413%
97.22222222222221%
98.61111111111111%
98.61111111111111%
97.22222222222221%
98.4126984126984%
98.21428571428571%
98.21428571428571%
98.21428571428571%
98.61111111111111%
97.02380952380952%
97.22222222222221%
98.61111111111111%
98.61111111111111%
97.81746031746032%
97.81746031746032%
98.4126984126984%
98.01587301587301%
98.01587301587301%
97.61904761904762%
98.61111111111111%
98.01587301587301%
98.01587301587301%
97.22222222222221%
96.42857142857143%
97.22222222222221%
97.81746031746032%
97.81746031746032%
96.62698412698413%
97.81746031746032%
98.4126984126984%
98.4126984126984%
98.01587301587301%
98.01587301587301%
97.81746031746032%
98.80952380952381%
98.01587301587301%
97.61904761904762%
97.22222222222221%
97.81746031746032%
97.61904761904762%
98.01587301587301%
98.61111111111111%
98.4126984126984%
98.4126984126984%
98.4126984126984%
98.61111111111111%
98.21428571428571%
98.01587301587301%
98.01587301587301%
98.4126984126984%
98.4126984126984%
98.01587301587301%
96.23015873015873%
98.01587301587301%
97.81746031746032%
98.01587301587301%
98.21428571428571%
97.61904761904762%
98.01587301587301%
98.01587301587301%
97.61904761904762%
98.01587301587301%
98.21428571428571%
98.01587301587301%
98.01587301587301%
98.01587301587301%
98.01587301587301%
97.81746031746032%
98.01587301587301%
97.22222222222221%
97.81746031746032%
97.81746031746032%
97.81746031746032%
97.42063492063492%
97.42063492063492%
96.62698412698413%
97.42063492063492%
98.01587301587301%
97.22222222222221%
95.43650793650794%
95.83333333333334%
97.42063492063492%
97.81746031746032%
98.21428571428571%
98.01587301587301%
98.01587301587301%
97.81746031746032%
97.61904761904762%
97.42063492063492%
98.01587301587301%
98.01587301587301%
98.01587301587301%
97.61904761904762%
97.02380952380952%
97.02380952380952%
97.42063492063492%
97.42063492063492%
97.02380952380952%
97.22222222222221%
95.63492063492063%
94.44444444444444%
93.65079365079364%
90.67460317460318%
89.28571428571429%
92.46031746031747%
90.67460317460318%
91.26984126984127%
91.46825396825396%
90.67460317460318%
90.27777777777779%
88.88888888888889%
89.88095238095238%
87.10317460317461%
89.0873015873016%
91.26984126984127%
94.04761904761905%
95.03968253968253%
94.04761904761905%
95.43650793650794%
96.82539682539682%
97.02380952380952%
95.83333333333334%
95.23809523809523%
93.65079365079364%
91.86507936507937%
92.26190476190477%
93.65079365079364%
91.07142857142857%
88.69047619047619%
90.27777777777779%
92.06349206349206%
93.05555555555556%
92.65873015873017%
90.67460317460318%
93.25396825396825%
91.46825396825396%
93.45238095238095%
94.04761904761905%
93.25396825396825%
91.86507936507937%
90.67460317460318%
91.86507936507937%
90.07936507936508%
93.45238095238095%
93.65079365079364%
91.26984126984127%
90.27777777777779%
88.09523809523809%
84.12698412698413%
83.73015873015873%
83.73015873015873%
79.76190476190477%
82.53968253968253%
80.35714285714286%
76.38888888888889%
76.98412698412699%
75.9920634920635%
76.78571428571429%
77.38095238095238%
81.74603174603175%
80.15873015873017%
85.71428571428571%
89.48412698412699%
87.89682539682539%
90.67460317460318%
89.68253968253968%
86.11111111111111%
82.73809523809523%
80.55555555555556%
86.30952380952381%
81.15079365079364%
83.73015873015873%
83.53174603174604%
86.90476190476191%
86.70634920634922%
90.47619047619048%
91.07142857142857%
92.46031746031747%
90.87301587301587%
92.26190476190477%
92.46031746031747%
94.84126984126983%
93.25396825396825%
91.26984126984127%
93.65079365079364%
92.65873015873017%
90.87301587301587%
89.0873015873016%
88.88888888888889%
88.09523809523809%
91.26984126984127%
93.05555555555556%
94.24603174603175%
94.44444444444444%
94.24603174603175%
94.84126984126983%
95.43650793650794%
95.03968253968253%
94.84126984126983%
95.43650793650794%
95.83333333333334%
95.43650793650794%
95.03968253968253%
94.04761904761905%
91.26984126984127%
87.6984126984127%
85.9126984126984%
82.34126984126983%
86.5079365079365%
89.48412698412699%
90.67460317460318%
93.84920634920636%
91.46825396825396%
93.05555555555556%
93.45238095238095%
94.24603174603175%
94.84126984126983%
94.04761904761905%
95.23809523809523%
93.84920634920636%
95.43650793650794%
95.23809523809523%
96.03174603174604%
94.64285714285714%
96.03174603174604%
93.84920634920636%
93.45238095238095%
95.23809523809523%
96.82539682539682%
95.83333333333334%
97.22222222222221%
96.23015873015873%
96.03174603174604%
95.83333333333334%
95.83333333333334%
95.83333333333334%
95.43650793650794%
95.43650793650794%
96.23015873015873%
96.03174603174604%
96.23015873015873%
94.64285714285714%
92.46031746031747%
92.26190476190477%
88.09523809523809%
85.51587301587301%
76.38888888888889%
79.16666666666666%
72.22222222222221%
80.35714285714286%
72.81746031746032%
72.42063492063492%
65.87301587301587%
67.46031746031747%
63.49206349206349%
66.46825396825396%
75.79365079365078%
69.84126984126983%
64.88095238095238%
65.47619047619048%
67.85714285714286%
75.0%
83.73015873015873%
86.70634920634922%
87.6984126984127%
87.10317460317461%
86.30952380952381%
82.34126984126983%
88.29365079365078%
84.32539682539682%
77.97619047619048%
87.5%
76.98412698412699%
77.57936507936508%
73.01587301587301%
65.87301587301587%
72.81746031746032%
83.33333333333334%
88.29365079365078%
84.52380952380952%
87.5%
93.84920634920636%
94.64285714285714%
94.64285714285714%
94.24603174603175%
94.24603174603175%
94.84126984126983%
94.24603174603175%
93.65079365079364%
94.04761904761905%
94.84126984126983%
94.44444444444444%
94.64285714285714%
94.64285714285714%
94.84126984126983%
94.04761904761905%
94.04761904761905%
94.04761904761905%
90.07936507936508%
92.85714285714286%
94.44444444444444%
94.84126984126983%
92.85714285714286%
95.63492063492063%
92.46031746031747%
92.26190476190477%
89.88095238095238%
91.86507936507937%
91.07142857142857%
88.4920634920635%
89.68253968253968%
92.26190476190477%
92.26190476190477%
92.26190476190477%
92.65873015873017%
92.65873015873017%
94.44444444444444%
93.84920634920636%
93.25396825396825%
93.05555555555556%
93.65079365079364%
91.66666666666666%
92.46031746031747%
92.46031746031747%
91.66666666666666%
92.46031746031747%
89.28571428571429%
90.67460317460318%
92.26190476190477%
90.87301587301587%
89.88095238095238%
85.51587301587301%
77.38095238095238%
83.92857142857143%
86.5079365079365%
81.34920634920636%
64.88095238095238%
50.99206349206349%
61.70634920634921%
77.77777777777779%
80.75396825396825%
86.5079365079365%
79.16666666666666%
65.27777777777779%
78.17460317460318%
86.70634920634922%
84.92063492063492%
86.11111111111111%
83.73015873015873%
68.84920634920636%
53.769841269841265%
49.007936507936506%
40.07936507936508%
36.30952380952381%
39.285714285714285%
45.63492063492063%
50.99206349206349%
39.08730158730159%
36.30952380952381%
40.27777777777778%
48.214285714285715%
47.817460317460316%
58.92857142857143%
75.1984126984127%
68.65079365079364%
63.49206349206349%
70.63492063492063%
55.35714285714286%
64.0873015873016%
50.39682539682539%
69.44444444444444%
73.21428571428571%
83.73015873015873%
76.5873015873016%
44.047619047619044%
35.51587301587302%
37.301587301587304%
52.182539682539684%
35.317460317460316%
35.317460317460316%
35.317460317460316%
35.317460317460316%
35.317460317460316%
35.317460317460316%
35.317460317460316%
35.317460317460316%
35.317460317460316%
35.317460317460316%
35.317460317460316%
35.317460317460316%
35.317460317460316%
35.317460317460316%
35.317460317460316%
35.317460317460316%
35.317460317460316%
35.317460317460316%
35.317460317460316%
35.317460317460316%
35.317460317460316%
35.317460317460316%
37.301587301587304%
35.91269841269841%
36.7063492063492%
35.317460317460316%
35.317460317460316%
35.317460317460316%
