100.0%
99.81343283582089%
100.0%
99.81343283582089%
100.0%
99.44029850746269%
99.06716417910447%
99.6268656716418%
98.32089552238806%
98.32089552238806%
99.44029850746269%
99.44029850746269%
98.69402985074626%
98.88059701492537%
98.88059701492537%
97.01492537313433%
99.44029850746269%
99.44029850746269%
98.50746268656717%
99.44029850746269%
98.13432835820896%
98.13432835820896%
98.32089552238806%
98.13432835820896%
96.64179104477611%
98.69402985074626%
97.76119402985076%
96.0820895522388%
95.52238805970148%
96.64179104477611%
97.20149253731343%
98.13432835820896%
96.82835820895522%
95.52238805970148%
96.26865671641791%
94.77611940298507%
95.33582089552239%
93.65671641791045%
92.91044776119402%
90.11194029850746%
88.43283582089553%
89.36567164179104%
89.17910447761194%
91.97761194029852%
79.47761194029852%
86.56716417910447%
84.70149253731343%
80.97014925373134%
82.08955223880598%
90.67164179104478%
85.26119402985076%
89.36567164179104%
90.11194029850746%
83.95522388059702%
84.51492537313433%
83.76865671641791%
77.79850746268657%
81.71641791044776%
83.95522388059702%
67.91044776119402%
77.79850746268657%
71.45522388059702%
61.38059701492538%
91.04477611940298%
90.11194029850746%
75.18656716417911%
81.52985074626866%
75.18656716417911%
86.38059701492537%
83.02238805970148%
82.83582089552239%
85.63432835820896%
89.73880597014924%
96.26865671641791%
93.09701492537313%
79.1044776119403%
89.36567164179104%
85.44776119402985%
93.47014925373134%
92.3507462686567%
94.58955223880598%
76.86567164179104%
88.80597014925374%
81.71641791044776%
86.19402985074626%
76.11940298507463%
73.32089552238806%
63.24626865671642%
39.365671641791046%
59.70149253731343%
42.723880597014926%
57.83582089552238%
44.21641791044777%
45.8955223880597%
76.30597014925374%
50.18656716417911%
64.92537313432835%
66.6044776119403%
68.84328358208955%
80.97014925373134%
60.26119402985075%
60.07462686567165%
50.18656716417911%
51.679104477611936%
59.70149253731343%
48.32089552238806%
51.865671641791046%
39.73880597014926%
71.0820895522388%
38.80597014925373%
60.447761194029844%
53.73134328358209%
76.30597014925374%
45.52238805970149%
40.85820895522388%
41.23134328358209%
49.06716417910448%
60.26119402985075%
61.75373134328358%
47.76119402985074%
85.63432835820896%
64.73880597014924%
90.67164179104478%
69.58955223880598%
68.28358208955224%
62.126865671641795%
79.8507462686567%
68.09701492537313%
70.1492537313433%
46.26865671641791%
64.36567164179104%
84.70149253731343%
57.649253731343286%
57.46268656716418%
65.29850746268657%
51.679104477611936%
55.59701492537313%
62.5%
52.61194029850746%
63.059701492537314%
47.01492537313433%
41.6044776119403%
56.156716417910445%
72.38805970149254%
83.3955223880597%
91.6044776119403%
71.82835820895522%
63.99253731343284%
77.98507462686567%
87.8731343283582%
79.1044776119403%
76.86567164179104%
70.1492537313433%
73.69402985074626%
78.35820895522389%
72.38805970149254%
72.94776119402985%
86.75373134328358%
80.97014925373134%
50.74626865671642%
69.02985074626866%
36.19402985074627%
37.3134328358209%
35.634328358208954%
35.07462686567165%
34.51492537313433%
32.276119402985074%
38.992537313432834%
37.6865671641791%
53.17164179104478%
49.8134328358209%
49.8134328358209%
55.78358208955224%
69.21641791044776%
69.96268656716418%
46.26865671641791%
46.082089552238806%
37.6865671641791%
30.970149253731343%
30.970149253731343%
28.35820895522388%
33.02238805970149%
31.716417910447763%
28.91791044776119%
47.01492537313433%
45.33582089552239%
56.343283582089555%
34.51492537313433%
34.51492537313433%
41.7910447761194%
78.17164179104478%
91.23134328358209%
75.74626865671642%
82.08955223880598%
33.3955223880597%
27.985074626865668%
27.985074626865668%
28.171641791044777%
27.985074626865668%
30.223880597014922%
37.87313432835821%
29.1044776119403%
28.73134328358209%
33.3955223880597%
33.02238805970149%
32.649253731343286%
27.985074626865668%
29.1044776119403%
27.985074626865668%
58.95522388059702%
28.171641791044777%
30.783582089552237%
27.985074626865668%
27.985074626865668%
27.985074626865668%
27.985074626865668%
29.850746268656714%
27.985074626865668%
27.985074626865668%
27.985074626865668%
43.843283582089555%
44.96268656716418%
31.343283582089555%
28.171641791044777%
27.985074626865668%
27.985074626865668%
27.985074626865668%
30.037313432835823%
44.40298507462687%
50.18656716417911%
76.49253731343283%
55.970149253731336%
34.14179104477612%
27.985074626865668%
45.52238805970149%
35.634328358208954%
35.07462686567165%
59.32835820895522%
38.43283582089552%
31.529850746268657%
37.5%
77.98507462686567%
40.11194029850746%
62.873134328358205%
75.18656716417911%
67.16417910447761%
86.19402985074626%
86.56716417910447%
55.970149253731336%
64.17910447761194%
57.649253731343286%
49.06716417910448%
43.28358208955223%
70.8955223880597%
46.82835820895522%
33.76865671641791%
52.42537313432835%
52.23880597014925%
58.2089552238806%
65.85820895522389%
51.679104477611936%
52.42537313432835%
40.67164179104478%
31.716417910447763%
67.3507462686567%
64.17910447761194%
69.21641791044776%
81.15671641791045%
31.716417910447763%
29.850746268656714%
40.67164179104478%
32.46268656716418%
31.902985074626866%
72.57462686567165%
69.77611940298507%
64.73880597014924%
83.3955223880597%
63.43283582089553%
29.47761194029851%
62.5%
31.343283582089555%
28.91791044776119%
31.343283582089555%
30.223880597014922%
45.7089552238806%
56.156716417910445%
49.25373134328358%
52.79850746268657%
48.507462686567166%
52.61194029850746%
35.44776119402985%
53.17164179104478%
48.88059701492538%
29.1044776119403%
29.1044776119403%
27.985074626865668%
30.223880597014922%
44.40298507462687%
27.985074626865668%
27.985074626865668%
27.985074626865668%
27.985074626865668%
41.417910447761194%
28.171641791044777%
27.985074626865668%
27.985074626865668%
29.47761194029851%
30.597014925373134%
30.223880597014922%
31.529850746268657%
29.291044776119403%
41.7910447761194%
30.783582089552237%
41.6044776119403%
30.037313432835823%
31.902985074626866%
38.24626865671642%
49.440298507462686%
85.44776119402985%
46.64179104477612%
59.70149253731343%
71.64179104477611%
69.58955223880598%
71.64179104477611%
87.1268656716418%
77.79850746268657%
78.54477611940298%
71.82835820895522%
59.88805970149254%
74.25373134328358%
88.80597014925374%
87.8731343283582%
88.99253731343283%
58.3955223880597%
69.96268656716418%
60.634328358208954%
59.14179104477611%
56.90298507462687%
32.46268656716418%
31.156716417910445%
28.544776119402986%
30.597014925373134%
27.985074626865668%
31.529850746268657%
31.343283582089555%
44.21641791044777%
44.40298507462687%
31.529850746268657%
29.850746268656714%
31.343283582089555%
56.90298507462687%
75.93283582089553%
28.35820895522388%
28.73134328358209%
28.171641791044777%
27.985074626865668%
27.985074626865668%
27.985074626865668%
29.850746268656714%
32.276119402985074%
34.14179104477612%
27.985074626865668%
29.47761194029851%
61.940298507462686%
88.99253731343283%
87.8731343283582%
88.61940298507463%
71.64179104477611%
62.873134328358205%
41.23134328358209%
29.66417910447761%
30.970149253731343%
28.171641791044777%
27.985074626865668%
29.291044776119403%
30.037313432835823%
28.35820895522388%
28.73134328358209%
29.47761194029851%
30.597014925373134%
29.291044776119403%
28.544776119402986%
29.66417910447761%
27.985074626865668%
27.985074626865668%
27.985074626865668%
27.985074626865668%
27.985074626865668%
27.985074626865668%
27.985074626865668%
27.985074626865668%
32.83582089552239%
28.91791044776119%
30.970149253731343%
30.223880597014922%
30.037313432835823%
27.985074626865668%
27.985074626865668%
29.47761194029851%
44.96268656716418%
33.76865671641791%
32.46268656716418%
27.985074626865668%
27.985074626865668%
27.985074626865668%
27.985074626865668%
27.985074626865668%
27.985074626865668%
28.91791044776119%
28.171641791044777%
27.985074626865668%
30.597014925373134%
75.74626865671642%
51.49253731343284%
85.63432835820896%
33.3955223880597%
29.291044776119403%
27.985074626865668%
27.985074626865668%
27.985074626865668%
27.985074626865668%
27.985074626865668%
27.985074626865668%
27.985074626865668%
27.985074626865668%
28.91791044776119%
36.007462686567166%
79.66417910447761%
30.970149253731343%
27.985074626865668%
27.985074626865668%
27.985074626865668%
27.985074626865668%
48.69402985074627%
60.820895522388064%
29.850746268656714%
29.850746268656714%
27.985074626865668%
28.73134328358209%
27.985074626865668%
28.73134328358209%
29.47761194029851%
28.73134328358209%
28.35820895522388%
30.597014925373134%
29.47761194029851%
27.985074626865668%
27.985074626865668%
27.985074626865668%
27.985074626865668%
28.35820895522388%
28.35820895522388%
28.35820895522388%
67.3507462686567%
71.82835820895522%
35.82089552238806%
45.33582089552239%
34.32835820895522%
33.582089552238806%
27.985074626865668%
27.985074626865668%
31.343283582089555%
42.16417910447761%
69.58955223880598%
64.92537313432835%
27.985074626865668%
27.985074626865668%
29.47761194029851%
80.97014925373134%
84.32835820895522%
87.8731343283582%
81.71641791044776%
91.4179104477612%
90.85820895522389%
84.51492537313433%
84.88805970149254%
90.48507462686567%
87.8731343283582%
46.45522388059701%
36.940298507462686%
32.46268656716418%
28.544776119402986%
31.716417910447763%
28.91791044776119%
29.1044776119403%
28.35820895522388%
46.26865671641791%
39.92537313432835%
77.23880597014924%
28.91791044776119%
27.985074626865668%
27.985074626865668%
36.56716417910448%
36.38059701492538%
33.02238805970149%
29.1044776119403%
27.985074626865668%
27.985074626865668%
27.985074626865668%
27.985074626865668%
27.985074626865668%
27.985074626865668%
27.985074626865668%
31.343283582089555%
27.985074626865668%
27.985074626865668%
29.291044776119403%
29.66417910447761%
31.343283582089555%
31.343283582089555%
28.35820895522388%
27.985074626865668%
29.47761194029851%
27.985074626865668%
27.985074626865668%
27.985074626865668%
27.985074626865668%
27.985074626865668%
27.985074626865668%
27.985074626865668%
27.985074626865668%
27.985074626865668%
27.985074626865668%
27.985074626865668%
27.985074626865668%
30.970149253731343%
27.985074626865668%
27.985074626865668%
27.985074626865668%
27.985074626865668%
27.985074626865668%
27.985074626865668%
27.985074626865668%
27.985074626865668%
29.291044776119403%
28.544776119402986%
28.171641791044777%
28.171641791044777%
27.985074626865668%
33.3955223880597%
78.9179104477612%
40.298507462686565%
27.985074626865668%
27.985074626865668%
30.970149253731343%
30.410447761194032%
29.291044776119403%
27.985074626865668%
27.985074626865668%
27.985074626865668%
27.985074626865668%
27.985074626865668%
27.985074626865668%
27.985074626865668%
27.985074626865668%
27.985074626865668%
27.985074626865668%
27.985074626865668%
27.985074626865668%
27.985074626865668%
27.985074626865668%
27.985074626865668%
27.985074626865668%
27.985074626865668%
27.985074626865668%
27.985074626865668%
27.985074626865668%
27.985074626865668%
27.985074626865668%
27.985074626865668%
27.985074626865668%
27.985074626865668%
27.985074626865668%
27.985074626865668%
27.985074626865668%
27.985074626865668%
27.985074626865668%
27.985074626865668%
27.985074626865668%
27.985074626865668%
28.544776119402986%
27.985074626865668%
27.985074626865668%
36.56716417910448%
44.58955223880597%
28.73134328358209%
43.656716417910445%
27.985074626865668%
27.985074626865668%
27.985074626865668%
27.985074626865668%
27.985074626865668%
27.985074626865668%
27.985074626865668%
27.985074626865668%
27.985074626865668%
27.985074626865668%
27.985074626865668%
27.985074626865668%
27.985074626865668%
27.985074626865668%
27.985074626865668%
27.985074626865668%
27.985074626865668%
27.985074626865668%
29.850746268656714%
29.850746268656714%
41.7910447761194%
27.985074626865668%
27.985074626865668%
27.985074626865668%
27.985074626865668%
27.985074626865668%
27.985074626865668%
27.985074626865668%
27.985074626865668%
41.23134328358209%
28.73134328358209%
28.73134328358209%
27.985074626865668%
27.985074626865668%
27.985074626865668%
27.985074626865668%
27.985074626865668%
27.985074626865668%
27.985074626865668%
27.985074626865668%
27.985074626865668%
27.985074626865668%
27.985074626865668%
27.985074626865668%
27.985074626865668%
27.985074626865668%
27.985074626865668%
27.985074626865668%
27.985074626865668%
27.985074626865668%
27.985074626865668%
27.985074626865668%
27.985074626865668%
27.985074626865668%
27.985074626865668%
27.985074626865668%
27.985074626865668%
27.985074626865668%
27.985074626865668%
27.985074626865668%
27.985074626865668%
27.985074626865668%
27.985074626865668%
27.985074626865668%
27.985074626865668%
27.985074626865668%
27.985074626865668%
27.985074626865668%
27.985074626865668%
27.985074626865668%
27.985074626865668%
27.985074626865668%
27.985074626865668%
27.985074626865668%
27.985074626865668%
27.985074626865668%
27.985074626865668%
27.985074626865668%
30.223880597014922%
27.985074626865668%
27.985074626865668%
27.985074626865668%
27.985074626865668%
27.985074626865668%
27.985074626865668%
27.985074626865668%
27.985074626865668%
27.985074626865668%
27.985074626865668%
27.985074626865668%
27.985074626865668%
27.985074626865668%
27.985074626865668%
27.985074626865668%
27.985074626865668%
27.985074626865668%
27.985074626865668%
27.985074626865668%
27.985074626865668%
36.940298507462686%
27.985074626865668%
43.09701492537313%
27.985074626865668%
27.985074626865668%
27.985074626865668%
27.985074626865668%
27.985074626865668%
27.985074626865668%
27.985074626865668%
27.985074626865668%
27.985074626865668%
27.985074626865668%
27.985074626865668%
27.985074626865668%
27.985074626865668%
27.985074626865668%
27.985074626865668%
27.985074626865668%
27.985074626865668%
27.985074626865668%
27.985074626865668%
27.985074626865668%
27.985074626865668%
27.985074626865668%
27.985074626865668%
27.985074626865668%
27.985074626865668%
27.985074626865668%
27.985074626865668%
27.985074626865668%
27.985074626865668%
27.985074626865668%
27.985074626865668%
27.985074626865668%
27.985074626865668%
27.985074626865668%
27.985074626865668%
27.985074626865668%
27.985074626865668%
27.985074626865668%
27.985074626865668%
27.985074626865668%
27.985074626865668%
27.985074626865668%
27.985074626865668%
27.985074626865668%
27.985074626865668%
27.985074626865668%
27.985074626865668%
27.985074626865668%
27.985074626865668%
27.985074626865668%
27.985074626865668%
27.985074626865668%
27.985074626865668%
27.985074626865668%
27.985074626865668%
27.985074626865668%
27.985074626865668%
27.985074626865668%
27.985074626865668%
27.985074626865668%
27.985074626865668%
27.985074626865668%
27.985074626865668%
27.985074626865668%
27.985074626865668%
27.985074626865668%
27.985074626865668%
27.985074626865668%
27.985074626865668%
27.985074626865668%
27.985074626865668%
27.985074626865668%
27.985074626865668%
27.985074626865668%
27.985074626865668%
27.985074626865668%
27.985074626865668%
27.985074626865668%
27.985074626865668%
27.985074626865668%
27.985074626865668%
27.985074626865668%
27.985074626865668%
27.985074626865668%
27.985074626865668%
27.985074626865668%
27.985074626865668%
27.985074626865668%
27.985074626865668%
27.985074626865668%
27.985074626865668%
27.985074626865668%
27.985074626865668%
27.985074626865668%
27.985074626865668%
