100.0%
100.0%
99.6268656716418%
100.0%
100.0%
99.81343283582089%
99.6268656716418%
99.6268656716418%
99.6268656716418%
99.6268656716418%
99.06716417910447%
99.6268656716418%
99.06716417910447%
99.06716417910447%
99.06716417910447%
98.50746268656717%
97.94776119402985%
97.94776119402985%
97.76119402985076%
97.94776119402985%
97.57462686567165%
98.13432835820896%
98.32089552238806%
98.32089552238806%
96.82835820895522%
96.45522388059702%
96.26865671641791%
96.26865671641791%
95.7089552238806%
94.96268656716418%
94.77611940298507%
93.65671641791045%
94.02985074626866%
89.55223880597015%
90.67164179104478%
89.55223880597015%
92.53731343283582%
90.11194029850746%
90.11194029850746%
87.68656716417911%
87.8731343283582%
89.17910447761194%
89.73880597014924%
89.36567164179104%
87.1268656716418%
86.38059701492537%
84.32835820895522%
85.07462686567165%
81.15671641791045%
80.41044776119402%
80.22388059701493%
78.54477611940298%
79.47761194029852%
78.9179104477612%
82.08955223880598%
78.35820895522389%
77.79850746268657%
77.05223880597015%
78.35820895522389%
75.3731343283582%
73.32089552238806%
74.81343283582089%
73.32089552238806%
73.69402985074626%
73.69402985074626%
72.20149253731343%
71.26865671641791%
72.94776119402985%
70.52238805970148%
70.1492537313433%
70.8955223880597%
71.26865671641791%
72.76119402985076%
74.44029850746269%
74.44029850746269%
74.44029850746269%
75.74626865671642%
77.23880597014924%
77.61194029850746%
76.49253731343283%
78.9179104477612%
78.9179104477612%
79.2910447761194%
79.2910447761194%
79.47761194029852%
80.03731343283582%
77.23880597014924%
76.67910447761194%
75.18656716417911%
74.81343283582089%
73.13432835820896%
74.81343283582089%
72.20149253731343%
72.57462686567165%
72.76119402985076%
72.57462686567165%
73.32089552238806%
73.88059701492537%
73.69402985074626%
72.38805970149254%
70.8955223880597%
72.76119402985076%
72.76119402985076%
71.26865671641791%
71.82835820895522%
71.82835820895522%
67.91044776119402%
69.40298507462687%
71.26865671641791%
72.01492537313433%
75.0%
74.6268656716418%
74.81343283582089%
75.3731343283582%
73.13432835820896%
73.13432835820896%
72.94776119402985%
73.50746268656717%
74.06716417910447%
73.32089552238806%
74.44029850746269%
71.45522388059702%
71.64179104477611%
72.94776119402985%
72.76119402985076%
72.94776119402985%
72.94776119402985%
73.13432835820896%
72.94776119402985%
73.50746268656717%
73.50746268656717%
73.88059701492537%
74.25373134328358%
76.67910447761194%
75.74626865671642%
75.93283582089553%
78.17164179104478%
77.23880597014924%
77.61194029850746%
77.23880597014924%
77.05223880597015%
74.81343283582089%
75.0%
77.05223880597015%
76.67910447761194%
76.86567164179104%
75.18656716417911%
72.38805970149254%
70.7089552238806%
67.3507462686567%
66.4179104477612%
66.7910447761194%
66.4179104477612%
70.1492537313433%
71.26865671641791%
72.20149253731343%
72.01492537313433%
71.45522388059702%
74.06716417910447%
74.6268656716418%
73.32089552238806%
75.3731343283582%
76.11940298507463%
76.11940298507463%
76.67910447761194%
78.54477611940298%
79.8507462686567%
80.41044776119402%
78.35820895522389%
75.93283582089553%
76.49253731343283%
77.05223880597015%
77.05223880597015%
80.03731343283582%
79.8507462686567%
80.22388059701493%
80.22388059701493%
80.03731343283582%
80.03731343283582%
80.22388059701493%
80.78358208955224%
80.41044776119402%
81.71641791044776%
82.83582089552239%
83.2089552238806%
83.95522388059702%
83.2089552238806%
83.2089552238806%
83.2089552238806%
83.3955223880597%
83.5820895522388%
83.02238805970148%
82.83582089552239%
83.5820895522388%
82.83582089552239%
83.02238805970148%
82.6492537313433%
83.2089552238806%
83.2089552238806%
84.14179104477611%
83.3955223880597%
82.83582089552239%
84.70149253731343%
84.51492537313433%
87.5%
88.05970149253731%
88.99253731343283%
87.68656716417911%
87.8731343283582%
87.31343283582089%
88.24626865671642%
88.80597014925374%
90.11194029850746%
88.80597014925374%
88.05970149253731%
89.17910447761194%
89.17910447761194%
89.17910447761194%
88.99253731343283%
86.56716417910447%
86.38059701492537%
86.38059701492537%
86.75373134328358%
86.94029850746269%
86.94029850746269%
88.43283582089553%
88.99253731343283%
88.43283582089553%
87.68656716417911%
89.17910447761194%
89.55223880597015%
89.73880597014924%
89.73880597014924%
90.11194029850746%
90.11194029850746%
89.36567164179104%
90.48507462686567%
89.55223880597015%
89.55223880597015%
89.73880597014924%
89.92537313432835%
89.55223880597015%
89.92537313432835%
89.36567164179104%
89.73880597014924%
89.55223880597015%
89.17910447761194%
89.17910447761194%
87.8731343283582%
87.1268656716418%
87.1268656716418%
86.56716417910447%
85.44776119402985%
85.82089552238806%
86.94029850746269%
86.75373134328358%
86.94029850746269%
85.63432835820896%
85.07462686567165%
85.26119402985076%
85.26119402985076%
85.44776119402985%
85.44776119402985%
87.1268656716418%
86.00746268656717%
86.38059701492537%
86.56716417910447%
87.1268656716418%
86.19402985074626%
86.00746268656717%
84.88805970149254%
84.88805970149254%
84.88805970149254%
84.70149253731343%
83.95522388059702%
84.32835820895522%
85.07462686567165%
85.07462686567165%
85.26119402985076%
85.26119402985076%
85.44776119402985%
84.14179104477611%
83.2089552238806%
83.2089552238806%
82.6492537313433%
82.46268656716418%
81.15671641791045%
79.66417910447761%
79.66417910447761%
80.22388059701493%
80.41044776119402%
79.8507462686567%
77.98507462686567%
77.79850746268657%
76.67910447761194%
76.67910447761194%
76.67910447761194%
76.86567164179104%
76.49253731343283%
74.6268656716418%
75.18656716417911%
76.11940298507463%
75.3731343283582%
75.93283582089553%
76.30597014925374%
75.3731343283582%
76.30597014925374%
75.74626865671642%
75.74626865671642%
77.42537313432835%
76.30597014925374%
76.49253731343283%
74.25373134328358%
74.25373134328358%
74.25373134328358%
75.74626865671642%
75.0%
76.49253731343283%
76.30597014925374%
75.18656716417911%
74.81343283582089%
72.38805970149254%
72.38805970149254%
71.82835820895522%
72.01492537313433%
71.64179104477611%
72.38805970149254%
72.76119402985076%
75.55970149253731%
74.6268656716418%
75.74626865671642%
75.74626865671642%
76.49253731343283%
76.30597014925374%
76.30597014925374%
76.11940298507463%
76.49253731343283%
76.30597014925374%
76.30597014925374%
76.30597014925374%
76.30597014925374%
75.93283582089553%
76.30597014925374%
76.86567164179104%
77.05223880597015%
76.67910447761194%
76.49253731343283%
77.42537313432835%
79.1044776119403%
79.66417910447761%
79.8507462686567%
79.8507462686567%
80.03731343283582%
80.41044776119402%
79.8507462686567%
80.03731343283582%
79.66417910447761%
79.66417910447761%
79.8507462686567%
80.03731343283582%
80.22388059701493%
80.59701492537313%
81.15671641791045%
79.1044776119403%
80.41044776119402%
80.78358208955224%
80.59701492537313%
80.78358208955224%
82.6492537313433%
82.6492537313433%
82.6492537313433%
82.27611940298507%
83.02238805970148%
83.02238805970148%
83.02238805970148%
82.83582089552239%
82.27611940298507%
80.97014925373134%
82.08955223880598%
81.71641791044776%
81.15671641791045%
81.34328358208955%
80.03731343283582%
80.41044776119402%
80.41044776119402%
79.47761194029852%
78.9179104477612%
78.54477611940298%
78.54477611940298%
78.17164179104478%
77.42537313432835%
77.79850746268657%
77.42537313432835%
77.42537313432835%
77.61194029850746%
77.42537313432835%
77.23880597014924%
77.42537313432835%
77.42537313432835%
77.42537313432835%
77.42537313432835%
77.79850746268657%
77.79850746268657%
77.61194029850746%
77.79850746268657%
77.61194029850746%
77.79850746268657%
77.61194029850746%
77.42537313432835%
77.23880597014924%
76.67910447761194%
77.05223880597015%
77.23880597014924%
77.23880597014924%
76.86567164179104%
76.30597014925374%
76.30597014925374%
75.74626865671642%
75.93283582089553%
75.93283582089553%
75.55970149253731%
75.55970149253731%
75.55970149253731%
76.11940298507463%
76.11940298507463%
76.11940298507463%
76.30597014925374%
76.30597014925374%
76.49253731343283%
76.49253731343283%
76.86567164179104%
76.86567164179104%
75.74626865671642%
75.55970149253731%
74.81343283582089%
74.44029850746269%
74.25373134328358%
73.88059701492537%
73.88059701492537%
73.88059701492537%
73.69402985074626%
73.69402985074626%
73.69402985074626%
73.69402985074626%
73.32089552238806%
72.94776119402985%
72.94776119402985%
72.94776119402985%
72.94776119402985%
72.94776119402985%
72.94776119402985%
72.94776119402985%
72.94776119402985%
72.94776119402985%
72.94776119402985%
72.94776119402985%
72.94776119402985%
72.94776119402985%
72.94776119402985%
72.94776119402985%
72.76119402985076%
72.76119402985076%
72.76119402985076%
72.76119402985076%
72.76119402985076%
72.76119402985076%
72.76119402985076%
72.57462686567165%
72.57462686567165%
72.76119402985076%
72.76119402985076%
72.20149253731343%
72.20149253731343%
72.20149253731343%
72.01492537313433%
72.01492537313433%
72.20149253731343%
72.01492537313433%
72.01492537313433%
72.01492537313433%
72.01492537313433%
72.01492537313433%
72.01492537313433%
72.01492537313433%
72.01492537313433%
72.01492537313433%
72.01492537313433%
72.01492537313433%
72.01492537313433%
72.01492537313433%
72.01492537313433%
72.01492537313433%
72.01492537313433%
72.01492537313433%
72.01492537313433%
72.01492537313433%
72.01492537313433%
72.01492537313433%
72.01492537313433%
72.01492537313433%
72.01492537313433%
72.01492537313433%
72.01492537313433%
72.01492537313433%
72.01492537313433%
72.01492537313433%
72.01492537313433%
72.01492537313433%
72.01492537313433%
72.01492537313433%
72.01492537313433%
72.01492537313433%
72.01492537313433%
72.01492537313433%
72.01492537313433%
72.01492537313433%
72.01492537313433%
72.01492537313433%
72.01492537313433%
72.01492537313433%
72.01492537313433%
72.01492537313433%
72.01492537313433%
72.01492537313433%
72.01492537313433%
72.01492537313433%
72.01492537313433%
72.01492537313433%
72.01492537313433%
72.01492537313433%
72.01492537313433%
72.01492537313433%
72.01492537313433%
72.01492537313433%
72.01492537313433%
72.01492537313433%
72.01492537313433%
72.01492537313433%
72.01492537313433%
72.01492537313433%
72.01492537313433%
72.01492537313433%
72.01492537313433%
72.01492537313433%
72.01492537313433%
72.01492537313433%
72.01492537313433%
72.01492537313433%
72.01492537313433%
72.01492537313433%
72.01492537313433%
72.01492537313433%
72.01492537313433%
72.01492537313433%
72.01492537313433%
72.01492537313433%
72.01492537313433%
72.01492537313433%
72.01492537313433%
72.01492537313433%
72.01492537313433%
72.01492537313433%
72.01492537313433%
72.01492537313433%
72.01492537313433%
72.01492537313433%
72.01492537313433%
72.01492537313433%
72.01492537313433%
72.01492537313433%
72.01492537313433%
72.01492537313433%
72.01492537313433%
72.01492537313433%
72.01492537313433%
72.01492537313433%
72.01492537313433%
72.01492537313433%
72.01492537313433%
72.01492537313433%
72.01492537313433%
72.01492537313433%
72.01492537313433%
72.01492537313433%
72.01492537313433%
72.01492537313433%
72.01492537313433%
72.01492537313433%
72.01492537313433%
72.01492537313433%
72.01492537313433%
72.01492537313433%
72.01492537313433%
72.01492537313433%
72.01492537313433%
72.01492537313433%
72.01492537313433%
72.01492537313433%
72.01492537313433%
72.01492537313433%
72.01492537313433%
72.01492537313433%
72.01492537313433%
72.01492537313433%
72.01492537313433%
72.01492537313433%
72.01492537313433%
72.01492537313433%
72.01492537313433%
72.01492537313433%
72.01492537313433%
72.01492537313433%
72.01492537313433%
72.01492537313433%
72.01492537313433%
72.01492537313433%
72.01492537313433%
72.01492537313433%
72.01492537313433%
72.01492537313433%
72.01492537313433%
72.01492537313433%
72.01492537313433%
72.01492537313433%
72.01492537313433%
72.01492537313433%
72.01492537313433%
72.01492537313433%
72.01492537313433%
72.01492537313433%
72.01492537313433%
72.01492537313433%
72.01492537313433%
72.01492537313433%
72.01492537313433%
72.01492537313433%
72.01492537313433%
72.01492537313433%
72.01492537313433%
72.01492537313433%
72.01492537313433%
72.01492537313433%
72.01492537313433%
72.01492537313433%
72.01492537313433%
72.01492537313433%
72.01492537313433%
72.01492537313433%
72.01492537313433%
72.01492537313433%
72.01492537313433%
72.01492537313433%
72.01492537313433%
72.01492537313433%
72.01492537313433%
72.01492537313433%
72.01492537313433%
72.01492537313433%
72.01492537313433%
72.01492537313433%
72.01492537313433%
72.01492537313433%
72.01492537313433%
72.01492537313433%
72.01492537313433%
72.01492537313433%
72.01492537313433%
72.01492537313433%
72.01492537313433%
72.01492537313433%
72.01492537313433%
72.01492537313433%
72.01492537313433%
72.01492537313433%
72.01492537313433%
72.01492537313433%
72.01492537313433%
72.01492537313433%
72.01492537313433%
72.01492537313433%
72.01492537313433%
72.01492537313433%
72.01492537313433%
72.01492537313433%
72.01492537313433%
72.01492537313433%
72.01492537313433%
72.01492537313433%
72.01492537313433%
72.01492537313433%
72.01492537313433%
72.01492537313433%
72.01492537313433%
72.01492537313433%
72.01492537313433%
72.01492537313433%
72.01492537313433%
72.01492537313433%
72.01492537313433%
72.01492537313433%
72.01492537313433%
72.01492537313433%
72.01492537313433%
72.01492537313433%
72.01492537313433%
72.01492537313433%
72.01492537313433%
72.01492537313433%
72.01492537313433%
72.01492537313433%
72.01492537313433%
72.01492537313433%
72.01492537313433%
72.01492537313433%
72.01492537313433%
72.01492537313433%
72.01492537313433%
72.01492537313433%
72.01492537313433%
72.01492537313433%
72.01492537313433%
72.01492537313433%
72.01492537313433%
72.01492537313433%
72.01492537313433%
72.01492537313433%
72.01492537313433%
72.01492537313433%
72.01492537313433%
72.01492537313433%
72.01492537313433%
72.01492537313433%
72.01492537313433%
72.01492537313433%
72.01492537313433%
72.01492537313433%
72.01492537313433%
72.01492537313433%
72.01492537313433%
72.01492537313433%
72.01492537313433%
72.01492537313433%
72.01492537313433%
72.01492537313433%
72.01492537313433%
72.01492537313433%
72.01492537313433%
72.01492537313433%
72.01492537313433%
72.01492537313433%
72.01492537313433%
72.01492537313433%
72.01492537313433%
72.01492537313433%
72.01492537313433%
72.01492537313433%
72.01492537313433%
72.01492537313433%
72.01492537313433%
72.01492537313433%
72.01492537313433%
72.01492537313433%
72.01492537313433%
72.01492537313433%
72.01492537313433%
72.01492537313433%
72.01492537313433%
72.01492537313433%
72.01492537313433%
72.01492537313433%
72.01492537313433%
72.01492537313433%
72.01492537313433%
72.01492537313433%
72.01492537313433%
72.01492537313433%
72.01492537313433%
72.01492537313433%
72.01492537313433%
72.01492537313433%
72.01492537313433%
72.01492537313433%
72.01492537313433%
72.01492537313433%
134041
