100.0%
99.6268656716418%
99.6268656716418%
99.44029850746269%
99.25373134328358%
96.82835820895522%
97.38805970149254%
96.45522388059702%
97.57462686567165%
97.76119402985076%
97.76119402985076%
97.76119402985076%
97.76119402985076%
97.94776119402985%
99.25373134328358%
98.88059701492537%
98.13432835820896%
98.13432835820896%
97.57462686567165%
97.94776119402985%
98.13432835820896%
98.32089552238806%
98.69402985074626%
97.76119402985076%
97.20149253731343%
98.32089552238806%
98.13432835820896%
97.01492537313433%
97.01492537313433%
97.76119402985076%
97.38805970149254%
97.20149253731343%
97.38805970149254%
97.38805970149254%
97.01492537313433%
96.45522388059702%
96.64179104477611%
96.0820895522388%
95.33582089552239%
95.8955223880597%
95.52238805970148%
94.96268656716418%
94.77611940298507%
93.47014925373134%
92.53731343283582%
93.28358208955224%
91.97761194029852%
92.3507462686567%
88.05970149253731%
86.19402985074626%
86.56716417910447%
86.94029850746269%
85.63432835820896%
84.88805970149254%
86.19402985074626%
86.00746268656717%
86.00746268656717%
86.00746268656717%
84.51492537313433%
84.88805970149254%
88.05970149253731%
87.5%
88.24626865671642%
90.48507462686567%
86.38059701492537%
89.55223880597015%
87.8731343283582%
87.1268656716418%
86.75373134328358%
87.1268656716418%
85.63432835820896%
85.44776119402985%
87.8731343283582%
88.05970149253731%
89.92537313432835%
86.56716417910447%
87.1268656716418%
86.94029850746269%
87.1268656716418%
89.55223880597015%
89.73880597014924%
90.11194029850746%
90.48507462686567%
92.53731343283582%
92.3507462686567%
90.29850746268657%
88.99253731343283%
89.17910447761194%
88.05970149253731%
87.1268656716418%
88.99253731343283%
86.38059701492537%
87.5%
86.38059701492537%
87.1268656716418%
85.07462686567165%
83.5820895522388%
85.44776119402985%
83.2089552238806%
83.2089552238806%
81.34328358208955%
81.15671641791045%
76.11940298507463%
77.42537313432835%
79.2910447761194%
79.2910447761194%
78.9179104477612%
77.23880597014924%
76.49253731343283%
77.98507462686567%
77.42537313432835%
77.98507462686567%
76.86567164179104%
77.23880597014924%
78.17164179104478%
78.17164179104478%
78.73134328358209%
77.98507462686567%
77.98507462686567%
83.02238805970148%
83.76865671641791%
83.5820895522388%
83.02238805970148%
83.95522388059702%
87.5%
85.63432835820896%
86.19402985074626%
87.8731343283582%
86.00746268656717%
86.94029850746269%
86.38059701492537%
86.38059701492537%
85.82089552238806%
84.88805970149254%
87.31343283582089%
88.24626865671642%
88.24626865671642%
90.11194029850746%
91.97761194029852%
91.23134328358209%
91.97761194029852%
91.7910447761194%
91.7910447761194%
91.4179104477612%
91.4179104477612%
90.29850746268657%
89.55223880597015%
89.36567164179104%
88.43283582089553%
88.43283582089553%
88.43283582089553%
87.31343283582089%
85.26119402985076%
85.63432835820896%
85.44776119402985%
86.75373134328358%
88.05970149253731%
88.43283582089553%
88.61940298507463%
88.99253731343283%
88.61940298507463%
88.24626865671642%
88.24626865671642%
88.61940298507463%
89.17910447761194%
90.29850746268657%
88.24626865671642%
87.1268656716418%
88.24626865671642%
89.17910447761194%
87.68656716417911%
87.5%
86.75373134328358%
86.00746268656717%
88.24626865671642%
88.24626865671642%
87.1268656716418%
86.94029850746269%
87.31343283582089%
88.05970149253731%
87.1268656716418%
84.88805970149254%
83.5820895522388%
83.5820895522388%
84.88805970149254%
85.07462686567165%
84.88805970149254%
84.51492537313433%
85.44776119402985%
81.90298507462687%
83.02238805970148%
83.02238805970148%
82.46268656716418%
85.44776119402985%
85.44776119402985%
83.3955223880597%
80.97014925373134%
79.2910447761194%
80.03731343283582%
76.30597014925374%
76.86567164179104%
76.67910447761194%
75.0%
74.81343283582089%
73.69402985074626%
75.0%
75.3731343283582%
75.55970149253731%
76.49253731343283%
75.55970149253731%
75.0%
74.81343283582089%
74.6268656716418%
74.6268656716418%
75.55970149253731%
78.35820895522389%
80.03731343283582%
79.2910447761194%
77.61194029850746%
77.42537313432835%
79.2910447761194%
81.90298507462687%
84.14179104477611%
81.90298507462687%
78.73134328358209%
79.66417910447761%
82.6492537313433%
80.78358208955224%
80.41044776119402%
83.2089552238806%
83.3955223880597%
82.6492537313433%
83.5820895522388%
84.14179104477611%
83.76865671641791%
83.95522388059702%
84.70149253731343%
83.95522388059702%
83.95522388059702%
84.14179104477611%
83.5820895522388%
83.02238805970148%
82.6492537313433%
82.46268656716418%
82.46268656716418%
83.5820895522388%
83.5820895522388%
83.2089552238806%
83.2089552238806%
83.2089552238806%
83.2089552238806%
83.02238805970148%
83.02238805970148%
83.02238805970148%
82.46268656716418%
82.27611940298507%
82.08955223880598%
82.27611940298507%
82.27611940298507%
82.6492537313433%
83.02238805970148%
83.02238805970148%
82.83582089552239%
82.46268656716418%
82.46268656716418%
82.27611940298507%
80.97014925373134%
81.71641791044776%
81.71641791044776%
80.59701492537313%
80.97014925373134%
80.78358208955224%
80.78358208955224%
80.97014925373134%
81.15671641791045%
80.78358208955224%
80.22388059701493%
80.22388059701493%
80.22388059701493%
79.47761194029852%
80.22388059701493%
80.41044776119402%
80.22388059701493%
80.22388059701493%
78.54477611940298%
80.22388059701493%
79.47761194029852%
79.47761194029852%
79.1044776119403%
78.9179104477612%
79.47761194029852%
79.2910447761194%
78.54477611940298%
78.73134328358209%
78.9179104477612%
78.73134328358209%
78.73134328358209%
77.98507462686567%
77.42537313432835%
77.23880597014924%
77.23880597014924%
76.49253731343283%
76.67910447761194%
76.49253731343283%
76.67910447761194%
76.67910447761194%
76.67910447761194%
76.67910447761194%
77.05223880597015%
76.86567164179104%
76.67910447761194%
76.86567164179104%
76.67910447761194%
76.67910447761194%
77.23880597014924%
77.05223880597015%
77.05223880597015%
76.86567164179104%
76.86567164179104%
76.86567164179104%
77.05223880597015%
76.86567164179104%
76.86567164179104%
76.86567164179104%
76.86567164179104%
76.11940298507463%
75.93283582089553%
75.93283582089553%
75.74626865671642%
75.74626865671642%
75.74626865671642%
75.74626865671642%
75.3731343283582%
75.55970149253731%
75.55970149253731%
76.11940298507463%
75.74626865671642%
75.93283582089553%
75.74626865671642%
75.93283582089553%
75.74626865671642%
75.93283582089553%
75.0%
74.25373134328358%
74.06716417910447%
74.06716417910447%
73.88059701492537%
73.88059701492537%
73.50746268656717%
73.50746268656717%
74.06716417910447%
74.06716417910447%
74.44029850746269%
74.06716417910447%
74.06716417910447%
73.69402985074626%
73.69402985074626%
73.88059701492537%
73.69402985074626%
73.69402985074626%
73.69402985074626%
73.88059701492537%
73.69402985074626%
73.69402985074626%
72.94776119402985%
73.13432835820896%
72.94776119402985%
73.13432835820896%
73.13432835820896%
73.13432835820896%
73.13432835820896%
73.13432835820896%
72.76119402985076%
72.94776119402985%
73.50746268656717%
73.32089552238806%
73.32089552238806%
73.13432835820896%
72.94776119402985%
72.76119402985076%
72.76119402985076%
72.94776119402985%
72.76119402985076%
72.76119402985076%
72.76119402985076%
72.76119402985076%
72.76119402985076%
72.76119402985076%
72.76119402985076%
72.76119402985076%
72.76119402985076%
72.76119402985076%
72.76119402985076%
72.76119402985076%
72.76119402985076%
72.76119402985076%
72.76119402985076%
72.76119402985076%
72.76119402985076%
72.76119402985076%
72.76119402985076%
72.76119402985076%
72.94776119402985%
72.94776119402985%
72.94776119402985%
72.94776119402985%
72.94776119402985%
72.94776119402985%
72.94776119402985%
72.94776119402985%
72.76119402985076%
72.57462686567165%
72.57462686567165%
72.57462686567165%
72.57462686567165%
72.57462686567165%
72.57462686567165%
72.57462686567165%
72.57462686567165%
72.57462686567165%
72.57462686567165%
72.57462686567165%
72.57462686567165%
72.57462686567165%
72.57462686567165%
72.57462686567165%
72.57462686567165%
72.20149253731343%
72.20149253731343%
72.20149253731343%
72.20149253731343%
72.20149253731343%
72.38805970149254%
72.20149253731343%
72.20149253731343%
72.20149253731343%
72.20149253731343%
72.20149253731343%
72.20149253731343%
72.38805970149254%
72.38805970149254%
72.38805970149254%
72.20149253731343%
72.20149253731343%
72.38805970149254%
72.38805970149254%
72.38805970149254%
72.38805970149254%
72.38805970149254%
72.38805970149254%
72.38805970149254%
72.38805970149254%
72.38805970149254%
72.38805970149254%
72.20149253731343%
72.20149253731343%
72.20149253731343%
72.20149253731343%
72.20149253731343%
72.20149253731343%
72.20149253731343%
72.38805970149254%
72.38805970149254%
72.38805970149254%
72.38805970149254%
72.38805970149254%
72.38805970149254%
72.38805970149254%
72.38805970149254%
72.20149253731343%
72.20149253731343%
72.01492537313433%
72.01492537313433%
72.01492537313433%
72.01492537313433%
72.01492537313433%
72.20149253731343%
72.20149253731343%
72.01492537313433%
72.01492537313433%
72.20149253731343%
72.01492537313433%
72.01492537313433%
72.01492537313433%
72.01492537313433%
72.01492537313433%
72.01492537313433%
72.01492537313433%
72.01492537313433%
72.01492537313433%
72.01492537313433%
72.01492537313433%
72.01492537313433%
72.01492537313433%
72.01492537313433%
72.01492537313433%
72.01492537313433%
72.01492537313433%
72.01492537313433%
72.01492537313433%
72.01492537313433%
72.01492537313433%
72.01492537313433%
72.01492537313433%
72.01492537313433%
72.01492537313433%
72.01492537313433%
72.01492537313433%
72.01492537313433%
72.01492537313433%
72.01492537313433%
72.01492537313433%
72.01492537313433%
72.01492537313433%
72.01492537313433%
72.01492537313433%
72.01492537313433%
72.01492537313433%
72.01492537313433%
72.01492537313433%
72.01492537313433%
72.01492537313433%
72.01492537313433%
72.01492537313433%
72.01492537313433%
72.01492537313433%
72.01492537313433%
72.01492537313433%
72.01492537313433%
72.01492537313433%
72.01492537313433%
72.01492537313433%
72.01492537313433%
72.01492537313433%
72.01492537313433%
72.01492537313433%
72.01492537313433%
72.01492537313433%
72.01492537313433%
72.01492537313433%
72.01492537313433%
72.01492537313433%
72.01492537313433%
72.01492537313433%
72.01492537313433%
72.01492537313433%
72.01492537313433%
72.01492537313433%
72.01492537313433%
72.01492537313433%
72.01492537313433%
72.01492537313433%
72.01492537313433%
72.01492537313433%
72.01492537313433%
72.01492537313433%
72.01492537313433%
72.01492537313433%
72.01492537313433%
72.01492537313433%
72.01492537313433%
72.01492537313433%
72.01492537313433%
72.01492537313433%
72.01492537313433%
72.01492537313433%
72.01492537313433%
72.01492537313433%
72.01492537313433%
72.01492537313433%
72.01492537313433%
72.01492537313433%
72.01492537313433%
72.01492537313433%
72.01492537313433%
72.01492537313433%
72.01492537313433%
72.01492537313433%
72.01492537313433%
72.01492537313433%
72.01492537313433%
72.01492537313433%
72.01492537313433%
72.01492537313433%
72.01492537313433%
72.01492537313433%
72.01492537313433%
72.01492537313433%
72.01492537313433%
72.01492537313433%
72.01492537313433%
72.01492537313433%
72.01492537313433%
72.01492537313433%
72.01492537313433%
72.01492537313433%
72.01492537313433%
72.01492537313433%
72.01492537313433%
72.01492537313433%
72.01492537313433%
72.01492537313433%
72.01492537313433%
72.01492537313433%
72.01492537313433%
72.01492537313433%
72.01492537313433%
72.01492537313433%
72.01492537313433%
72.01492537313433%
72.01492537313433%
72.01492537313433%
72.01492537313433%
72.01492537313433%
72.01492537313433%
72.01492537313433%
72.01492537313433%
72.01492537313433%
72.01492537313433%
72.01492537313433%
72.01492537313433%
72.01492537313433%
72.01492537313433%
72.01492537313433%
72.01492537313433%
72.01492537313433%
72.01492537313433%
72.01492537313433%
72.01492537313433%
72.01492537313433%
72.01492537313433%
72.01492537313433%
72.01492537313433%
72.01492537313433%
72.01492537313433%
72.01492537313433%
72.01492537313433%
72.01492537313433%
72.01492537313433%
72.01492537313433%
72.01492537313433%
72.01492537313433%
72.01492537313433%
72.01492537313433%
72.01492537313433%
72.01492537313433%
72.01492537313433%
72.01492537313433%
72.01492537313433%
72.01492537313433%
72.01492537313433%
72.01492537313433%
72.01492537313433%
72.01492537313433%
72.01492537313433%
72.01492537313433%
72.01492537313433%
72.01492537313433%
72.01492537313433%
72.01492537313433%
72.01492537313433%
72.01492537313433%
72.01492537313433%
72.01492537313433%
72.01492537313433%
72.01492537313433%
72.01492537313433%
72.01492537313433%
72.01492537313433%
72.01492537313433%
72.01492537313433%
72.01492537313433%
72.01492537313433%
72.01492537313433%
72.01492537313433%
72.01492537313433%
72.01492537313433%
72.01492537313433%
72.01492537313433%
72.01492537313433%
72.01492537313433%
72.01492537313433%
72.01492537313433%
72.01492537313433%
72.01492537313433%
72.01492537313433%
72.01492537313433%
72.01492537313433%
72.01492537313433%
72.01492537313433%
72.01492537313433%
72.01492537313433%
72.01492537313433%
72.01492537313433%
72.01492537313433%
72.01492537313433%
72.01492537313433%
72.01492537313433%
72.01492537313433%
72.01492537313433%
72.01492537313433%
72.01492537313433%
72.01492537313433%
72.01492537313433%
72.01492537313433%
72.01492537313433%
72.01492537313433%
72.01492537313433%
72.01492537313433%
