97.38805970149254%
98.69402985074626%
99.6268656716418%
99.6268656716418%
99.6268656716418%
99.44029850746269%
99.6268656716418%
99.25373134328358%
99.44029850746269%
98.13432835820896%
97.57462686567165%
95.7089552238806%
97.01492537313433%
97.94776119402985%
99.06716417910447%
99.81343283582089%
99.6268656716418%
98.88059701492537%
98.88059701492537%
99.44029850746269%
99.6268656716418%
100.0%
97.57462686567165%
96.0820895522388%
96.64179104477611%
98.69402985074626%
99.6268656716418%
99.81343283582089%
99.44029850746269%
99.44029850746269%
99.44029850746269%
98.88059701492537%
98.69402985074626%
99.44029850746269%
99.25373134328358%
99.44029850746269%
98.69402985074626%
99.25373134328358%
99.06716417910447%
99.44029850746269%
99.6268656716418%
99.6268656716418%
99.06716417910447%
99.06716417910447%
98.69402985074626%
99.25373134328358%
99.81343283582089%
98.50746268656717%
96.26865671641791%
96.0820895522388%
99.6268656716418%
99.6268656716418%
99.25373134328358%
99.44029850746269%
99.6268656716418%
97.76119402985076%
97.57462686567165%
97.94776119402985%
99.6268656716418%
99.44029850746269%
98.13432835820896%
98.13432835820896%
97.01492537313433%
97.76119402985076%
98.50746268656717%
99.6268656716418%
99.6268656716418%
99.6268656716418%
99.44029850746269%
99.6268656716418%
99.6268656716418%
99.6268656716418%
99.81343283582089%
97.38805970149254%
97.94776119402985%
98.88059701492537%
98.13432835820896%
97.76119402985076%
99.06716417910447%
99.6268656716418%
98.13432835820896%
98.13432835820896%
99.06716417910447%
99.44029850746269%
96.82835820895522%
95.33582089552239%
94.40298507462687%
93.84328358208955%
94.77611940298507%
96.0820895522388%
98.50746268656717%
99.6268656716418%
99.44029850746269%
99.06716417910447%
98.88059701492537%
99.44029850746269%
99.6268656716418%
99.81343283582089%
100.0%
100.0%
98.32089552238806%
97.57462686567165%
98.50746268656717%
99.6268656716418%
98.50746268656717%
98.13432835820896%
98.50746268656717%
99.44029850746269%
98.69402985074626%
95.1492537313433%
93.09701492537313%
91.23134328358209%
89.55223880597015%
91.97761194029852%
94.77611940298507%
97.38805970149254%
99.06716417910447%
99.06716417910447%
98.50746268656717%
97.20149253731343%
97.57462686567165%
99.06716417910447%
99.6268656716418%
100.0%
100.0%
99.06716417910447%
99.25373134328358%
99.6268656716418%
99.6268656716418%
98.69402985074626%
98.69402985074626%
99.6268656716418%
99.25373134328358%
97.94776119402985%
94.58955223880598%
92.91044776119402%
90.11194029850746%
89.17910447761194%
90.11194029850746%
94.02985074626866%
95.7089552238806%
97.76119402985076%
99.6268656716418%
98.69402985074626%
94.96268656716418%
94.77611940298507%
95.8955223880597%
97.20149253731343%
98.69402985074626%
99.81343283582089%
99.06716417910447%
98.32089552238806%
97.94776119402985%
98.50746268656717%
98.69402985074626%
99.81343283582089%
99.44029850746269%
98.13432835820896%
96.45522388059702%
94.58955223880598%
93.28358208955224%
92.16417910447761%
91.4179104477612%
92.53731343283582%
95.1492537313433%
95.8955223880597%
97.57462686567165%
99.6268656716418%
98.69402985074626%
93.47014925373134%
91.97761194029852%
93.09701492537313%
94.02985074626866%
96.45522388059702%
98.50746268656717%
95.1492537313433%
94.02985074626866%
94.77611940298507%
96.0820895522388%
98.13432835820896%
99.6268656716418%
99.06716417910447%
97.01492537313433%
96.64179104477611%
95.7089552238806%
95.33582089552239%
95.1492537313433%
95.1492537313433%
95.52238805970148%
96.26865671641791%
97.38805970149254%
98.50746268656717%
99.6268656716418%
99.44029850746269%
93.47014925373134%
91.97761194029852%
90.11194029850746%
91.6044776119403%
94.96268656716418%
96.82835820895522%
88.80597014925374%
86.75373134328358%
90.67164179104478%
94.02985074626866%
97.57462686567165%
99.6268656716418%
99.06716417910447%
97.38805970149254%
97.57462686567165%
97.94776119402985%
98.50746268656717%
98.50746268656717%
98.69402985074626%
98.69402985074626%
99.44029850746269%
99.44029850746269%
99.6268656716418%
99.81343283582089%
99.44029850746269%
93.65671641791045%
91.97761194029852%
88.80597014925374%
88.61940298507463%
91.97761194029852%
95.52238805970148%
86.94029850746269%
85.44776119402985%
88.99253731343283%
93.28358208955224%
97.01492537313433%
99.6268656716418%
99.25373134328358%
98.69402985074626%
98.88059701492537%
99.6268656716418%
99.25373134328358%
100.0%
99.6268656716418%
99.25373134328358%
98.88059701492537%
99.44029850746269%
99.81343283582089%
99.25373134328358%
98.88059701492537%
94.02985074626866%
93.28358208955224%
88.99253731343283%
88.43283582089553%
90.85820895522389%
94.21641791044776%
88.99253731343283%
88.24626865671642%
91.6044776119403%
94.40298507462687%
97.76119402985076%
99.6268656716418%
99.6268656716418%
99.6268656716418%
99.6268656716418%
98.88059701492537%
96.26865671641791%
95.33582089552239%
94.77611940298507%
94.77611940298507%
96.0820895522388%
97.38805970149254%
99.06716417910447%
98.32089552238806%
97.94776119402985%
95.1492537313433%
94.58955223880598%
92.53731343283582%
92.3507462686567%
92.53731343283582%
95.33582089552239%
91.04477611940298%
91.4179104477612%
93.65671641791045%
96.26865671641791%
99.44029850746269%
99.6268656716418%
99.6268656716418%
99.6268656716418%
99.44029850746269%
96.0820895522388%
93.84328358208955%
92.16417910447761%
92.16417910447761%
92.72388059701493%
94.96268656716418%
97.01492537313433%
98.32089552238806%
98.13432835820896%
98.32089552238806%
96.64179104477611%
97.01492537313433%
94.96268656716418%
94.40298507462687%
94.77611940298507%
96.0820895522388%
93.28358208955224%
94.58955223880598%
97.20149253731343%
99.81343283582089%
100.0%
99.6268656716418%
99.6268656716418%
99.6268656716418%
98.88059701492537%
93.84328358208955%
91.97761194029852%
90.29850746268657%
90.29850746268657%
91.7910447761194%
94.21641791044776%
97.38805970149254%
98.69402985074626%
98.69402985074626%
98.88059701492537%
97.57462686567165%
98.88059701492537%
97.57462686567165%
98.32089552238806%
97.76119402985076%
98.69402985074626%
95.8955223880597%
97.76119402985076%
99.81343283582089%
99.6268656716418%
99.6268656716418%
99.6268656716418%
99.44029850746269%
99.81343283582089%
99.44029850746269%
94.77611940298507%
91.97761194029852%
89.36567164179104%
89.36567164179104%
90.29850746268657%
93.47014925373134%
96.64179104477611%
98.69402985074626%
98.88059701492537%
98.88059701492537%
98.88059701492537%
99.6268656716418%
99.81343283582089%
99.6268656716418%
99.81343283582089%
99.81343283582089%
100.0%
100.0%
99.6268656716418%
99.6268656716418%
99.25373134328358%
98.50746268656717%
98.50746268656717%
98.69402985074626%
99.81343283582089%
96.0820895522388%
93.47014925373134%
89.73880597014924%
89.55223880597015%
91.23134328358209%
94.40298507462687%
98.50746268656717%
99.44029850746269%
99.81343283582089%
99.81343283582089%
99.6268656716418%
99.6268656716418%
99.44029850746269%
99.25373134328358%
99.06716417910447%
99.6268656716418%
100.0%
99.6268656716418%
99.44029850746269%
99.25373134328358%
98.88059701492537%
97.76119402985076%
97.20149253731343%
97.20149253731343%
98.88059701492537%
99.06716417910447%
96.82835820895522%
93.28358208955224%
92.53731343283582%
94.21641791044776%
96.26865671641791%
99.25373134328358%
98.88059701492537%
99.06716417910447%
99.06716417910447%
98.88059701492537%
98.32089552238806%
97.76119402985076%
97.57462686567165%
97.94776119402985%
99.06716417910447%
99.81343283582089%
99.6268656716418%
99.6268656716418%
99.44029850746269%
99.06716417910447%
97.57462686567165%
97.20149253731343%
97.01492537313433%
97.20149253731343%
99.81343283582089%
99.25373134328358%
95.7089552238806%
94.02985074626866%
96.0820895522388%
98.88059701492537%
98.88059701492537%
97.20149253731343%
97.01492537313433%
97.76119402985076%
97.57462686567165%
97.38805970149254%
96.82835820895522%
97.01492537313433%
97.57462686567165%
98.32089552238806%
100.0%
100.0%
100.0%
100.0%
99.44029850746269%
97.94776119402985%
97.20149253731343%
96.45522388059702%
96.64179104477611%
97.94776119402985%
99.6268656716418%
97.94776119402985%
96.45522388059702%
97.20149253731343%
98.88059701492537%
98.13432835820896%
97.01492537313433%
96.26865671641791%
96.82835820895522%
97.01492537313433%
96.64179104477611%
96.45522388059702%
96.82835820895522%
97.57462686567165%
98.32089552238806%
99.06716417910447%
98.69402985074626%
98.13432835820896%
99.6268656716418%
99.81343283582089%
99.06716417910447%
97.94776119402985%
96.45522388059702%
96.64179104477611%
97.76119402985076%
99.06716417910447%
99.25373134328358%
98.50746268656717%
98.50746268656717%
99.44029850746269%
97.76119402985076%
96.26865671641791%
96.45522388059702%
96.82835820895522%
97.20149253731343%
97.57462686567165%
97.76119402985076%
98.32089552238806%
98.32089552238806%
99.44029850746269%
96.0820895522388%
94.02985074626866%
93.84328358208955%
94.21641791044776%
96.0820895522388%
100.0%
99.44029850746269%
97.94776119402985%
97.38805970149254%
97.94776119402985%
98.88059701492537%
99.6268656716418%
99.25373134328358%
99.6268656716418%
99.06716417910447%
96.64179104477611%
95.52238805970148%
95.7089552238806%
97.20149253731343%
98.13432835820896%
99.06716417910447%
99.81343283582089%
99.81343283582089%
99.81343283582089%
99.6268656716418%
95.52238805970148%
91.97761194029852%
90.29850746268657%
90.29850746268657%
91.4179104477612%
94.21641791044776%
97.76119402985076%
99.25373134328358%
98.88059701492537%
99.06716417910447%
99.6268656716418%
99.44029850746269%
98.69402985074626%
99.6268656716418%
98.50746268656717%
96.82835820895522%
96.0820895522388%
96.0820895522388%
98.13432835820896%
99.81343283582089%
98.69402985074626%
97.01492537313433%
95.52238805970148%
96.64179104477611%
97.38805970149254%
95.8955223880597%
91.4179104477612%
89.17910447761194%
87.8731343283582%
87.8731343283582%
88.43283582089553%
90.67164179104478%
96.82835820895522%
98.50746268656717%
98.88059701492537%
97.76119402985076%
95.8955223880597%
96.0820895522388%
99.06716417910447%
99.6268656716418%
97.20149253731343%
96.82835820895522%
97.01492537313433%
98.88059701492537%
98.69402985074626%
95.1492537313433%
91.97761194029852%
90.85820895522389%
91.7910447761194%
94.77611940298507%
98.88059701492537%
92.91044776119402%
89.73880597014924%
85.63432835820896%
84.51492537313433%
83.5820895522388%
85.82089552238806%
91.23134328358209%
93.65671641791045%
95.33582089552239%
95.33582089552239%
93.47014925373134%
93.47014925373134%
97.20149253731343%
99.6268656716418%
98.50746268656717%
98.32089552238806%
98.32089552238806%
99.6268656716418%
96.82835820895522%
92.72388059701493%
89.55223880597015%
88.80597014925374%
89.92537313432835%
92.91044776119402%
98.69402985074626%
97.76119402985076%
93.28358208955224%
87.31343283582089%
84.70149253731343%
81.71641791044776%
83.5820895522388%
87.5%
90.67164179104478%
91.97761194029852%
92.72388059701493%
91.7910447761194%
91.97761194029852%
94.21641791044776%
97.57462686567165%
99.6268656716418%
99.6268656716418%
99.6268656716418%
99.6268656716418%
97.76119402985076%
95.33582089552239%
90.67164179104478%
89.92537313432835%
91.04477611940298%
93.65671641791045%
97.38805970149254%
99.44029850746269%
98.32089552238806%
90.85820895522389%
87.5%
84.70149253731343%
85.44776119402985%
87.31343283582089%
90.11194029850746%
91.6044776119403%
92.3507462686567%
91.4179104477612%
91.6044776119403%
93.09701492537313%
96.0820895522388%
98.88059701492537%
99.81343283582089%
99.6268656716418%
99.81343283582089%
99.06716417910447%
97.94776119402985%
95.8955223880597%
94.96268656716418%
94.96268656716418%
96.26865671641791%
128726
