100.0%
99.81343283582089%
100.0%
99.81343283582089%
99.81343283582089%
99.81343283582089%
99.81343283582089%
99.81343283582089%
99.81343283582089%
99.6268656716418%
99.6268656716418%
99.6268656716418%
99.81343283582089%
99.81343283582089%
99.81343283582089%
99.6268656716418%
99.25373134328358%
99.44029850746269%
99.25373134328358%
99.06716417910447%
98.88059701492537%
98.88059701492537%
98.88059701492537%
99.06716417910447%
98.69402985074626%
99.25373134328358%
98.50746268656717%
98.50746268656717%
98.32089552238806%
98.88059701492537%
97.94776119402985%
98.13432835820896%
97.76119402985076%
98.69402985074626%
98.32089552238806%
97.76119402985076%
97.76119402985076%
98.13432835820896%
98.13432835820896%
98.50746268656717%
98.32089552238806%
96.45522388059702%
96.26865671641791%
96.45522388059702%
96.0820895522388%
96.0820895522388%
96.82835820895522%
96.64179104477611%
96.82835820895522%
97.01492537313433%
96.82835820895522%
96.82835820895522%
96.82835820895522%
96.82835820895522%
95.52238805970148%
96.0820895522388%
94.21641791044776%
94.21641791044776%
93.65671641791045%
95.52238805970148%
95.8955223880597%
92.91044776119402%
92.53731343283582%
92.91044776119402%
92.91044776119402%
93.28358208955224%
92.91044776119402%
92.16417910447761%
91.97761194029852%
91.97761194029852%
91.97761194029852%
91.6044776119403%
91.6044776119403%
89.36567164179104%
86.75373134328358%
86.75373134328358%
86.19402985074626%
86.38059701492537%
84.88805970149254%
83.5820895522388%
82.08955223880598%
79.2910447761194%
79.1044776119403%
79.1044776119403%
79.47761194029852%
79.2910447761194%
80.22388059701493%
82.6492537313433%
82.6492537313433%
81.90298507462687%
83.02238805970148%
82.83582089552239%
82.46268656716418%
80.78358208955224%
79.1044776119403%
79.66417910447761%
78.35820895522389%
76.86567164179104%
76.49253731343283%
77.42537313432835%
75.18656716417911%
74.81343283582089%
74.44029850746269%
75.18656716417911%
71.26865671641791%
71.26865671641791%
74.44029850746269%
73.13432835820896%
70.7089552238806%
69.40298507462687%
68.09701492537313%
69.21641791044776%
69.40298507462687%
67.91044776119402%
71.82835820895522%
71.82835820895522%
69.77611940298507%
68.28358208955224%
68.28358208955224%
68.09701492537313%
65.29850746268657%
68.09701492537313%
68.09701492537313%
66.23134328358209%
66.4179104477612%
66.04477611940298%
67.3507462686567%
66.04477611940298%
66.04477611940298%
66.23134328358209%
65.29850746268657%
64.92537313432835%
64.55223880597015%
63.61940298507462%
66.23134328358209%
66.04477611940298%
64.92537313432835%
66.04477611940298%
65.67164179104478%
67.91044776119402%
67.91044776119402%
68.65671641791045%
68.28358208955224%
64.55223880597015%
65.11194029850746%
64.55223880597015%
66.23134328358209%
70.52238805970148%
73.13432835820896%
74.06716417910447%
76.86567164179104%
76.86567164179104%
75.3731343283582%
75.3731343283582%
75.93283582089553%
76.49253731343283%
75.3731343283582%
76.30597014925374%
72.94776119402985%
71.26865671641791%
71.0820895522388%
65.85820895522389%
65.11194029850746%
64.36567164179104%
63.61940298507462%
63.43283582089553%
61.75373134328358%
62.5%
63.24626865671642%
64.17910447761194%
63.99253731343284%
63.99253731343284%
65.29850746268657%
65.29850746268657%
65.85820895522389%
66.7910447761194%
65.29850746268657%
65.67164179104478%
64.36567164179104%
64.36567164179104%
63.43283582089553%
64.73880597014924%
63.99253731343284%
62.126865671641795%
61.75373134328358%
59.70149253731343%
62.68656716417911%
63.059701492537314%
62.68656716417911%
60.634328358208954%
60.447761194029844%
62.5%
64.55223880597015%
63.99253731343284%
65.29850746268657%
64.17910447761194%
64.17910447761194%
60.26119402985075%
59.88805970149254%
59.51492537313433%
59.88805970149254%
61.00746268656716%
58.2089552238806%
59.32835820895522%
56.71641791044776%
56.90298507462687%
56.529850746268664%
57.83582089552238%
56.90298507462687%
56.343283582089555%
52.98507462686567%
52.98507462686567%
52.052238805970156%
52.61194029850746%
53.54477611940298%
52.61194029850746%
52.79850746268657%
52.23880597014925%
52.98507462686567%
54.1044776119403%
54.47761194029851%
55.03731343283582%
53.35820895522389%
54.66417910447762%
55.03731343283582%
52.42537313432835%
51.679104477611936%
52.61194029850746%
55.41044776119403%
52.98507462686567%
53.17164179104478%
53.73134328358209%
53.917910447761194%
52.052238805970156%
51.30597014925373%
50.559701492537314%
50.93283582089553%
53.54477611940298%
51.49253731343284%
50.18656716417911%
50.373134328358205%
50.0%
50.93283582089553%
53.35820895522389%
52.052238805970156%
53.54477611940298%
55.41044776119403%
55.41044776119403%
56.71641791044776%
59.51492537313433%
59.70149253731343%
62.5%
63.80597014925373%
61.56716417910447%
60.634328358208954%
62.68656716417911%
62.873134328358205%
63.43283582089553%
66.4179104477612%
65.11194029850746%
66.04477611940298%
66.23134328358209%
68.28358208955224%
67.72388059701493%
70.33582089552239%
69.02985074626866%
69.21641791044776%
67.91044776119402%
67.3507462686567%
67.16417910447761%
69.02985074626866%
69.21641791044776%
71.0820895522388%
71.64179104477611%
75.3731343283582%
73.13432835820896%
70.33582089552239%
70.8955223880597%
72.20149253731343%
76.11940298507463%
78.9179104477612%
79.2910447761194%
82.46268656716418%
80.97014925373134%
80.41044776119402%
80.41044776119402%
80.41044776119402%
80.97014925373134%
81.34328358208955%
79.2910447761194%
81.15671641791045%
80.97014925373134%
82.6492537313433%
82.6492537313433%
83.76865671641791%
83.95522388059702%
83.2089552238806%
83.3955223880597%
83.5820895522388%
84.32835820895522%
84.51492537313433%
84.70149253731343%
86.19402985074626%
82.83582089552239%
81.90298507462687%
83.95522388059702%
83.02238805970148%
84.14179104477611%
84.32835820895522%
84.32835820895522%
84.32835820895522%
84.14179104477611%
84.51492537313433%
84.88805970149254%
84.88805970149254%
84.88805970149254%
86.75373134328358%
86.38059701492537%
86.94029850746269%
86.75373134328358%
88.05970149253731%
90.48507462686567%
90.67164179104478%
90.67164179104478%
90.67164179104478%
90.29850746268657%
90.11194029850746%
87.68656716417911%
87.5%
88.24626865671642%
88.80597014925374%
88.61940298507463%
88.24626865671642%
87.8731343283582%
88.24626865671642%
87.68656716417911%
87.68656716417911%
88.43283582089553%
88.61940298507463%
88.61940298507463%
88.43283582089553%
89.36567164179104%
89.55223880597015%
89.55223880597015%
89.36567164179104%
89.73880597014924%
90.11194029850746%
89.55223880597015%
88.61940298507463%
88.61940298507463%
88.43283582089553%
88.80597014925374%
88.61940298507463%
88.43283582089553%
89.17910447761194%
88.43283582089553%
88.99253731343283%
89.55223880597015%
88.99253731343283%
88.80597014925374%
87.8731343283582%
87.68656716417911%
87.1268656716418%
88.43283582089553%
87.8731343283582%
87.5%
86.38059701492537%
87.1268656716418%
86.56716417910447%
86.75373134328358%
86.75373134328358%
87.8731343283582%
86.75373134328358%
87.5%
87.1268656716418%
87.1268656716418%
87.68656716417911%
88.05970149253731%
87.1268656716418%
86.56716417910447%
87.31343283582089%
86.19402985074626%
85.63432835820896%
86.75373134328358%
86.56716417910447%
86.56716417910447%
86.19402985074626%
86.19402985074626%
86.19402985074626%
84.70149253731343%
84.51492537313433%
84.32835820895522%
84.32835820895522%
83.95522388059702%
84.14179104477611%
83.5820895522388%
83.02238805970148%
83.95522388059702%
85.26119402985076%
85.63432835820896%
86.75373134328358%
85.82089552238806%
86.19402985074626%
86.38059701492537%
86.19402985074626%
86.56716417910447%
86.19402985074626%
86.19402985074626%
86.00746268656717%
86.00746268656717%
86.00746268656717%
86.56716417910447%
86.56716417910447%
86.00746268656717%
86.56716417910447%
86.19402985074626%
85.82089552238806%
85.44776119402985%
85.82089552238806%
85.63432835820896%
85.63432835820896%
86.00746268656717%
84.32835820895522%
83.02238805970148%
81.15671641791045%
79.66417910447761%
80.03731343283582%
80.22388059701493%
79.8507462686567%
79.66417910447761%
79.1044776119403%
78.17164179104478%
79.1044776119403%
79.66417910447761%
79.1044776119403%
79.8507462686567%
79.47761194029852%
79.2910447761194%
79.47761194029852%
78.9179104477612%
79.66417910447761%
79.1044776119403%
76.11940298507463%
76.11940298507463%
76.11940298507463%
76.30597014925374%
75.0%
75.18656716417911%
75.0%
74.6268656716418%
75.3731343283582%
74.81343283582089%
74.81343283582089%
75.0%
74.6268656716418%
74.81343283582089%
74.6268656716418%
74.44029850746269%
74.6268656716418%
74.6268656716418%
74.6268656716418%
74.81343283582089%
75.0%
74.25373134328358%
74.81343283582089%
74.44029850746269%
74.81343283582089%
74.25373134328358%
73.88059701492537%
73.32089552238806%
73.32089552238806%
73.50746268656717%
73.69402985074626%
73.69402985074626%
74.81343283582089%
75.18656716417911%
73.88059701492537%
74.25373134328358%
73.50746268656717%
75.18656716417911%
75.3731343283582%
75.74626865671642%
75.93283582089553%
76.67910447761194%
76.86567164179104%
76.67910447761194%
76.86567164179104%
77.23880597014924%
76.30597014925374%
75.18656716417911%
75.18656716417911%
75.55970149253731%
74.44029850746269%
74.25373134328358%
74.25373134328358%
75.18656716417911%
74.25373134328358%
74.06716417910447%
75.0%
74.44029850746269%
73.69402985074626%
73.69402985074626%
74.06716417910447%
73.69402985074626%
74.6268656716418%
74.25373134328358%
75.74626865671642%
75.3731343283582%
75.55970149253731%
75.18656716417911%
74.6268656716418%
73.32089552238806%
73.13432835820896%
73.32089552238806%
73.32089552238806%
73.32089552238806%
73.13432835820896%
72.38805970149254%
72.01492537313433%
72.01492537313433%
72.57462686567165%
72.76119402985076%
72.76119402985076%
71.82835820895522%
72.01492537313433%
71.82835820895522%
72.01492537313433%
71.82835820895522%
71.82835820895522%
71.64179104477611%
71.82835820895522%
71.64179104477611%
72.01492537313433%
72.01492537313433%
72.20149253731343%
71.82835820895522%
71.64179104477611%
71.64179104477611%
71.64179104477611%
71.64179104477611%
71.64179104477611%
71.64179104477611%
71.64179104477611%
71.82835820895522%
71.82835820895522%
71.26865671641791%
72.01492537313433%
71.64179104477611%
72.01492537313433%
72.01492537313433%
71.82835820895522%
71.64179104477611%
71.64179104477611%
71.82835820895522%
71.82835820895522%
71.82835820895522%
71.82835820895522%
71.82835820895522%
71.64179104477611%
71.64179104477611%
71.64179104477611%
71.82835820895522%
71.82835820895522%
71.82835820895522%
71.82835820895522%
71.64179104477611%
71.82835820895522%
71.82835820895522%
71.82835820895522%
71.64179104477611%
71.82835820895522%
71.82835820895522%
71.82835820895522%
71.64179104477611%
71.64179104477611%
71.64179104477611%
71.82835820895522%
71.64179104477611%
71.64179104477611%
71.64179104477611%
72.01492537313433%
71.64179104477611%
71.64179104477611%
72.01492537313433%
72.01492537313433%
72.01492537313433%
71.82835820895522%
71.82835820895522%
71.82835820895522%
71.82835820895522%
71.82835820895522%
71.82835820895522%
71.82835820895522%
71.82835820895522%
71.82835820895522%
71.82835820895522%
71.82835820895522%
71.82835820895522%
71.82835820895522%
71.82835820895522%
71.82835820895522%
71.82835820895522%
71.82835820895522%
71.82835820895522%
71.82835820895522%
71.82835820895522%
71.82835820895522%
71.82835820895522%
71.82835820895522%
71.82835820895522%
71.82835820895522%
71.82835820895522%
71.82835820895522%
71.82835820895522%
71.82835820895522%
71.82835820895522%
71.82835820895522%
71.82835820895522%
71.82835820895522%
71.82835820895522%
71.82835820895522%
71.82835820895522%
71.82835820895522%
71.82835820895522%
71.82835820895522%
71.82835820895522%
71.82835820895522%
71.82835820895522%
71.82835820895522%
71.82835820895522%
71.82835820895522%
71.82835820895522%
71.82835820895522%
71.82835820895522%
71.82835820895522%
71.82835820895522%
71.82835820895522%
71.82835820895522%
71.82835820895522%
71.82835820895522%
71.82835820895522%
71.82835820895522%
71.82835820895522%
71.82835820895522%
71.82835820895522%
71.82835820895522%
71.82835820895522%
71.82835820895522%
71.82835820895522%
71.82835820895522%
72.01492537313433%
72.01492537313433%
72.01492537313433%
72.01492537313433%
72.01492537313433%
72.01492537313433%
72.01492537313433%
72.01492537313433%
72.01492537313433%
72.01492537313433%
72.01492537313433%
72.01492537313433%
72.01492537313433%
72.01492537313433%
72.01492537313433%
72.01492537313433%
72.01492537313433%
72.01492537313433%
72.01492537313433%
72.01492537313433%
72.01492537313433%
72.01492537313433%
72.01492537313433%
72.01492537313433%
72.01492537313433%
72.01492537313433%
72.01492537313433%
72.01492537313433%
72.01492537313433%
72.01492537313433%
72.01492537313433%
72.01492537313433%
72.01492537313433%
72.01492537313433%
72.01492537313433%
72.01492537313433%
72.01492537313433%
72.01492537313433%
72.01492537313433%
72.01492537313433%
72.01492537313433%
72.01492537313433%
72.01492537313433%
72.01492537313433%
72.01492537313433%
72.01492537313433%
72.01492537313433%
72.01492537313433%
72.01492537313433%
72.01492537313433%
72.01492537313433%
72.01492537313433%
72.01492537313433%
72.01492537313433%
72.01492537313433%
72.01492537313433%
72.01492537313433%
72.01492537313433%
72.01492537313433%
72.01492537313433%
72.01492537313433%
72.01492537313433%
72.01492537313433%
72.01492537313433%
72.01492537313433%
72.01492537313433%
72.01492537313433%
72.01492537313433%
72.01492537313433%
72.01492537313433%
72.01492537313433%
72.01492537313433%
72.01492537313433%
72.01492537313433%
72.01492537313433%
72.01492537313433%
72.01492537313433%
72.01492537313433%
72.01492537313433%
72.01492537313433%
72.01492537313433%
72.01492537313433%
72.01492537313433%
72.01492537313433%
72.01492537313433%
72.01492537313433%
72.01492537313433%
72.01492537313433%
72.01492537313433%
72.01492537313433%
72.01492537313433%
72.01492537313433%
72.01492537313433%
72.01492537313433%
72.01492537313433%
72.01492537313433%
72.01492537313433%
72.01492537313433%
72.01492537313433%
72.01492537313433%
72.01492537313433%
72.01492537313433%
72.01492537313433%
72.01492537313433%
72.01492537313433%
72.01492537313433%
72.01492537313433%
72.01492537313433%
72.01492537313433%
72.01492537313433%
72.01492537313433%
72.01492537313433%
72.01492537313433%
72.01492537313433%
72.01492537313433%
72.01492537313433%
72.01492537313433%
72.01492537313433%
72.01492537313433%
72.01492537313433%
72.01492537313433%
72.01492537313433%
72.01492537313433%
72.01492537313433%
72.01492537313433%
72.01492537313433%
72.01492537313433%
72.01492537313433%
72.01492537313433%
72.01492537313433%
72.01492537313433%
72.01492537313433%
72.01492537313433%
72.01492537313433%
128840
