98.25119236883943%
96.34340222575517%
95.38950715421304%
94.11764705882352%
93.1637519872814%
93.64069952305246%
94.4356120826709%
93.48171701112878%
93.48171701112878%
93.64069952305246%
94.91255961844197%
95.38950715421304%
94.5945945945946%
93.0047694753577%
93.79968203497614%
93.95866454689984%
93.48171701112878%
93.32273449920508%
94.27662957074722%
94.75357710651828%
95.07154213036566%
96.97933227344993%
97.61526232114467%
94.11764705882352%
95.54848966613673%
97.45627980922097%
95.86645468998411%
95.07154213036566%
93.95866454689984%
93.32273449920508%
94.4356120826709%
95.38950715421304%
95.07154213036566%
96.34340222575517%
94.91255961844197%
95.38950715421304%
95.07154213036566%
95.38950715421304%
93.95866454689984%
94.4356120826709%
94.91255961844197%
94.5945945945946%
94.27662957074722%
93.79968203497614%
94.11764705882352%
95.07154213036566%
96.34340222575517%
97.45627980922097%
95.38950715421304%
94.91255961844197%
97.45627980922097%
96.50238473767885%
96.50238473767885%
95.70747217806041%
95.38950715421304%
95.70747217806041%
96.50238473767885%
96.97933227344993%
97.2972972972973%
96.66136724960255%
97.2972972972973%
96.02543720190779%
96.66136724960255%
94.91255961844197%
96.66136724960255%
96.50238473767885%
96.18441971383149%
95.70747217806041%
95.70747217806041%
96.18441971383149%
96.97933227344993%
96.97933227344993%
97.45627980922097%
95.86645468998411%
96.02543720190779%
97.77424483306835%
96.66136724960255%
96.66136724960255%
96.02543720190779%
95.23052464228935%
96.02543720190779%
96.97933227344993%
97.2972972972973%
96.97933227344993%
96.50238473767885%
96.50238473767885%
94.5945945945946%
95.07154213036566%
95.38950715421304%
96.34340222575517%
96.34340222575517%
96.50238473767885%
95.86645468998411%
95.86645468998411%
96.34340222575517%
96.66136724960255%
96.82034976152623%
97.61526232114467%
96.66136724960255%
96.02543720190779%
97.45627980922097%
96.50238473767885%
97.13831478537361%
96.02543720190779%
96.02543720190779%
96.18441971383149%
96.97933227344993%
96.97933227344993%
96.50238473767885%
96.50238473767885%
96.34340222575517%
94.27662957074722%
94.27662957074722%
94.75357710651828%
95.86645468998411%
96.34340222575517%
96.02543720190779%
94.4356120826709%
93.64069952305246%
95.70747217806041%
96.34340222575517%
96.50238473767885%
97.45627980922097%
96.82034976152623%
97.45627980922097%
96.66136724960255%
94.75357710651828%
96.18441971383149%
96.66136724960255%
96.18441971383149%
96.66136724960255%
95.86645468998411%
96.02543720190779%
96.34340222575517%
95.54848966613673%
95.70747217806041%
92.68680445151033%
93.0047694753577%
94.75357710651828%
95.86645468998411%
95.86645468998411%
95.54848966613673%
91.09697933227345%
89.1891891891892%
93.1637519872814%
95.54848966613673%
96.02543720190779%
97.61526232114467%
96.97933227344993%
97.13831478537361%
94.75357710651828%
93.79968203497614%
94.5945945945946%
95.38950715421304%
95.54848966613673%
96.50238473767885%
95.86645468998411%
95.23052464228935%
94.91255961844197%
95.23052464228935%
94.27662957074722%
91.41494435612083%
92.05087440381558%
94.11764705882352%
95.23052464228935%
93.32273449920508%
93.0047694753577%
84.57869634340223%
81.55802861685216%
87.44038155802862%
91.57392686804452%
92.68680445151033%
94.5945945945946%
94.4356120826709%
95.07154213036566%
91.8918918918919%
89.66613672496025%
93.0047694753577%
94.27662957074722%
94.27662957074722%
94.91255961844197%
94.11764705882352%
94.11764705882352%
93.0047694753577%
94.5945945945946%
94.4356120826709%
91.41494435612083%
91.41494435612083%
94.11764705882352%
93.48171701112878%
89.66613672496025%
87.44038155802862%
78.53736089030207%
76.47058823529412%
80.44515103338632%
87.44038155802862%
85.69157392686805%
89.82511923688395%
92.84578696343402%
90.62003179650239%
90.62003179650239%
82.1939586645469%
89.1891891891892%
93.32273449920508%
93.64069952305246%
91.57392686804452%
91.41494435612083%
90.93799682034977%
90.30206677265501%
91.41494435612083%
91.57392686804452%
89.82511923688395%
88.87122416534181%
91.8918918918919%
87.91732909379968%
79.96820349761526%
78.85532591414945%
70.74721780604133%
69.15739268680446%
78.53736089030207%
88.23529411764706%
86.00953895071542%
88.87122416534181%
92.20985691573927%
88.39427662957074%
86.80445151033386%
74.40381558028616%
80.12718600953896%
88.87122416534181%
91.57392686804452%
89.82511923688395%
86.80445151033386%
87.28139904610492%
85.37360890302067%
87.75834658187598%
85.53259141494436%
85.05564387917329%
83.78378378378379%
86.64546899841018%
80.9220985691574%
72.17806041335453%
71.54213036565977%
65.02384737678855%
64.06995230524643%
77.42448330683625%
88.07631160572336%
84.73767885532591%
87.75834658187598%
91.41494435612083%
87.12241653418124%
89.1891891891892%
74.56279809220986%
81.87599364069952%
87.28139904610492%
91.7329093799682%
86.3275039745628%
83.30683624801271%
82.67090620031796%
80.9220985691574%
81.55802861685216%
80.28616852146264%
84.10174880763115%
84.41971383147853%
82.0349761526232%
72.81399046104929%
64.54689984101749%
63.910969793322735%
62.79809220985692%
62.32114467408585%
78.060413354531%
88.07631160572336%
84.10174880763115%
86.3275039745628%
91.7329093799682%
86.3275039745628%
89.66613672496025%
79.65023847376789%
83.46581875993641%
83.46581875993641%
88.23529411764706%
77.74244833068363%
73.13195548489666%
70.90620031796503%
69.79332273449921%
71.54213036565977%
69.31637519872814%
77.26550079491255%
75.03974562798092%
70.58823529411765%
61.04928457869634%
59.30047694753577%
59.45945945945946%
58.66454689984102%
58.028616852146264%
75.19872813990462%
82.67090620031796%
85.85055643879174%
87.28139904610492%
92.68680445151033%
88.55325914149444%
92.20985691573927%
81.08108108108108%
85.85055643879174%
84.73767885532591%
87.44038155802862%
73.29093799682035%
69.9523052464229%
67.56756756756756%
64.22893481717011%
65.81875993640699%
64.70588235294117%
69.79332273449921%
70.58823529411765%
64.70588235294117%
58.028616852146264%
56.120826709062%
56.43879173290938%
57.710651828298886%
57.23370429252782%
75.19872813990462%
80.60413354531002%
86.00953895071542%
87.5993640699523%
93.64069952305246%
89.82511923688395%
92.05087440381558%
84.41971383147853%
87.91732909379968%
84.73767885532591%
86.64546899841018%
72.81399046104929%
71.70111287758345%
68.5214626391097%
66.29570747217805%
66.77265500794913%
65.97774244833067%
69.15739268680446%
68.20349761526232%
64.06995230524643%
59.77742448330684%
58.66454689984102%
59.14149443561209%
59.14149443561209%
61.04928457869634%
79.01430842607313%
82.51192368839428%
85.21462639109699%
87.44038155802862%
92.84578696343402%
90.77901430842607%
94.5945945945946%
88.71224165341812%
90.46104928457869%
85.53259141494436%
87.5993640699523%
75.99364069952306%
75.03974562798092%
71.2241653418124%
69.47535771065183%
69.79332273449921%
68.5214626391097%
73.76788553259142%
73.60890302066773%
68.362480127186%
62.63910969793323%
60.89030206677265%
63.751987281399046%
64.22893481717011%
65.65977742448331%
79.96820349761526%
83.94276629570747%
88.07631160572336%
88.39427662957074%
93.64069952305246%
93.79968203497614%
94.4356120826709%
90.14308426073131%
90.14308426073131%
86.48648648648648%
88.23529411764706%
79.65023847376789%
79.01430842607313%
76.6295707472178%
74.88076311605724%
75.3577106518283%
74.40381558028616%
77.10651828298887%
76.31160572337043%
74.24483306836248%
71.86009538950715%
70.58823529411765%
69.79332273449921%
68.99841017488076%
71.86009538950715%
82.0349761526232%
83.6248012718601%
89.0302066772655%
90.62003179650239%
94.4356120826709%
95.86645468998411%
96.66136724960255%
93.0047694753577%
93.1637519872814%
91.8918918918919%
92.84578696343402%
85.05564387917329%
86.00953895071542%
83.78378378378379%
81.71701112877582%
79.4912559618442%
79.65023847376789%
82.98887122416534%
82.82988871224165%
81.71701112877582%
80.7631160572337%
79.3322734499205%
78.53736089030207%
76.7885532591415%
77.90143084260731%
86.16852146263912%
87.44038155802862%
92.36883942766295%
93.1637519872814%
96.66136724960255%
96.50238473767885%
97.77424483306835%
95.07154213036566%
95.38950715421304%
93.48171701112878%
94.11764705882352%
89.34817170111288%
89.1891891891892%
88.55325914149444%
86.96343402225754%
84.73767885532591%
83.94276629570747%
86.3275039745628%
87.12241653418124%
85.53259141494436%
85.53259141494436%
86.16852146263912%
86.00953895071542%
82.82988871224165%
84.41971383147853%
89.50715421303657%
90.46104928457869%
94.27662957074722%
95.23052464228935%
96.66136724960255%
97.45627980922097%
97.77424483306835%
96.02543720190779%
96.66136724960255%
95.54848966613673%
95.86645468998411%
93.64069952305246%
92.36883942766295%
90.93799682034977%
90.14308426073131%
88.71224165341812%
86.80445151033386%
89.98410174880763%
90.93799682034977%
90.46104928457869%
90.93799682034977%
91.7329093799682%
90.46104928457869%
88.23529411764706%
88.71224165341812%
92.68680445151033%
93.32273449920508%
96.82034976152623%
96.34340222575517%
98.72813990461049%
98.09220985691573%
97.45627980922097%
96.34340222575517%
96.97933227344993%
96.66136724960255%
96.34340222575517%
95.86645468998411%
95.38950715421304%
93.95866454689984%
93.48171701112878%
91.25596184419715%
90.30206677265501%
91.57392686804452%
90.77901430842607%
91.57392686804452%
91.8918918918919%
92.36883942766295%
91.57392686804452%
90.62003179650239%
90.93799682034977%
93.48171701112878%
93.79968203497614%
96.82034976152623%
96.34340222575517%
98.41017488076311%
98.72813990461049%
98.25119236883943%
97.45627980922097%
97.61526232114467%
97.77424483306835%
97.13831478537361%
96.34340222575517%
96.02543720190779%
96.34340222575517%
95.54848966613673%
93.1637519872814%
93.0047694753577%
92.84578696343402%
93.32273449920508%
92.68680445151033%
93.32273449920508%
93.48171701112878%
93.0047694753577%
92.05087440381558%
92.20985691573927%
93.64069952305246%
94.75357710651828%
97.61526232114467%
97.45627980922097%
98.41017488076311%
98.25119236883943%
98.25119236883943%
97.13831478537361%
97.93322734499205%
98.09220985691573%
97.2972972972973%
97.2972972972973%
97.2972972972973%
96.82034976152623%
96.66136724960255%
94.75357710651828%
93.95866454689984%
93.32273449920508%
93.64069952305246%
93.79968203497614%
94.27662957074722%
94.11764705882352%
93.32273449920508%
92.68680445151033%
92.52782193958664%
93.95866454689984%
95.38950715421304%
98.09220985691573%
98.41017488076311%
98.88712241653418%
98.25119236883943%
97.45627980922097%
97.2972972972973%
97.45627980922097%
97.61526232114467%
97.93322734499205%
97.77424483306835%
97.93322734499205%
97.61526232114467%
97.93322734499205%
96.02543720190779%
95.70747217806041%
94.11764705882352%
93.79968203497614%
93.95866454689984%
95.23052464228935%
95.54848966613673%
94.5945945945946%
94.4356120826709%
93.79968203497614%
94.75357710651828%
95.54848966613673%
98.41017488076311%
98.72813990461049%
99.04610492845786%
98.72813990461049%
97.13831478537361%
96.34340222575517%
97.45627980922097%
98.09220985691573%
97.61526232114467%
98.72813990461049%
98.72813990461049%
98.5691573926868%
98.88712241653418%
97.13831478537361%
95.86645468998411%
93.95866454689984%
93.79968203497614%
93.0047694753577%
93.48171701112878%
93.48171701112878%
93.32273449920508%
93.95866454689984%
93.79968203497614%
95.38950715421304%
96.18441971383149%
98.72813990461049%
99.04610492845786%
99.20508744038156%
98.41017488076311%
96.82034976152623%
95.38950715421304%
95.86645468998411%
97.61526232114467%
98.09220985691573%
98.25119236883943%
98.41017488076311%
98.5691573926868%
98.72813990461049%
96.02543720190779%
95.07154213036566%
91.8918918918919%
91.7329093799682%
91.09697933227345%
91.09697933227345%
91.41494435612083%
91.7329093799682%
93.48171701112878%
93.64069952305246%
94.75357710651828%
96.18441971383149%
98.72813990461049%
98.88712241653418%
99.84101748807632%
98.88712241653418%
41847
