100.0%
99.20508744038156%
98.5691573926868%
96.18441971383149%
96.02543720190779%
97.2972972972973%
99.52305246422894%
99.52305246422894%
96.50238473767885%
85.53259141494436%
95.70747217806041%
85.85055643879174%
91.25596184419715%
90.46104928457869%
95.07154213036566%
84.57869634340223%
85.53259141494436%
82.51192368839428%
79.96820349761526%
86.96343402225754%
76.6295707472178%
88.71224165341812%
88.23529411764706%
96.18441971383149%
92.84578696343402%
92.84578696343402%
92.84578696343402%
89.34817170111288%
86.3275039745628%
80.9220985691574%
72.97297297297297%
74.56279809220986%
85.53259141494436%
88.87122416534181%
84.26073131955485%
95.07154213036566%
88.39427662957074%
80.7631160572337%
80.9220985691574%
70.74721780604133%
71.06518282988871%
71.38314785373609%
87.5993640699523%
92.68680445151033%
65.18282988871225%
65.34181240063593%
65.81875993640699%
73.13195548489666%
74.72178060413354%
80.60413354531002%
72.01907790143083%
79.17329093799682%
79.01430842607313%
77.42448330683625%
65.02384737678855%
65.02384737678855%
65.02384737678855%
64.70588235294117%
68.5214626391097%
75.67567567567568%
71.54213036565977%
64.3879173290938%
69.15739268680446%
68.99841017488076%
72.81399046104929%
72.97297297297297%
68.5214626391097%
65.65977742448331%
66.77265500794913%
64.3879173290938%
64.54689984101749%
64.3879173290938%
64.3879173290938%
64.3879173290938%
65.18282988871225%
87.91732909379968%
64.3879173290938%
66.61367249602543%
67.0906200317965%
68.20349761526232%
67.40858505564388%
66.29570747217805%
71.70111287758345%
73.13195548489666%
71.86009538950715%
76.31160572337043%
80.12718600953896%
71.70111287758345%
77.74244833068363%
79.4912559618442%
64.3879173290938%
67.0906200317965%
67.24960254372019%
64.70588235294117%
64.3879173290938%
64.70588235294117%
64.3879173290938%
64.3879173290938%
64.3879173290938%
64.3879173290938%
64.3879173290938%
64.3879173290938%
65.18282988871225%
65.34181240063593%
65.18282988871225%
64.3879173290938%
64.3879173290938%
64.3879173290938%
64.3879173290938%
65.34181240063593%
64.54689984101749%
64.70588235294117%
64.3879173290938%
68.362480127186%
64.54689984101749%
64.3879173290938%
64.3879173290938%
65.97774244833067%
64.3879173290938%
65.02384737678855%
64.3879173290938%
64.3879173290938%
64.3879173290938%
64.3879173290938%
64.3879173290938%
64.3879173290938%
64.3879173290938%
64.3879173290938%
64.86486486486487%
64.70588235294117%
65.65977742448331%
65.50079491255963%
64.54689984101749%
64.86486486486487%
65.65977742448331%
64.3879173290938%
65.97774244833067%
68.5214626391097%
74.24483306836248%
79.17329093799682%
64.70588235294117%
64.3879173290938%
64.3879173290938%
64.3879173290938%
65.18282988871225%
64.3879173290938%
70.90620031796503%
92.68680445151033%
67.40858505564388%
64.3879173290938%
67.56756756756756%
68.83942766295708%
74.56279809220986%
74.40381558028616%
81.39904610492846%
70.58823529411765%
70.11128775834659%
64.3879173290938%
64.3879173290938%
64.54689984101749%
89.66613672496025%
64.70588235294117%
65.18282988871225%
65.34181240063593%
64.3879173290938%
64.3879173290938%
64.3879173290938%
64.3879173290938%
64.3879173290938%
64.3879173290938%
64.54689984101749%
64.3879173290938%
64.3879173290938%
64.3879173290938%
64.3879173290938%
81.55802861685216%
84.8966613672496%
68.5214626391097%
75.99364069952306%
79.96820349761526%
76.31160572337043%
68.68044515103338%
75.516693163752%
75.516693163752%
70.74721780604133%
71.06518282988871%
74.0858505564388%
76.47058823529412%
68.99841017488076%
70.42925278219397%
75.67567567567568%
65.65977742448331%
83.14785373608903%
90.62003179650239%
91.25596184419715%
68.83942766295708%
67.72655007949126%
73.44992050874404%
86.3275039745628%
91.7329093799682%
95.86645468998411%
96.50238473767885%
96.82034976152623%
96.18441971383149%
95.54848966613673%
64.3879173290938%
64.3879173290938%
68.5214626391097%
65.02384737678855%
66.61367249602543%
64.3879173290938%
64.3879173290938%
64.3879173290938%
64.3879173290938%
80.7631160572337%
74.88076311605724%
72.65500794912559%
64.3879173290938%
73.13195548489666%
79.65023847376789%
64.54689984101749%
66.29570747217805%
64.3879173290938%
64.3879173290938%
64.3879173290938%
64.3879173290938%
64.3879173290938%
73.60890302066773%
90.93799682034977%
64.3879173290938%
64.3879173290938%
64.3879173290938%
64.3879173290938%
64.3879173290938%
64.3879173290938%
64.3879173290938%
65.02384737678855%
65.02384737678855%
65.97774244833067%
64.3879173290938%
64.70588235294117%
64.54689984101749%
65.50079491255963%
64.86486486486487%
64.3879173290938%
64.3879173290938%
69.31637519872814%
67.72655007949126%
73.13195548489666%
64.3879173290938%
64.3879173290938%
64.3879173290938%
64.3879173290938%
64.3879173290938%
64.3879173290938%
65.65977742448331%
65.50079491255963%
73.44992050874404%
64.3879173290938%
64.3879173290938%
64.3879173290938%
64.3879173290938%
64.54689984101749%
64.3879173290938%
64.3879173290938%
80.12718600953896%
72.97297297297297%
67.72655007949126%
66.77265500794913%
64.86486486486487%
64.3879173290938%
64.3879173290938%
64.3879173290938%
64.70588235294117%
64.70588235294117%
64.3879173290938%
64.3879173290938%
64.3879173290938%
64.3879173290938%
64.3879173290938%
64.22893481717011%
65.18282988871225%
64.3879173290938%
64.3879173290938%
64.3879173290938%
64.3879173290938%
64.3879173290938%
64.54689984101749%
64.70588235294117%
64.3879173290938%
76.47058823529412%
64.3879173290938%
64.3879173290938%
64.3879173290938%
64.3879173290938%
64.3879173290938%
64.70588235294117%
64.54689984101749%
68.99841017488076%
65.50079491255963%
64.70588235294117%
64.3879173290938%
64.3879173290938%
64.3879173290938%
64.54689984101749%
64.3879173290938%
64.3879173290938%
64.3879173290938%
64.3879173290938%
64.3879173290938%
64.3879173290938%
64.54689984101749%
64.54689984101749%
65.18282988871225%
64.3879173290938%
65.18282988871225%
70.74721780604133%
67.0906200317965%
65.18282988871225%
65.65977742448331%
74.88076311605724%
64.3879173290938%
64.3879173290938%
64.3879173290938%
64.3879173290938%
65.18282988871225%
65.02384737678855%
65.02384737678855%
65.34181240063593%
64.3879173290938%
64.3879173290938%
64.3879173290938%
64.70588235294117%
64.3879173290938%
64.86486486486487%
67.24960254372019%
71.86009538950715%
68.5214626391097%
68.5214626391097%
64.3879173290938%
64.3879173290938%
66.45468998410175%
65.34181240063593%
66.61367249602543%
66.29570747217805%
65.02384737678855%
65.18282988871225%
64.3879173290938%
64.3879173290938%
64.3879173290938%
64.3879173290938%
64.3879173290938%
64.3879173290938%
64.3879173290938%
64.3879173290938%
64.3879173290938%
64.3879173290938%
64.3879173290938%
64.3879173290938%
64.3879173290938%
67.0906200317965%
64.3879173290938%
64.3879173290938%
64.3879173290938%
64.86486486486487%
65.50079491255963%
89.34817170111288%
88.07631160572336%
86.48648648648648%
69.9523052464229%
71.2241653418124%
70.42925278219397%
69.15739268680446%
64.22893481717011%
69.63434022257552%
64.54689984101749%
65.50079491255963%
64.54689984101749%
64.54689984101749%
64.70588235294117%
64.3879173290938%
64.70588235294117%
64.3879173290938%
64.3879173290938%
64.3879173290938%
64.3879173290938%
64.3879173290938%
64.3879173290938%
64.3879173290938%
64.3879173290938%
65.18282988871225%
73.29093799682035%
64.3879173290938%
64.54689984101749%
64.3879173290938%
64.3879173290938%
64.86486486486487%
66.13672496025437%
65.97774244833067%
78.53736089030207%
64.54689984101749%
64.3879173290938%
66.45468998410175%
66.61367249602543%
64.3879173290938%
64.54689984101749%
66.61367249602543%
64.3879173290938%
64.3879173290938%
64.3879173290938%
64.3879173290938%
64.3879173290938%
64.3879173290938%
64.3879173290938%
64.3879173290938%
64.3879173290938%
64.3879173290938%
64.70588235294117%
64.3879173290938%
64.3879173290938%
64.3879173290938%
64.3879173290938%
64.3879173290938%
64.3879173290938%
64.3879173290938%
64.3879173290938%
64.3879173290938%
64.3879173290938%
64.3879173290938%
64.3879173290938%
64.3879173290938%
64.3879173290938%
64.3879173290938%
64.3879173290938%
64.3879173290938%
64.3879173290938%
64.3879173290938%
64.3879173290938%
64.3879173290938%
64.3879173290938%
64.3879173290938%
64.3879173290938%
64.3879173290938%
64.3879173290938%
64.3879173290938%
64.3879173290938%
64.3879173290938%
64.3879173290938%
64.3879173290938%
64.3879173290938%
64.3879173290938%
64.3879173290938%
64.3879173290938%
65.02384737678855%
64.3879173290938%
64.3879173290938%
64.3879173290938%
64.3879173290938%
64.3879173290938%
64.3879173290938%
64.3879173290938%
64.3879173290938%
64.3879173290938%
64.3879173290938%
64.3879173290938%
64.3879173290938%
64.3879173290938%
64.3879173290938%
64.3879173290938%
64.3879173290938%
64.3879173290938%
64.3879173290938%
64.3879173290938%
64.3879173290938%
64.3879173290938%
64.3879173290938%
89.0302066772655%
72.01907790143083%
64.3879173290938%
64.3879173290938%
64.3879173290938%
64.3879173290938%
64.3879173290938%
64.3879173290938%
64.3879173290938%
64.3879173290938%
64.3879173290938%
64.3879173290938%
64.3879173290938%
64.3879173290938%
64.3879173290938%
64.3879173290938%
64.3879173290938%
64.3879173290938%
64.3879173290938%
64.3879173290938%
64.3879173290938%
64.3879173290938%
64.3879173290938%
75.19872813990462%
64.86486486486487%
64.86486486486487%
64.3879173290938%
64.3879173290938%
70.90620031796503%
67.24960254372019%
64.3879173290938%
64.3879173290938%
65.34181240063593%
64.3879173290938%
64.3879173290938%
64.3879173290938%
64.3879173290938%
64.3879173290938%
64.3879173290938%
64.3879173290938%
64.86486486486487%
64.3879173290938%
64.3879173290938%
64.3879173290938%
64.3879173290938%
64.3879173290938%
64.3879173290938%
64.3879173290938%
64.3879173290938%
64.3879173290938%
64.3879173290938%
64.3879173290938%
64.3879173290938%
64.3879173290938%
64.3879173290938%
64.3879173290938%
64.3879173290938%
64.3879173290938%
64.3879173290938%
64.3879173290938%
64.3879173290938%
64.3879173290938%
65.50079491255963%
64.3879173290938%
64.3879173290938%
64.3879173290938%
64.3879173290938%
64.3879173290938%
79.01430842607313%
64.22893481717011%
64.3879173290938%
64.3879173290938%
64.3879173290938%
64.3879173290938%
64.3879173290938%
64.3879173290938%
64.3879173290938%
64.3879173290938%
64.3879173290938%
64.3879173290938%
64.3879173290938%
64.3879173290938%
64.3879173290938%
64.3879173290938%
64.3879173290938%
64.3879173290938%
64.3879173290938%
65.34181240063593%
65.18282988871225%
64.3879173290938%
65.18282988871225%
64.70588235294117%
64.70588235294117%
64.3879173290938%
64.3879173290938%
64.3879173290938%
64.3879173290938%
64.3879173290938%
64.3879173290938%
64.3879173290938%
64.3879173290938%
64.3879173290938%
64.3879173290938%
64.3879173290938%
64.3879173290938%
64.3879173290938%
64.3879173290938%
64.3879173290938%
64.3879173290938%
64.3879173290938%
64.3879173290938%
64.3879173290938%
64.3879173290938%
64.3879173290938%
64.3879173290938%
64.3879173290938%
64.3879173290938%
64.3879173290938%
64.3879173290938%
64.3879173290938%
64.3879173290938%
64.3879173290938%
64.3879173290938%
64.3879173290938%
64.3879173290938%
64.3879173290938%
64.3879173290938%
64.3879173290938%
64.3879173290938%
64.3879173290938%
64.3879173290938%
64.3879173290938%
64.3879173290938%
64.3879173290938%
64.3879173290938%
64.3879173290938%
64.3879173290938%
64.3879173290938%
64.3879173290938%
64.3879173290938%
64.3879173290938%
64.3879173290938%
64.3879173290938%
64.3879173290938%
64.3879173290938%
64.3879173290938%
64.3879173290938%
64.3879173290938%
64.3879173290938%
64.3879173290938%
64.3879173290938%
64.3879173290938%
64.3879173290938%
64.3879173290938%
64.3879173290938%
64.3879173290938%
64.3879173290938%
64.3879173290938%
64.3879173290938%
64.3879173290938%
64.3879173290938%
64.3879173290938%
64.3879173290938%
65.02384737678855%
65.34181240063593%
65.18282988871225%
64.70588235294117%
64.86486486486487%
64.54689984101749%
65.34181240063593%
64.3879173290938%
64.3879173290938%
64.3879173290938%
64.3879173290938%
64.3879173290938%
64.3879173290938%
64.3879173290938%
64.3879173290938%
64.3879173290938%
64.3879173290938%
64.3879173290938%
64.3879173290938%
64.3879173290938%
64.3879173290938%
64.3879173290938%
64.3879173290938%
64.3879173290938%
64.3879173290938%
64.3879173290938%
64.3879173290938%
64.3879173290938%
64.3879173290938%
64.3879173290938%
64.3879173290938%
64.3879173290938%
64.3879173290938%
64.3879173290938%
64.3879173290938%
64.3879173290938%
64.3879173290938%
64.3879173290938%
64.3879173290938%
64.3879173290938%
64.3879173290938%
65.02384737678855%
65.18282988871225%
64.3879173290938%
64.3879173290938%
64.3879173290938%
64.3879173290938%
64.3879173290938%
64.3879173290938%
64.3879173290938%
64.3879173290938%
64.3879173290938%
64.3879173290938%
64.3879173290938%
64.3879173290938%
64.3879173290938%
64.3879173290938%
64.3879173290938%
64.3879173290938%
64.3879173290938%
64.3879173290938%
64.3879173290938%
64.3879173290938%
64.3879173290938%
64.3879173290938%
64.3879173290938%
64.3879173290938%
64.3879173290938%
64.3879173290938%
64.3879173290938%
64.3879173290938%
64.3879173290938%
64.3879173290938%
64.3879173290938%
64.3879173290938%
64.3879173290938%
64.3879173290938%
64.3879173290938%
64.3879173290938%
64.3879173290938%
64.3879173290938%
64.3879173290938%
64.3879173290938%
64.3879173290938%
64.3879173290938%
64.3879173290938%
64.3879173290938%
64.3879173290938%
64.3879173290938%
64.3879173290938%
64.3879173290938%
64.3879173290938%
64.3879173290938%
64.3879173290938%
64.3879173290938%
64.3879173290938%
64.3879173290938%
64.3879173290938%
64.3879173290938%
64.3879173290938%
64.3879173290938%
64.3879173290938%
64.3879173290938%
64.3879173290938%
64.3879173290938%
64.3879173290938%
64.3879173290938%
64.3879173290938%
64.3879173290938%
64.3879173290938%
64.3879173290938%
64.3879173290938%
64.3879173290938%
64.3879173290938%
64.3879173290938%
64.3879173290938%
64.3879173290938%
64.3879173290938%
64.3879173290938%
64.3879173290938%
64.3879173290938%
64.3879173290938%
64.3879173290938%
64.3879173290938%
64.3879173290938%
64.3879173290938%
64.3879173290938%
64.3879173290938%
64.3879173290938%
64.3879173290938%
64.3879173290938%
64.3879173290938%
64.3879173290938%
64.3879173290938%
64.3879173290938%
64.3879173290938%
64.3879173290938%
64.3879173290938%
64.3879173290938%
64.3879173290938%
64.3879173290938%
64.3879173290938%
64.3879173290938%
64.3879173290938%
64.3879173290938%
40870
