100.0%
100.0%
100.0%
100.0%
100.0%
100.0%
100.0%
100.0%
100.0%
99.36406995230524%
97.77424483306835%
96.18441971383149%
95.07154213036566%
95.23052464228935%
95.07154213036566%
94.91255961844197%
94.91255961844197%
94.91255961844197%
94.91255961844197%
94.4356120826709%
92.36883942766295%
93.48171701112878%
92.05087440381558%
92.36883942766295%
88.87122416534181%
88.55325914149444%
88.55325914149444%
86.64546899841018%
86.64546899841018%
86.80445151033386%
85.53259141494436%
85.69157392686805%
82.67090620031796%
84.41971383147853%
84.26073131955485%
84.10174880763115%
83.94276629570747%
83.14785373608903%
83.14785373608903%
83.14785373608903%
83.14785373608903%
82.98887122416534%
83.6248012718601%
80.9220985691574%
79.65023847376789%
79.65023847376789%
80.28616852146264%
80.44515103338632%
78.53736089030207%
78.85532591414945%
79.01430842607313%
79.01430842607313%
79.01430842607313%
78.85532591414945%
77.90143084260731%
77.90143084260731%
77.58346581875993%
77.58346581875993%
78.53736089030207%
77.90143084260731%
77.74244833068363%
78.21939586645469%
78.37837837837837%
78.37837837837837%
78.21939586645469%
78.060413354531%
77.42448330683625%
72.01907790143083%
68.83942766295708%
68.04451510333863%
68.20349761526232%
68.04451510333863%
68.04451510333863%
68.362480127186%
68.68044515103338%
69.15739268680446%
68.362480127186%
68.83942766295708%
68.83942766295708%
68.83942766295708%
68.83942766295708%
68.83942766295708%
68.83942766295708%
68.83942766295708%
68.83942766295708%
68.20349761526232%
68.5214626391097%
68.5214626391097%
68.362480127186%
68.04451510333863%
68.20349761526232%
68.20349761526232%
68.20349761526232%
66.61367249602543%
66.29570747217805%
66.29570747217805%
66.45468998410175%
66.45468998410175%
66.45468998410175%
66.13672496025437%
66.13672496025437%
66.13672496025437%
66.45468998410175%
66.29570747217805%
66.29570747217805%
66.13672496025437%
66.29570747217805%
66.29570747217805%
66.29570747217805%
66.29570747217805%
66.61367249602543%
66.45468998410175%
66.61367249602543%
66.29570747217805%
65.34181240063593%
65.34181240063593%
65.34181240063593%
65.50079491255963%
65.34181240063593%
65.50079491255963%
65.50079491255963%
65.50079491255963%
65.50079491255963%
65.34181240063593%
65.34181240063593%
65.81875993640699%
65.65977742448331%
65.65977742448331%
66.29570747217805%
66.29570747217805%
66.29570747217805%
66.29570747217805%
66.61367249602543%
66.61367249602543%
66.61367249602543%
66.61367249602543%
66.61367249602543%
66.61367249602543%
66.61367249602543%
66.61367249602543%
66.93163751987281%
66.93163751987281%
66.93163751987281%
66.77265500794913%
67.72655007949126%
67.88553259141494%
67.72655007949126%
67.72655007949126%
67.0906200317965%
67.40858505564388%
67.0906200317965%
66.61367249602543%
65.97774244833067%
66.13672496025437%
66.93163751987281%
66.93163751987281%
66.93163751987281%
66.93163751987281%
66.93163751987281%
66.77265500794913%
66.77265500794913%
66.77265500794913%
67.0906200317965%
67.0906200317965%
67.0906200317965%
66.77265500794913%
66.61367249602543%
66.61367249602543%
66.61367249602543%
66.61367249602543%
66.61367249602543%
66.61367249602543%
66.61367249602543%
66.61367249602543%
66.61367249602543%
66.61367249602543%
66.61367249602543%
66.61367249602543%
66.77265500794913%
66.77265500794913%
66.77265500794913%
66.77265500794913%
66.77265500794913%
66.77265500794913%
66.77265500794913%
66.77265500794913%
67.0906200317965%
66.93163751987281%
67.40858505564388%
66.93163751987281%
66.61367249602543%
66.77265500794913%
66.77265500794913%
66.77265500794913%
66.93163751987281%
66.93163751987281%
66.77265500794913%
66.77265500794913%
66.93163751987281%
66.93163751987281%
66.93163751987281%
66.93163751987281%
66.93163751987281%
66.93163751987281%
67.0906200317965%
66.61367249602543%
66.77265500794913%
66.13672496025437%
66.93163751987281%
67.24960254372019%
67.0906200317965%
66.93163751987281%
66.93163751987281%
66.93163751987281%
66.93163751987281%
67.0906200317965%
66.93163751987281%
67.0906200317965%
67.24960254372019%
67.24960254372019%
67.24960254372019%
67.24960254372019%
67.24960254372019%
67.24960254372019%
67.24960254372019%
67.24960254372019%
67.24960254372019%
67.72655007949126%
67.40858505564388%
67.24960254372019%
67.24960254372019%
67.40858505564388%
67.40858505564388%
67.40858505564388%
67.56756756756756%
67.72655007949126%
67.40858505564388%
67.40858505564388%
67.24960254372019%
67.40858505564388%
67.56756756756756%
67.56756756756756%
67.72655007949126%
67.88553259141494%
67.88553259141494%
67.88553259141494%
68.20349761526232%
68.20349761526232%
68.20349761526232%
68.362480127186%
68.362480127186%
68.362480127186%
68.362480127186%
68.362480127186%
68.20349761526232%
68.362480127186%
68.362480127186%
68.04451510333863%
68.04451510333863%
68.04451510333863%
68.04451510333863%
68.20349761526232%
68.04451510333863%
68.20349761526232%
68.20349761526232%
68.04451510333863%
68.20349761526232%
68.20349761526232%
68.20349761526232%
68.20349761526232%
68.68044515103338%
68.68044515103338%
68.68044515103338%
68.99841017488076%
68.99841017488076%
69.15739268680446%
69.15739268680446%
69.15739268680446%
69.15739268680446%
69.15739268680446%
69.15739268680446%
69.15739268680446%
68.99841017488076%
68.04451510333863%
69.31637519872814%
69.31637519872814%
70.11128775834659%
70.11128775834659%
70.11128775834659%
70.42925278219397%
70.42925278219397%
70.11128775834659%
70.11128775834659%
70.11128775834659%
70.27027027027027%
70.27027027027027%
70.42925278219397%
70.27027027027027%
70.27027027027027%
70.27027027027027%
70.58823529411765%
70.11128775834659%
70.11128775834659%
70.42925278219397%
70.42925278219397%
72.97297297297297%
73.29093799682035%
72.49602543720191%
72.81399046104929%
72.33704292527821%
71.86009538950715%
72.01907790143083%
72.17806041335453%
72.33704292527821%
72.49602543720191%
72.49602543720191%
73.13195548489666%
72.81399046104929%
73.13195548489666%
73.60890302066773%
72.97297297297297%
72.81399046104929%
72.33704292527821%
72.65500794912559%
72.65500794912559%
70.90620031796503%
70.90620031796503%
70.90620031796503%
71.06518282988871%
71.2241653418124%
71.2241653418124%
71.2241653418124%
71.2241653418124%
71.2241653418124%
71.38314785373609%
71.38314785373609%
71.06518282988871%
70.90620031796503%
71.2241653418124%
71.38314785373609%
71.38314785373609%
71.38314785373609%
71.38314785373609%
71.86009538950715%
71.70111287758345%
71.70111287758345%
71.06518282988871%
71.06518282988871%
71.54213036565977%
72.49602543720191%
72.49602543720191%
72.49602543720191%
72.49602543720191%
72.01907790143083%
72.01907790143083%
72.81399046104929%
72.81399046104929%
72.49602543720191%
72.17806041335453%
72.33704292527821%
72.01907790143083%
70.74721780604133%
71.54213036565977%
71.06518282988871%
70.90620031796503%
71.06518282988871%
71.06518282988871%
71.06518282988871%
71.06518282988871%
71.38314785373609%
71.38314785373609%
71.38314785373609%
71.38314785373609%
71.38314785373609%
70.90620031796503%
71.06518282988871%
71.06518282988871%
70.90620031796503%
71.06518282988871%
71.06518282988871%
71.2241653418124%
71.2241653418124%
71.2241653418124%
70.90620031796503%
71.2241653418124%
72.33704292527821%
72.81399046104929%
72.49602543720191%
72.33704292527821%
72.49602543720191%
72.33704292527821%
72.81399046104929%
72.01907790143083%
72.17806041335453%
72.17806041335453%
71.86009538950715%
71.54213036565977%
71.38314785373609%
71.54213036565977%
71.86009538950715%
72.01907790143083%
71.70111287758345%
71.70111287758345%
71.70111287758345%
71.70111287758345%
71.70111287758345%
71.54213036565977%
70.58823529411765%
70.58823529411765%
71.2241653418124%
71.2241653418124%
71.06518282988871%
71.06518282988871%
71.06518282988871%
71.06518282988871%
71.06518282988871%
71.2241653418124%
71.06518282988871%
70.90620031796503%
71.2241653418124%
71.06518282988871%
70.90620031796503%
71.06518282988871%
71.06518282988871%
71.06518282988871%
70.74721780604133%
70.90620031796503%
71.06518282988871%
71.06518282988871%
71.86009538950715%
71.86009538950715%
71.86009538950715%
71.86009538950715%
71.38314785373609%
71.70111287758345%
71.38314785373609%
71.38314785373609%
71.2241653418124%
71.54213036565977%
71.54213036565977%
71.54213036565977%
71.54213036565977%
71.38314785373609%
71.38314785373609%
71.38314785373609%
71.2241653418124%
71.54213036565977%
71.38314785373609%
71.38314785373609%
71.38314785373609%
71.38314785373609%
71.54213036565977%
71.54213036565977%
71.38314785373609%
71.38314785373609%
71.38314785373609%
71.38314785373609%
71.38314785373609%
71.86009538950715%
71.70111287758345%
71.86009538950715%
71.70111287758345%
71.86009538950715%
71.54213036565977%
71.54213036565977%
71.54213036565977%
71.2241653418124%
71.2241653418124%
71.2241653418124%
71.2241653418124%
71.38314785373609%
71.2241653418124%
71.2241653418124%
71.38314785373609%
71.38314785373609%
71.38314785373609%
71.38314785373609%
71.38314785373609%
71.38314785373609%
71.2241653418124%
71.70111287758345%
72.01907790143083%
71.86009538950715%
71.70111287758345%
71.2241653418124%
71.2241653418124%
71.06518282988871%
71.2241653418124%
71.2241653418124%
71.2241653418124%
71.2241653418124%
71.2241653418124%
72.17806041335453%
72.65500794912559%
73.13195548489666%
73.13195548489666%
72.17806041335453%
72.17806041335453%
72.17806041335453%
72.81399046104929%
72.49602543720191%
73.13195548489666%
75.99364069952306%
75.83465818759937%
75.99364069952306%
75.99364069952306%
76.47058823529412%
76.47058823529412%
76.47058823529412%
76.47058823529412%
75.99364069952306%
75.516693163752%
77.42448330683625%
77.42448330683625%
77.42448330683625%
77.42448330683625%
79.01430842607313%
78.69634340222575%
78.69634340222575%
79.01430842607313%
78.69634340222575%
76.31160572337043%
76.31160572337043%
77.26550079491255%
77.58346581875993%
77.42448330683625%
77.58346581875993%
77.42448330683625%
77.42448330683625%
76.94753577106518%
78.53736089030207%
78.69634340222575%
77.90143084260731%
76.7885532591415%
75.67567567567568%
74.40381558028616%
74.56279809220986%
74.40381558028616%
74.88076311605724%
74.72178060413354%
74.56279809220986%
74.72178060413354%
74.72178060413354%
74.56279809220986%
74.56279809220986%
74.72178060413354%
74.40381558028616%
73.29093799682035%
72.49602543720191%
72.17806041335453%
72.17806041335453%
72.17806041335453%
72.01907790143083%
71.54213036565977%
71.70111287758345%
71.38314785373609%
71.38314785373609%
70.58823529411765%
70.58823529411765%
70.42925278219397%
71.86009538950715%
72.65500794912559%
72.97297297297297%
72.97297297297297%
73.44992050874404%
74.0858505564388%
73.9268680445151%
74.88076311605724%
75.03974562798092%
73.44992050874404%
73.44992050874404%
73.44992050874404%
75.19872813990462%
75.3577106518283%
75.3577106518283%
75.3577106518283%
73.60890302066773%
73.60890302066773%
72.81399046104929%
73.9268680445151%
73.13195548489666%
73.29093799682035%
73.29093799682035%
73.13195548489666%
72.33704292527821%
72.65500794912559%
72.65500794912559%
71.86009538950715%
71.86009538950715%
72.01907790143083%
71.86009538950715%
70.90620031796503%
70.74721780604133%
70.74721780604133%
70.74721780604133%
70.58823529411765%
71.2241653418124%
71.86009538950715%
77.74244833068363%
87.28139904610492%
87.28139904610492%
87.28139904610492%
85.85055643879174%
86.16852146263912%
88.07631160572336%
86.96343402225754%
86.96343402225754%
86.00953895071542%
86.00953895071542%
86.00953895071542%
84.57869634340223%
82.1939586645469%
82.82988871224165%
81.71701112877582%
82.82988871224165%
82.67090620031796%
83.6248012718601%
83.6248012718601%
82.35294117647058%
82.1939586645469%
82.67090620031796%
85.69157392686805%
85.53259141494436%
86.3275039745628%
86.16852146263912%
86.80445151033386%
86.48648648648648%
86.64546899841018%
86.64546899841018%
88.23529411764706%
87.28139904610492%
89.50715421303657%
89.34817170111288%
89.34817170111288%
89.34817170111288%
87.12241653418124%
85.21462639109699%
85.21462639109699%
85.69157392686805%
84.73767885532591%
84.8966613672496%
81.08108108108108%
85.53259141494436%
85.85055643879174%
85.69157392686805%
82.82988871224165%
83.46581875993641%
83.30683624801271%
81.24006359300478%
82.1939586645469%
82.1939586645469%
82.1939586645469%
81.87599364069952%
81.71701112877582%
81.39904610492846%
82.51192368839428%
83.30683624801271%
84.10174880763115%
84.10174880763115%
85.53259141494436%
86.00953895071542%
86.3275039745628%
84.8966613672496%
85.37360890302067%
85.85055643879174%
84.10174880763115%
84.10174880763115%
83.30683624801271%
83.46581875993641%
83.6248012718601%
83.78378378378379%
83.94276629570747%
83.30683624801271%
88.55325914149444%
88.23529411764706%
88.39427662957074%
88.07631160572336%
87.75834658187598%
89.1891891891892%
89.1891891891892%
89.50715421303657%
88.87122416534181%
87.75834658187598%
87.75834658187598%
86.96343402225754%
86.3275039745628%
86.64546899841018%
86.16852146263912%
85.85055643879174%
84.8966613672496%
83.94276629570747%
83.6248012718601%
83.6248012718601%
86.96343402225754%
88.55325914149444%
87.75834658187598%
87.91732909379968%
88.07631160572336%
87.5993640699523%
87.75834658187598%
87.28139904610492%
87.28139904610492%
88.23529411764706%
88.07631160572336%
87.91732909379968%
88.55325914149444%
89.50715421303657%
89.0302066772655%
89.66613672496025%
89.66613672496025%
90.14308426073131%
89.34817170111288%
91.7329093799682%
92.52782193958664%
92.20985691573927%
92.05087440381558%
93.0047694753577%
91.8918918918919%
92.36883942766295%
92.05087440381558%
94.5945945945946%
94.5945945945946%
94.75357710651828%
95.38950715421304%
95.07154213036566%
94.91255961844197%
94.11764705882352%
94.27662957074722%
92.52782193958664%
91.8918918918919%
91.8918918918919%
91.8918918918919%
91.7329093799682%
91.57392686804452%
91.09697933227345%
86.80445151033386%
87.5993640699523%
88.55325914149444%
88.71224165341812%
88.55325914149444%
88.39427662957074%
94.91255961844197%
96.97933227344993%
96.66136724960255%
96.66136724960255%
96.50238473767885%
96.50238473767885%
96.97933227344993%
96.97933227344993%
96.82034976152623%
96.02543720190779%
95.70747217806041%
96.50238473767885%
96.34340222575517%
96.18441971383149%
96.34340222575517%
96.34340222575517%
96.02543720190779%
96.34340222575517%
96.50238473767885%
97.13831478537361%
97.13831478537361%
97.13831478537361%
97.13831478537361%
97.13831478537361%
97.13831478537361%
96.82034976152623%
95.70747217806041%
96.50238473767885%
96.50238473767885%
96.34340222575517%
96.50238473767885%
96.66136724960255%
97.2972972972973%
97.2972972972973%
97.2972972972973%
97.2972972972973%
97.2972972972973%
97.2972972972973%
97.2972972972973%
97.2972972972973%
97.2972972972973%
97.2972972972973%
96.82034976152623%