100.0%
100.0%
100.0%
100.0%
100.0%
100.0%
100.0%
100.0%
100.0%
100.0%
100.0%
100.0%
100.0%
100.0%
100.0%
100.0%
100.0%
100.0%
100.0%
99.23664122137404%
99.23664122137404%
99.23664122137404%
99.23664122137404%
99.23664122137404%
99.23664122137404%
99.23664122137404%
99.23664122137404%
99.23664122137404%
99.23664122137404%
99.23664122137404%
99.23664122137404%
99.23664122137404%
98.47328244274809%
97.70992366412213%
97.70992366412213%
97.70992366412213%
97.70992366412213%
97.70992366412213%
97.70992366412213%
97.70992366412213%
96.94656488549617%
96.94656488549617%
96.18320610687023%
96.94656488549617%
96.94656488549617%
96.94656488549617%
97.70992366412213%
96.94656488549617%
97.70992366412213%
97.70992366412213%
96.18320610687023%
96.18320610687023%
96.18320610687023%
96.18320610687023%
95.41984732824427%
96.18320610687023%
95.41984732824427%
94.65648854961832%
94.65648854961832%
94.65648854961832%
94.65648854961832%
94.65648854961832%
94.65648854961832%
94.65648854961832%
94.65648854961832%
94.65648854961832%
94.65648854961832%
95.41984732824427%
95.41984732824427%
94.65648854961832%
94.65648854961832%
94.65648854961832%
94.65648854961832%
94.65648854961832%
94.65648854961832%
94.65648854961832%
93.89312977099237%
93.89312977099237%
93.89312977099237%
94.65648854961832%
94.65648854961832%
94.65648854961832%
94.65648854961832%
94.65648854961832%
94.65648854961832%
95.41984732824427%
93.12977099236642%
93.12977099236642%
93.12977099236642%
93.12977099236642%
93.12977099236642%
93.89312977099237%
93.89312977099237%
93.89312977099237%
95.41984732824427%
94.65648854961832%
95.41984732824427%
94.65648854961832%
93.89312977099237%
93.89312977099237%
93.89312977099237%
94.65648854961832%
94.65648854961832%
93.89312977099237%
93.89312977099237%
93.12977099236642%
93.12977099236642%
93.12977099236642%
92.36641221374046%
92.36641221374046%
92.36641221374046%
92.36641221374046%
92.36641221374046%
92.36641221374046%
92.36641221374046%
92.36641221374046%
92.36641221374046%
92.36641221374046%
92.36641221374046%
92.36641221374046%
93.12977099236642%
93.12977099236642%
93.12977099236642%
93.12977099236642%
93.12977099236642%
93.12977099236642%
93.12977099236642%
93.12977099236642%
93.12977099236642%
92.36641221374046%
93.12977099236642%
93.12977099236642%
93.12977099236642%
93.12977099236642%
93.12977099236642%
92.36641221374046%
93.12977099236642%
93.12977099236642%
93.12977099236642%
93.12977099236642%
93.12977099236642%
93.12977099236642%
92.36641221374046%
92.36641221374046%
92.36641221374046%
92.36641221374046%
92.36641221374046%
92.36641221374046%
92.36641221374046%
92.36641221374046%
92.36641221374046%
92.36641221374046%
92.36641221374046%
92.36641221374046%
92.36641221374046%
92.36641221374046%
92.36641221374046%
92.36641221374046%
92.36641221374046%
92.36641221374046%
92.36641221374046%
92.36641221374046%
92.36641221374046%
92.36641221374046%
92.36641221374046%
92.36641221374046%
92.36641221374046%
92.36641221374046%
92.36641221374046%
92.36641221374046%
93.12977099236642%
93.12977099236642%
92.36641221374046%
92.36641221374046%
92.36641221374046%
92.36641221374046%
92.36641221374046%
92.36641221374046%
92.36641221374046%
92.36641221374046%
92.36641221374046%
93.12977099236642%
93.12977099236642%
92.36641221374046%
93.12977099236642%
93.12977099236642%
92.36641221374046%
92.36641221374046%
92.36641221374046%
92.36641221374046%
92.36641221374046%
91.6030534351145%
91.6030534351145%
91.6030534351145%
91.6030534351145%
91.6030534351145%
91.6030534351145%
91.6030534351145%
91.6030534351145%
91.6030534351145%
91.6030534351145%
90.83969465648855%
90.83969465648855%
90.83969465648855%
90.83969465648855%
90.83969465648855%
92.36641221374046%
92.36641221374046%
92.36641221374046%
92.36641221374046%
92.36641221374046%
92.36641221374046%
92.36641221374046%
92.36641221374046%
91.6030534351145%
91.6030534351145%
91.6030534351145%
91.6030534351145%
92.36641221374046%
92.36641221374046%
92.36641221374046%
92.36641221374046%
92.36641221374046%
92.36641221374046%
92.36641221374046%
92.36641221374046%
92.36641221374046%
92.36641221374046%
92.36641221374046%
92.36641221374046%
92.36641221374046%
92.36641221374046%
92.36641221374046%
92.36641221374046%
91.6030534351145%
91.6030534351145%
91.6030534351145%
91.6030534351145%
91.6030534351145%
91.6030534351145%
91.6030534351145%
91.6030534351145%
91.6030534351145%
91.6030534351145%
91.6030534351145%
91.6030534351145%
91.6030534351145%
91.6030534351145%
91.6030534351145%
91.6030534351145%
91.6030534351145%
91.6030534351145%
91.6030534351145%
91.6030534351145%
92.36641221374046%
93.12977099236642%
92.36641221374046%
92.36641221374046%
93.12977099236642%
93.12977099236642%
92.36641221374046%
93.12977099236642%
92.36641221374046%
90.83969465648855%
90.83969465648855%
90.83969465648855%
91.6030534351145%
90.83969465648855%
91.6030534351145%
91.6030534351145%
90.07633587786259%
90.07633587786259%
89.31297709923665%
89.31297709923665%
89.31297709923665%
89.31297709923665%
89.31297709923665%
89.31297709923665%
89.31297709923665%
89.31297709923665%
88.54961832061069%
88.54961832061069%
88.54961832061069%
87.78625954198473%
87.78625954198473%
87.78625954198473%
87.78625954198473%
87.78625954198473%
87.78625954198473%
87.78625954198473%
87.78625954198473%
87.78625954198473%
87.78625954198473%
87.78625954198473%
88.54961832061069%
88.54961832061069%
87.78625954198473%
88.54961832061069%
89.31297709923665%
88.54961832061069%
89.31297709923665%
87.78625954198473%
87.78625954198473%
87.78625954198473%
87.78625954198473%
87.78625954198473%
87.78625954198473%
87.78625954198473%
87.78625954198473%
87.78625954198473%
87.78625954198473%
87.78625954198473%
87.78625954198473%
87.78625954198473%
87.78625954198473%
88.54961832061069%
87.78625954198473%
86.25954198473282%
86.25954198473282%
87.78625954198473%
87.78625954198473%
87.78625954198473%
86.25954198473282%
86.25954198473282%
86.25954198473282%
87.02290076335878%
87.02290076335878%
87.02290076335878%
86.25954198473282%
86.25954198473282%
87.02290076335878%
84.7328244274809%
84.7328244274809%
84.7328244274809%
84.7328244274809%
84.7328244274809%
84.7328244274809%
85.49618320610686%
85.49618320610686%
87.02290076335878%
87.02290076335878%
85.49618320610686%
87.78625954198473%
87.78625954198473%
87.78625954198473%
88.54961832061069%
88.54961832061069%
87.02290076335878%
87.02290076335878%
87.02290076335878%
87.78625954198473%
87.78625954198473%
87.78625954198473%
87.78625954198473%
87.78625954198473%
87.78625954198473%
87.78625954198473%
87.02290076335878%
87.02290076335878%
87.78625954198473%
87.78625954198473%
87.78625954198473%
87.78625954198473%
87.78625954198473%
87.78625954198473%
87.02290076335878%
87.02290076335878%
87.02290076335878%
87.02290076335878%
87.02290076335878%
85.49618320610686%
85.49618320610686%
85.49618320610686%
85.49618320610686%
85.49618320610686%
86.25954198473282%
86.25954198473282%
84.7328244274809%
83.96946564885496%
85.49618320610686%
84.7328244274809%
84.7328244274809%
85.49618320610686%
87.78625954198473%
87.02290076335878%
86.25954198473282%
86.25954198473282%
86.25954198473282%
86.25954198473282%
86.25954198473282%
85.49618320610686%
85.49618320610686%
85.49618320610686%
85.49618320610686%
85.49618320610686%
85.49618320610686%
85.49618320610686%
85.49618320610686%
85.49618320610686%
85.49618320610686%
85.49618320610686%
84.7328244274809%
84.7328244274809%
84.7328244274809%
86.25954198473282%
86.25954198473282%
85.49618320610686%
83.96946564885496%
83.96946564885496%
79.38931297709924%
77.86259541984732%
76.33587786259542%
76.33587786259542%
76.33587786259542%
77.09923664122137%
77.86259541984732%
77.09923664122137%
78.62595419847328%
75.57251908396947%
76.33587786259542%
75.57251908396947%
74.80916030534351%
77.86259541984732%
77.86259541984732%
77.09923664122137%
77.86259541984732%
76.33587786259542%
76.33587786259542%
76.33587786259542%
76.33587786259542%
76.33587786259542%
76.33587786259542%
75.57251908396947%
74.80916030534351%
74.04580152671755%
71.7557251908397%
74.80916030534351%
75.57251908396947%
75.57251908396947%
75.57251908396947%
75.57251908396947%
74.80916030534351%
74.80916030534351%
75.57251908396947%
74.80916030534351%
74.80916030534351%
75.57251908396947%
75.57251908396947%
74.80916030534351%
74.80916030534351%
72.51908396946564%
74.80916030534351%
74.80916030534351%
74.80916030534351%
74.80916030534351%
74.04580152671755%
76.33587786259542%
75.57251908396947%
74.04580152671755%
74.04580152671755%
75.57251908396947%
76.33587786259542%
76.33587786259542%
76.33587786259542%
76.33587786259542%
76.33587786259542%
74.80916030534351%
77.09923664122137%
77.09923664122137%
75.57251908396947%
75.57251908396947%
77.86259541984732%
77.86259541984732%
77.86259541984732%
78.62595419847328%
74.80916030534351%
73.2824427480916%
73.2824427480916%
73.2824427480916%
70.22900763358778%
69.46564885496184%
61.06870229007634%
61.06870229007634%
60.30534351145038%
62.59541984732825%
64.8854961832061%
64.8854961832061%
64.8854961832061%
64.8854961832061%
63.358778625954194%
65.64885496183206%
65.64885496183206%
62.59541984732825%
62.59541984732825%
64.12213740458014%
63.358778625954194%
61.06870229007634%
62.59541984732825%
64.12213740458014%
61.06870229007634%
61.06870229007634%
60.30534351145038%
60.30534351145038%
60.30534351145038%
62.59541984732825%
62.59541984732825%
62.59541984732825%
54.19847328244275%
54.19847328244275%
54.19847328244275%
54.19847328244275%
54.19847328244275%
53.43511450381679%
53.43511450381679%
51.908396946564885%
53.43511450381679%
51.14503816793893%
50.38167938931297%
51.14503816793893%
50.38167938931297%
51.14503816793893%
49.61832061068702%
49.61832061068702%
50.38167938931297%
51.14503816793893%
50.38167938931297%
49.61832061068702%
45.038167938931295%
43.51145038167939%
43.51145038167939%
43.51145038167939%
44.274809160305345%
42.74809160305343%
41.221374045801525%
42.74809160305343%
42.74809160305343%
43.51145038167939%
42.74809160305343%
43.51145038167939%
42.74809160305343%
42.74809160305343%
44.274809160305345%
44.274809160305345%
43.51145038167939%
43.51145038167939%
41.221374045801525%
40.458015267175576%
38.93129770992366%
39.69465648854962%
35.87786259541985%
35.87786259541985%
35.87786259541985%
35.87786259541985%
35.87786259541985%
35.87786259541985%
35.87786259541985%
30.53435114503817%
25.954198473282442%
29.00763358778626%
29.00763358778626%
27.480916030534353%
29.00763358778626%
27.480916030534353%
23.66412213740458%
22.900763358778626%
22.900763358778626%
25.190839694656486%
25.954198473282442%
28.24427480916031%
28.24427480916031%
28.24427480916031%
31.297709923664126%
35.87786259541985%
35.87786259541985%
35.87786259541985%
35.87786259541985%
37.404580152671755%
36.6412213740458%
35.87786259541985%
35.11450381679389%
34.35114503816794%
32.82442748091603%
31.297709923664126%
33.587786259541986%
33.587786259541986%
32.82442748091603%
32.82442748091603%
32.06106870229007%
32.82442748091603%
34.35114503816794%
34.35114503816794%
32.82442748091603%
29.770992366412212%
33.587786259541986%
33.587786259541986%
34.35114503816794%
34.35114503816794%
35.11450381679389%
34.35114503816794%
30.53435114503817%
30.53435114503817%
35.11450381679389%
34.35114503816794%
35.11450381679389%
33.587786259541986%
33.587786259541986%
33.587786259541986%
32.06106870229007%
32.06106870229007%
24.427480916030532%
24.427480916030532%
22.900763358778626%
23.66412213740458%
23.66412213740458%
23.66412213740458%
22.900763358778626%
22.900763358778626%
23.66412213740458%
22.900763358778626%
23.66412213740458%
22.900763358778626%
22.900763358778626%
24.427480916030532%
24.427480916030532%
22.900763358778626%
22.900763358778626%
22.900763358778626%
18.3206106870229%
18.3206106870229%
18.3206106870229%
18.3206106870229%
18.3206106870229%
18.3206106870229%
18.3206106870229%
18.3206106870229%
17.557251908396946%
18.3206106870229%
18.3206106870229%
17.557251908396946%
17.557251908396946%
17.557251908396946%
16.793893129770993%
16.793893129770993%
16.793893129770993%
16.793893129770993%
16.793893129770993%
16.030534351145036%
16.030534351145036%
16.030534351145036%
16.030534351145036%
16.793893129770993%
16.030534351145036%
16.030534351145036%
16.030534351145036%
16.030534351145036%
16.030534351145036%
16.030534351145036%
16.030534351145036%
15.267175572519085%
15.267175572519085%
15.267175572519085%
15.267175572519085%
15.267175572519085%
15.267175572519085%
15.267175572519085%
15.267175572519085%
15.267175572519085%
15.267175572519085%
15.267175572519085%
15.267175572519085%
15.267175572519085%
15.267175572519085%
15.267175572519085%
15.267175572519085%
15.267175572519085%
15.267175572519085%
15.267175572519085%
15.267175572519085%
15.267175572519085%
15.267175572519085%
15.267175572519085%
15.267175572519085%
15.267175572519085%
15.267175572519085%
15.267175572519085%
15.267175572519085%
15.267175572519085%
15.267175572519085%
15.267175572519085%
15.267175572519085%
15.267175572519085%
15.267175572519085%
15.267175572519085%
15.267175572519085%
15.267175572519085%
15.267175572519085%
15.267175572519085%
15.267175572519085%
15.267175572519085%
15.267175572519085%
15.267175572519085%
15.267175572519085%
15.267175572519085%
15.267175572519085%
15.267175572519085%
15.267175572519085%
15.267175572519085%
15.267175572519085%
15.267175572519085%
15.267175572519085%
15.267175572519085%
15.267175572519085%
15.267175572519085%
15.267175572519085%
15.267175572519085%
15.267175572519085%
15.267175572519085%
15.267175572519085%
15.267175572519085%
15.267175572519085%
15.267175572519085%
15.267175572519085%
15.267175572519085%
15.267175572519085%
15.267175572519085%
15.267175572519085%
15.267175572519085%
15.267175572519085%
15.267175572519085%
15.267175572519085%
15.267175572519085%
15.267175572519085%
15.267175572519085%
15.267175572519085%
15.267175572519085%
15.267175572519085%
15.267175572519085%
15.267175572519085%
15.267175572519085%
15.267175572519085%
15.267175572519085%
15.267175572519085%
15.267175572519085%
15.267175572519085%
15.267175572519085%
15.267175572519085%
15.267175572519085%
15.267175572519085%
15.267175572519085%
15.267175572519085%
15.267175572519085%
15.267175572519085%
15.267175572519085%
15.267175572519085%
15.267175572519085%
15.267175572519085%
15.267175572519085%
15.267175572519085%
15.267175572519085%
15.267175572519085%
15.267175572519085%
15.267175572519085%
15.267175572519085%
15.267175572519085%
15.267175572519085%
15.267175572519085%
15.267175572519085%
15.267175572519085%
15.267175572519085%
15.267175572519085%
15.267175572519085%
15.267175572519085%
15.267175572519085%
15.267175572519085%
15.267175572519085%
15.267175572519085%
15.267175572519085%
15.267175572519085%
15.267175572519085%
15.267175572519085%
15.267175572519085%
15.267175572519085%
15.267175572519085%
15.267175572519085%
26370
