100.0%
100.0%
100.0%
100.0%
100.0%
100.0%
100.0%
100.0%
100.0%
100.0%
100.0%
100.0%
100.0%
100.0%
100.0%
100.0%
100.0%
100.0%
100.0%
100.0%
100.0%
100.0%
99.23664122137404%
100.0%
100.0%
98.47328244274809%
98.47328244274809%
99.23664122137404%
98.47328244274809%
99.23664122137404%
99.23664122137404%
99.23664122137404%
99.23664122137404%
99.23664122137404%
99.23664122137404%
98.47328244274809%
98.47328244274809%
98.47328244274809%
98.47328244274809%
98.47328244274809%
98.47328244274809%
99.23664122137404%
99.23664122137404%
99.23664122137404%
98.47328244274809%
98.47328244274809%
98.47328244274809%
98.47328244274809%
98.47328244274809%
97.70992366412213%
98.47328244274809%
98.47328244274809%
98.47328244274809%
98.47328244274809%
97.70992366412213%
97.70992366412213%
97.70992366412213%
97.70992366412213%
97.70992366412213%
97.70992366412213%
97.70992366412213%
98.47328244274809%
97.70992366412213%
98.47328244274809%
97.70992366412213%
97.70992366412213%
97.70992366412213%
97.70992366412213%
97.70992366412213%
97.70992366412213%
97.70992366412213%
97.70992366412213%
97.70992366412213%
97.70992366412213%
97.70992366412213%
97.70992366412213%
97.70992366412213%
97.70992366412213%
97.70992366412213%
97.70992366412213%
97.70992366412213%
96.94656488549617%
96.94656488549617%
96.94656488549617%
96.94656488549617%
96.94656488549617%
96.94656488549617%
95.41984732824427%
94.65648854961832%
94.65648854961832%
94.65648854961832%
94.65648854961832%
94.65648854961832%
95.41984732824427%
95.41984732824427%
94.65648854961832%
94.65648854961832%
94.65648854961832%
94.65648854961832%
94.65648854961832%
94.65648854961832%
94.65648854961832%
94.65648854961832%
94.65648854961832%
93.89312977099237%
94.65648854961832%
94.65648854961832%
94.65648854961832%
94.65648854961832%
94.65648854961832%
94.65648854961832%
94.65648854961832%
94.65648854961832%
94.65648854961832%
94.65648854961832%
93.89312977099237%
93.89312977099237%
93.89312977099237%
93.89312977099237%
93.89312977099237%
93.89312977099237%
93.89312977099237%
93.89312977099237%
93.89312977099237%
93.89312977099237%
93.89312977099237%
93.89312977099237%
93.89312977099237%
93.89312977099237%
93.89312977099237%
93.89312977099237%
93.89312977099237%
93.89312977099237%
93.89312977099237%
93.89312977099237%
93.89312977099237%
93.89312977099237%
93.12977099236642%
93.89312977099237%
93.89312977099237%
93.89312977099237%
93.89312977099237%
93.12977099236642%
93.12977099236642%
93.12977099236642%
93.12977099236642%
93.12977099236642%
93.12977099236642%
93.12977099236642%
93.12977099236642%
93.12977099236642%
93.12977099236642%
93.12977099236642%
92.36641221374046%
92.36641221374046%
92.36641221374046%
92.36641221374046%
93.12977099236642%
92.36641221374046%
92.36641221374046%
92.36641221374046%
92.36641221374046%
92.36641221374046%
92.36641221374046%
92.36641221374046%
92.36641221374046%
92.36641221374046%
92.36641221374046%
92.36641221374046%
92.36641221374046%
92.36641221374046%
92.36641221374046%
92.36641221374046%
92.36641221374046%
92.36641221374046%
91.6030534351145%
92.36641221374046%
92.36641221374046%
92.36641221374046%
92.36641221374046%
92.36641221374046%
91.6030534351145%
91.6030534351145%
91.6030534351145%
91.6030534351145%
91.6030534351145%
91.6030534351145%
91.6030534351145%
91.6030534351145%
91.6030534351145%
91.6030534351145%
91.6030534351145%
91.6030534351145%
91.6030534351145%
91.6030534351145%
91.6030534351145%
91.6030534351145%
91.6030534351145%
91.6030534351145%
91.6030534351145%
91.6030534351145%
91.6030534351145%
91.6030534351145%
91.6030534351145%
91.6030534351145%
91.6030534351145%
91.6030534351145%
91.6030534351145%
91.6030534351145%
91.6030534351145%
91.6030534351145%
91.6030534351145%
91.6030534351145%
91.6030534351145%
91.6030534351145%
91.6030534351145%
91.6030534351145%
91.6030534351145%
91.6030534351145%
91.6030534351145%
91.6030534351145%
91.6030534351145%
91.6030534351145%
91.6030534351145%
91.6030534351145%
91.6030534351145%
91.6030534351145%
91.6030534351145%
91.6030534351145%
91.6030534351145%
91.6030534351145%
91.6030534351145%
91.6030534351145%
91.6030534351145%
91.6030534351145%
91.6030534351145%
91.6030534351145%
91.6030534351145%
91.6030534351145%
91.6030534351145%
91.6030534351145%
91.6030534351145%
91.6030534351145%
91.6030534351145%
91.6030534351145%
91.6030534351145%
91.6030534351145%
91.6030534351145%
91.6030534351145%
91.6030534351145%
91.6030534351145%
91.6030534351145%
91.6030534351145%
90.83969465648855%
90.83969465648855%
90.83969465648855%
90.83969465648855%
90.83969465648855%
90.83969465648855%
90.83969465648855%
90.83969465648855%
90.83969465648855%
90.83969465648855%
90.83969465648855%
90.83969465648855%
90.83969465648855%
90.83969465648855%
90.83969465648855%
90.83969465648855%
90.83969465648855%
90.83969465648855%
90.83969465648855%
90.83969465648855%
90.07633587786259%
90.83969465648855%
90.83969465648855%
90.83969465648855%
90.07633587786259%
90.07633587786259%
90.07633587786259%
90.07633587786259%
90.07633587786259%
90.83969465648855%
90.83969465648855%
90.07633587786259%
90.83969465648855%
90.83969465648855%
90.83969465648855%
90.83969465648855%
90.83969465648855%
90.83969465648855%
90.83969465648855%
91.6030534351145%
90.83969465648855%
90.83969465648855%
90.83969465648855%
90.83969465648855%
90.83969465648855%
90.83969465648855%
90.83969465648855%
90.83969465648855%
90.83969465648855%
90.83969465648855%
90.83969465648855%
90.83969465648855%
90.83969465648855%
90.83969465648855%
90.83969465648855%
90.83969465648855%
90.83969465648855%
90.83969465648855%
90.83969465648855%
90.83969465648855%
90.83969465648855%
90.83969465648855%
90.83969465648855%
90.83969465648855%
90.83969465648855%
90.83969465648855%
90.83969465648855%
90.83969465648855%
90.83969465648855%
90.83969465648855%
90.83969465648855%
90.83969465648855%
90.83969465648855%
90.83969465648855%
90.83969465648855%
90.83969465648855%
90.83969465648855%
90.07633587786259%
90.07633587786259%
89.31297709923665%
88.54961832061069%
89.31297709923665%
88.54961832061069%
89.31297709923665%
89.31297709923665%
89.31297709923665%
89.31297709923665%
90.07633587786259%
90.07633587786259%
90.07633587786259%
90.07633587786259%
90.07633587786259%
90.07633587786259%
89.31297709923665%
89.31297709923665%
89.31297709923665%
87.78625954198473%
87.02290076335878%
87.02290076335878%
87.02290076335878%
87.02290076335878%
86.25954198473282%
86.25954198473282%
86.25954198473282%
86.25954198473282%
86.25954198473282%
87.02290076335878%
87.02290076335878%
87.78625954198473%
87.78625954198473%
87.02290076335878%
86.25954198473282%
86.25954198473282%
86.25954198473282%
86.25954198473282%
86.25954198473282%
86.25954198473282%
86.25954198473282%
86.25954198473282%
86.25954198473282%
86.25954198473282%
86.25954198473282%
86.25954198473282%
86.25954198473282%
85.49618320610686%
86.25954198473282%
86.25954198473282%
87.02290076335878%
86.25954198473282%
86.25954198473282%
86.25954198473282%
86.25954198473282%
86.25954198473282%
86.25954198473282%
87.02290076335878%
87.02290076335878%
86.25954198473282%
86.25954198473282%
86.25954198473282%
86.25954198473282%
86.25954198473282%
86.25954198473282%
86.25954198473282%
86.25954198473282%
85.49618320610686%
86.25954198473282%
85.49618320610686%
84.7328244274809%
85.49618320610686%
85.49618320610686%
85.49618320610686%
85.49618320610686%
85.49618320610686%
85.49618320610686%
85.49618320610686%
85.49618320610686%
85.49618320610686%
85.49618320610686%
84.7328244274809%
83.20610687022901%
83.20610687022901%
83.20610687022901%
82.44274809160305%
82.44274809160305%
82.44274809160305%
83.96946564885496%
83.20610687022901%
82.44274809160305%
82.44274809160305%
79.38931297709924%
80.91603053435115%
80.91603053435115%
81.67938931297711%
81.67938931297711%
80.91603053435115%
81.67938931297711%
82.44274809160305%
81.67938931297711%
80.91603053435115%
80.91603053435115%
81.67938931297711%
76.33587786259542%
79.38931297709924%
77.86259541984732%
79.38931297709924%
79.38931297709924%
79.38931297709924%
79.38931297709924%
77.86259541984732%
76.33587786259542%
75.57251908396947%
75.57251908396947%
77.09923664122137%
75.57251908396947%
76.33587786259542%
74.80916030534351%
74.80916030534351%
74.80916030534351%
74.80916030534351%
74.04580152671755%
74.04580152671755%
73.2824427480916%
73.2824427480916%
73.2824427480916%
72.51908396946564%
73.2824427480916%
70.22900763358778%
70.99236641221374%
70.22900763358778%
70.99236641221374%
68.70229007633588%
70.99236641221374%
68.70229007633588%
66.41221374045801%
65.64885496183206%
66.41221374045801%
66.41221374045801%
67.17557251908397%
67.93893129770993%
67.17557251908397%
67.93893129770993%
64.12213740458014%
64.8854961832061%
64.8854961832061%
64.12213740458014%
65.64885496183206%
65.64885496183206%
65.64885496183206%
66.41221374045801%
67.17557251908397%
65.64885496183206%
63.358778625954194%
63.358778625954194%
62.59541984732825%
62.59541984732825%
62.59541984732825%
62.59541984732825%
61.832061068702295%
62.59541984732825%
63.358778625954194%
58.778625954198475%
58.778625954198475%
58.778625954198475%
58.778625954198475%
62.59541984732825%
61.832061068702295%
59.541984732824424%
58.778625954198475%
58.778625954198475%
58.778625954198475%
58.778625954198475%
60.30534351145038%
56.48854961832062%
56.48854961832062%
54.19847328244275%
54.19847328244275%
56.48854961832062%
54.961832061068705%
53.43511450381679%
53.43511450381679%
52.67175572519084%
52.67175572519084%
52.67175572519084%
52.67175572519084%
52.67175572519084%
52.67175572519084%
53.43511450381679%
53.43511450381679%
53.43511450381679%
53.43511450381679%
53.43511450381679%
57.25190839694656%
58.01526717557252%
58.778625954198475%
58.778625954198475%
58.778625954198475%
58.778625954198475%
58.778625954198475%
59.541984732824424%
58.01526717557252%
58.01526717557252%
59.541984732824424%
57.25190839694656%
57.25190839694656%
57.25190839694656%
58.01526717557252%
57.25190839694656%
57.25190839694656%
56.48854961832062%
55.72519083969466%
51.14503816793893%
44.274809160305345%
44.274809160305345%
42.74809160305343%
44.274809160305345%
45.80152671755725%
45.80152671755725%
45.80152671755725%
45.80152671755725%
45.038167938931295%
40.458015267175576%
38.93129770992366%
38.93129770992366%
37.404580152671755%
37.404580152671755%
37.404580152671755%
33.587786259541986%
34.35114503816794%
33.587786259541986%
35.11450381679389%
36.6412213740458%
36.6412213740458%
36.6412213740458%
37.404580152671755%
38.16793893129771%
37.404580152671755%
38.16793893129771%
36.6412213740458%
28.24427480916031%
28.24427480916031%
28.24427480916031%
26.717557251908396%
27.480916030534353%
32.82442748091603%
33.587786259541986%
33.587786259541986%
31.297709923664126%
31.297709923664126%
29.00763358778626%
28.24427480916031%
28.24427480916031%
27.480916030534353%
29.00763358778626%
29.770992366412212%
30.53435114503817%
31.297709923664126%
33.587786259541986%
38.16793893129771%
36.6412213740458%
35.87786259541985%
34.35114503816794%
34.35114503816794%
34.35114503816794%
34.35114503816794%
29.00763358778626%
29.00763358778626%
29.00763358778626%
31.297709923664126%
33.587786259541986%
32.82442748091603%
31.297709923664126%
32.06106870229007%
29.00763358778626%
28.24427480916031%
25.954198473282442%
24.427480916030532%
25.190839694656486%
25.954198473282442%
29.00763358778626%
29.00763358778626%
29.00763358778626%
19.84732824427481%
19.84732824427481%
19.84732824427481%
19.84732824427481%
18.3206106870229%
16.030534351145036%
19.083969465648856%
19.083969465648856%
19.083969465648856%
20.610687022900763%
20.610687022900763%
21.374045801526716%
21.374045801526716%
20.610687022900763%
19.84732824427481%
19.84732824427481%
19.083969465648856%
19.84732824427481%
19.84732824427481%
19.84732824427481%
21.374045801526716%
21.374045801526716%
19.84732824427481%
16.793893129770993%
15.267175572519085%
15.267175572519085%
15.267175572519085%
15.267175572519085%
15.267175572519085%
15.267175572519085%
15.267175572519085%
15.267175572519085%
15.267175572519085%
15.267175572519085%
15.267175572519085%
15.267175572519085%
15.267175572519085%
15.267175572519085%
15.267175572519085%
15.267175572519085%
15.267175572519085%
15.267175572519085%
15.267175572519085%
15.267175572519085%
15.267175572519085%
15.267175572519085%
15.267175572519085%
15.267175572519085%
15.267175572519085%
15.267175572519085%
15.267175572519085%
15.267175572519085%
15.267175572519085%
15.267175572519085%
15.267175572519085%
15.267175572519085%
15.267175572519085%
15.267175572519085%
15.267175572519085%
15.267175572519085%
15.267175572519085%
15.267175572519085%
15.267175572519085%
15.267175572519085%
15.267175572519085%
15.267175572519085%
15.267175572519085%
15.267175572519085%
15.267175572519085%
15.267175572519085%
15.267175572519085%
15.267175572519085%
15.267175572519085%
15.267175572519085%
15.267175572519085%
15.267175572519085%
15.267175572519085%
15.267175572519085%
15.267175572519085%
15.267175572519085%
15.267175572519085%
15.267175572519085%
15.267175572519085%
15.267175572519085%
15.267175572519085%
15.267175572519085%
15.267175572519085%
15.267175572519085%
15.267175572519085%
15.267175572519085%
15.267175572519085%
15.267175572519085%
15.267175572519085%
15.267175572519085%
15.267175572519085%
15.267175572519085%
15.267175572519085%
15.267175572519085%
15.267175572519085%
15.267175572519085%
15.267175572519085%
15.267175572519085%
15.267175572519085%
15.267175572519085%
15.267175572519085%
15.267175572519085%
15.267175572519085%
15.267175572519085%
15.267175572519085%
15.267175572519085%
15.267175572519085%
15.267175572519085%
15.267175572519085%
15.267175572519085%
15.267175572519085%
15.267175572519085%
15.267175572519085%
15.267175572519085%
15.267175572519085%
15.267175572519085%
15.267175572519085%
15.267175572519085%
15.267175572519085%
15.267175572519085%
15.267175572519085%
15.267175572519085%
15.267175572519085%
15.267175572519085%
15.267175572519085%
15.267175572519085%
15.267175572519085%
15.267175572519085%
15.267175572519085%
15.267175572519085%
15.267175572519085%
15.267175572519085%
15.267175572519085%
15.267175572519085%
15.267175572519085%
15.267175572519085%
15.267175572519085%
15.267175572519085%
15.267175572519085%
15.267175572519085%
15.267175572519085%
15.267175572519085%
15.267175572519085%
15.267175572519085%
15.267175572519085%
15.267175572519085%
15.267175572519085%
15.267175572519085%
15.267175572519085%
15.267175572519085%
15.267175572519085%
15.267175572519085%
15.267175572519085%
15.267175572519085%
15.267175572519085%
15.267175572519085%
15.267175572519085%
15.267175572519085%
15.267175572519085%
15.267175572519085%
15.267175572519085%
15.267175572519085%
15.267175572519085%
15.267175572519085%
15.267175572519085%
15.267175572519085%
33056
