93.77162629757785%
96.19377162629758%
97.23183391003461%
96.88581314878893%
97.05882352941177%
97.05882352941177%
96.7128027681661%
96.7128027681661%
97.92387543252595%
97.05882352941177%
91.34948096885813%
87.71626297577855%
91.00346020761245%
95.50173010380622%
96.19377162629758%
96.19377162629758%
95.67474048442907%
96.88581314878893%
98.26989619377161%
98.09688581314879%
98.44290657439446%
97.05882352941177%
95.32871972318338%
96.02076124567473%
90.48442906574394%
94.80968858131487%
96.02076124567473%
97.23183391003461%
96.88581314878893%
96.19377162629758%
95.8477508650519%
96.19377162629758%
95.32871972318338%
96.36678200692042%
95.8477508650519%
91.86851211072664%
89.44636678200692%
94.63667820069203%
96.7128027681661%
97.57785467128028%
97.23183391003461%
96.7128027681661%
96.7128027681661%
96.53979238754326%
96.88581314878893%
97.23183391003461%
97.05882352941177%
97.05882352941177%
96.88581314878893%
91.6955017301038%
96.19377162629758%
96.88581314878893%
96.88581314878893%
97.23183391003461%
96.7128027681661%
96.19377162629758%
96.19377162629758%
95.32871972318338%
96.02076124567473%
96.36678200692042%
94.29065743944636%
93.59861591695503%
95.8477508650519%
96.19377162629758%
96.02076124567473%
97.92387543252595%
96.53979238754326%
95.32871972318338%
95.32871972318338%
96.36678200692042%
96.53979238754326%
96.7128027681661%
96.7128027681661%
97.75086505190312%
94.63667820069203%
96.36678200692042%
96.02076124567473%
95.32871972318338%
96.36678200692042%
97.23183391003461%
96.02076124567473%
95.67474048442907%
95.8477508650519%
95.8477508650519%
94.29065743944636%
95.50173010380622%
96.53979238754326%
95.8477508650519%
96.02076124567473%
96.88581314878893%
98.09688581314879%
96.02076124567473%
93.9446366782007%
93.9446366782007%
96.53979238754326%
97.23183391003461%
96.7128027681661%
96.53979238754326%
97.92387543252595%
96.36678200692042%
95.67474048442907%
93.9446366782007%
93.59861591695503%
95.67474048442907%
96.19377162629758%
94.4636678200692%
94.63667820069203%
94.29065743944636%
93.77162629757785%
92.56055363321799%
94.29065743944636%
93.77162629757785%
92.04152249134948%
95.32871972318338%
95.15570934256056%
94.4636678200692%
93.9446366782007%
90.13840830449827%
90.48442906574394%
95.32871972318338%
97.23183391003461%
97.40484429065745%
96.02076124567473%
97.57785467128028%
96.7128027681661%
92.56055363321799%
87.5432525951557%
88.75432525951558%
94.80968858131487%
95.67474048442907%
95.50173010380622%
95.50173010380622%
94.4636678200692%
94.11764705882352%
90.83044982698962%
93.42560553633218%
90.83044982698962%
89.96539792387543%
94.80968858131487%
93.25259515570934%
92.21453287197232%
92.38754325259517%
89.79238754325259%
89.44636678200692%
93.9446366782007%
96.19377162629758%
94.63667820069203%
92.38754325259517%
95.8477508650519%
96.7128027681661%
94.98269896193771%
86.67820069204151%
85.6401384083045%
89.96539792387543%
94.63667820069203%
94.98269896193771%
94.4636678200692%
94.11764705882352%
92.90657439446368%
92.21453287197232%
92.04152249134948%
88.58131487889274%
84.77508650519032%
90.83044982698962%
91.6955017301038%
90.48442906574394%
92.56055363321799%
90.83044982698962%
91.00346020761245%
95.50173010380622%
94.98269896193771%
90.13840830449827%
86.33217993079585%
90.3114186851211%
95.8477508650519%
93.77162629757785%
88.58131487889274%
87.5432525951557%
89.27335640138409%
91.86851211072664%
91.86851211072664%
92.04152249134948%
91.52249134948097%
88.06228373702422%
87.71626297577855%
91.00346020761245%
83.39100346020761%
79.41176470588235%
88.58131487889274%
88.75432525951558%
88.58131487889274%
86.67820069204151%
86.159169550173%
89.61937716262976%
94.80968858131487%
94.29065743944636%
86.85121107266436%
82.69896193771626%
86.33217993079585%
94.4636678200692%
94.29065743944636%
90.48442906574394%
87.19723183391004%
90.65743944636678%
90.13840830449827%
89.27335640138409%
86.159169550173%
84.60207612456747%
82.52595155709342%
85.6401384083045%
87.71626297577855%
79.93079584775087%
76.98961937716263%
89.44636678200692%
87.19723183391004%
81.83391003460207%
86.85121107266436%
85.12110726643598%
87.37024221453287%
91.86851211072664%
91.00346020761245%
87.5432525951557%
83.04498269896193%
86.159169550173%
95.50173010380622%
93.59861591695503%
90.3114186851211%
88.92733564013841%
92.73356401384083%
92.73356401384083%
89.96539792387543%
88.75432525951558%
84.42906574394463%
80.79584775086505%
83.56401384083046%
86.159169550173%
77.16262975778547%
74.22145328719724%
84.77508650519032%
82.00692041522491%
75.77854671280276%
79.93079584775087%
79.58477508650519%
81.83391003460207%
87.19723183391004%
89.10034602076125%
90.3114186851211%
84.77508650519032%
85.12110726643598%
96.02076124567473%
92.90657439446368%
91.00346020761245%
89.96539792387543%
92.21453287197232%
93.07958477508652%
91.34948096885813%
90.83044982698962%
84.08304498269896%
75.60553633217994%
76.12456747404845%
84.42906574394463%
76.64359861591696%
74.0484429065744%
83.04498269896193%
77.68166089965398%
73.01038062283737%
81.31487889273356%
81.31487889273356%
82.8719723183391%
85.98615916955016%
87.88927335640139%
92.21453287197232%
86.67820069204151%
85.81314878892734%
94.4636678200692%
92.73356401384083%
90.83044982698962%
90.48442906574394%
92.56055363321799%
94.11764705882352%
92.04152249134948%
89.96539792387543%
79.06574394463668%
71.97231833910035%
72.31833910034602%
74.91349480968859%
77.68166089965398%
72.14532871972318%
75.9515570934256%
77.16262975778547%
75.25951557093425%
82.69896193771626%
83.56401384083046%
84.42906574394463%
87.88927335640139%
90.3114186851211%
93.25259515570934%
83.73702422145328%
82.69896193771626%
95.32871972318338%
91.17647058823529%
90.83044982698962%
91.34948096885813%
93.42560553633218%
95.50173010380622%
95.32871972318338%
92.90657439446368%
86.159169550173%
78.37370242214533%
74.91349480968859%
78.54671280276817%
75.08650519031141%
74.0484429065744%
78.719723183391%
77.50865051903114%
76.98961937716263%
83.56401384083046%
84.42906574394463%
86.67820069204151%
91.52249134948097%
93.59861591695503%
95.15570934256056%
86.67820069204151%
85.81314878892734%
93.59861591695503%
90.3114186851211%
93.25259515570934%
95.32871972318338%
96.36678200692042%
96.36678200692042%
93.42560553633218%
91.00346020761245%
84.42906574394463%
81.4878892733564%
76.64359861591696%
81.31487889273356%
84.2560553633218%
81.4878892733564%
83.56401384083046%
82.69896193771626%
79.23875432525952%
81.4878892733564%
84.42906574394463%
89.27335640138409%
92.38754325259517%
94.29065743944636%
94.98269896193771%
86.50519031141869%
86.159169550173%
93.07958477508652%
92.90657439446368%
94.4636678200692%
97.05882352941177%
96.19377162629758%
96.19377162629758%
92.38754325259517%
90.83044982698962%
88.58131487889274%
86.50519031141869%
85.6401384083045%
86.50519031141869%
86.159169550173%
83.04498269896193%
89.61937716262976%
89.27335640138409%
83.73702422145328%
85.46712802768167%
87.88927335640139%
91.52249134948097%
93.42560553633218%
94.63667820069203%
96.02076124567473%
90.13840830449827%
89.27335640138409%
92.73356401384083%
94.4636678200692%
96.7128027681661%
97.75086505190312%
97.40484429065745%
97.92387543252595%
94.98269896193771%
92.04152249134948%
91.17647058823529%
89.79238754325259%
89.44636678200692%
90.13840830449827%
88.06228373702422%
85.6401384083045%
91.86851211072664%
90.83044982698962%
86.50519031141869%
88.23529411764706%
90.65743944636678%
94.11764705882352%
96.19377162629758%
96.7128027681661%
95.50173010380622%
90.3114186851211%
90.3114186851211%
94.11764705882352%
96.7128027681661%
97.57785467128028%
96.53979238754326%
97.92387543252595%
97.75086505190312%
96.02076124567473%
94.63667820069203%
93.59861591695503%
92.90657439446368%
92.73356401384083%
92.73356401384083%
89.44636678200692%
88.58131487889274%
90.48442906574394%
93.07958477508652%
91.52249134948097%
93.25259515570934%
94.63667820069203%
96.36678200692042%
97.05882352941177%
97.23183391003461%
95.32871972318338%
91.17647058823529%
94.29065743944636%
95.8477508650519%
96.36678200692042%
96.7128027681661%
98.6159169550173%
98.6159169550173%
97.57785467128028%
96.7128027681661%
95.67474048442907%
94.98269896193771%
94.11764705882352%
94.11764705882352%
93.25259515570934%
91.00346020761245%
90.65743944636678%
93.77162629757785%
95.50173010380622%
93.9446366782007%
95.15570934256056%
95.8477508650519%
97.23183391003461%
98.09688581314879%
98.26989619377161%
96.36678200692042%
93.59861591695503%
95.50173010380622%
96.36678200692042%
96.88581314878893%
97.23183391003461%
99.13494809688581%
98.44290657439446%
98.09688581314879%
96.7128027681661%
96.36678200692042%
95.50173010380622%
95.67474048442907%
95.50173010380622%
95.50173010380622%
92.90657439446368%
92.04152249134948%
94.80968858131487%
95.50173010380622%
95.8477508650519%
96.19377162629758%
97.75086505190312%
97.57785467128028%
97.92387543252595%
97.57785467128028%
97.05882352941177%
95.8477508650519%
97.05882352941177%
96.36678200692042%
97.05882352941177%
98.09688581314879%
99.13494809688581%
98.26989619377161%
98.26989619377161%
97.23183391003461%
96.19377162629758%
95.50173010380622%
95.67474048442907%
95.67474048442907%
96.02076124567473%
95.32871972318338%
95.15570934256056%
96.19377162629758%
96.7128027681661%
96.7128027681661%
97.40484429065745%
97.75086505190312%
97.92387543252595%
98.6159169550173%
98.78892733564014%
98.26989619377161%
97.75086505190312%
97.75086505190312%
96.7128027681661%
97.57785467128028%
97.75086505190312%
98.78892733564014%
98.44290657439446%
98.78892733564014%
97.40484429065745%
96.7128027681661%
95.32871972318338%
95.50173010380622%
95.15570934256056%
94.98269896193771%
95.32871972318338%
95.67474048442907%
96.02076124567473%
96.36678200692042%
97.40484429065745%
97.40484429065745%
97.57785467128028%
97.40484429065745%
98.09688581314879%
98.26989619377161%
98.09688581314879%
98.44290657439446%
97.23183391003461%
96.7128027681661%
97.40484429065745%
97.23183391003461%
99.13494809688581%
98.6159169550173%
98.09688581314879%
97.92387543252595%
98.09688581314879%
97.75086505190312%
97.57785467128028%
97.40484429065745%
97.05882352941177%
97.40484429065745%
97.57785467128028%
98.09688581314879%
98.26989619377161%
98.26989619377161%
98.44290657439446%
98.78892733564014%
98.6159169550173%
98.6159169550173%
98.44290657439446%
98.96193771626297%
98.09688581314879%
97.23183391003461%
96.88581314878893%
97.05882352941177%
97.57785467128028%
99.13494809688581%
99.13494809688581%
98.96193771626297%
98.26989619377161%
98.26989619377161%
98.26989619377161%
98.26989619377161%
98.26989619377161%
98.09688581314879%
97.57785467128028%
97.75086505190312%
98.09688581314879%
98.6159169550173%
98.44290657439446%
98.6159169550173%
98.96193771626297%
99.48096885813149%
98.78892733564014%
99.13494809688581%
99.13494809688581%
98.44290657439446%
97.23183391003461%
97.40484429065745%
96.36678200692042%
97.40484429065745%
98.26989619377161%
98.78892733564014%
99.13494809688581%
98.78892733564014%
98.26989619377161%
98.6159169550173%
98.44290657439446%
98.26989619377161%
97.75086505190312%
97.40484429065745%
97.40484429065745%
97.92387543252595%
98.6159169550173%
98.44290657439446%
98.78892733564014%
98.96193771626297%
99.13494809688581%
98.78892733564014%
98.44290657439446%
98.44290657439446%
97.57785467128028%
96.36678200692042%
98.26989619377161%
94.98269896193771%
97.23183391003461%
98.44290657439446%
98.78892733564014%
99.13494809688581%
98.96193771626297%
98.96193771626297%
98.6159169550173%
98.26989619377161%
97.75086505190312%
97.40484429065745%
97.23183391003461%
98.09688581314879%
99.13494809688581%
99.30795847750865%
99.30795847750865%
99.30795847750865%
98.96193771626297%
98.96193771626297%
98.6159169550173%
98.26989619377161%
98.26989619377161%
97.40484429065745%
94.80968858131487%
97.05882352941177%
31019
