100.0%
94.98269896193771%
92.73356401384083%
85.81314878892734%
87.5432525951557%
86.33217993079585%
87.71626297577855%
88.92733564013841%
86.67820069204151%
78.719723183391%
85.98615916955016%
84.60207612456747%
87.37024221453287%
85.46712802768167%
84.2560553633218%
80.27681660899654%
80.79584775086505%
80.96885813148789%
81.31487889273356%
82.52595155709342%
83.91003460207612%
82.52595155709342%
78.719723183391%
78.37370242214533%
74.0484429065744%
73.70242214532871%
73.70242214532871%
73.01038062283737%
71.79930795847751%
69.72318339100346%
69.20415224913495%
70.24221453287197%
65.7439446366782%
65.57093425605537%
64.3598615916955%
64.53287197231833%
66.43598615916954%
66.78200692041523%
66.78200692041523%
66.26297577854672%
66.78200692041523%
67.47404844290658%
67.30103806228374%
68.5121107266436%
70.58823529411765%
70.93425605536332%
69.03114186851211%
68.33910034602077%
64.53287197231833%
66.26297577854672%
63.84083044982699%
64.53287197231833%
63.32179930795848%
63.667820069204154%
62.80276816608996%
63.49480968858131%
63.32179930795848%
62.28373702422145%
62.45674740484429%
60.553633217993074%
58.99653979238755%
58.99653979238755%
59.86159169550172%
62.629757785467135%
62.28373702422145%
62.28373702422145%
61.76470588235294%
64.01384083044984%
61.5916955017301%
58.13148788927336%
52.42214532871973%
51.903114186851205%
50.86505190311419%
51.21107266435986%
51.55709342560554%
48.44290657439446%
50.0%
49.82698961937716%
51.03806228373703%
51.21107266435986%
51.384083044982695%
51.903114186851205%
52.24913494809689%
52.24913494809689%
52.7681660899654%
53.28719723183391%
52.595155709342556%
53.11418685121107%
52.07612456747405%
51.384083044982695%
52.07612456747405%
53.28719723183391%
53.28719723183391%
52.24913494809689%
52.07612456747405%
54.498269896193776%
54.325259515570934%
53.806228373702425%
52.42214532871973%
50.34602076124568%
49.653979238754324%
49.30795847750865%
48.26989619377163%
50.34602076124568%
51.03806228373703%
50.34602076124568%
49.13494809688581%
48.615916955017305%
47.75086505190311%
49.48096885813148%
51.03806228373703%
51.55709342560554%
51.903114186851205%
48.615916955017305%
50.34602076124568%
50.17301038062284%
49.48096885813148%
49.48096885813148%
51.903114186851205%
53.11418685121107%
52.94117647058824%
53.63321799307958%
52.94117647058824%
51.903114186851205%
51.03806228373703%
51.73010380622838%
50.34602076124568%
49.82698961937716%
50.0%
49.48096885813148%
51.03806228373703%
51.55709342560554%
50.69204152249135%
48.96193771626297%
49.653979238754324%
50.86505190311419%
50.51903114186851%
50.69204152249135%
50.0%
50.69204152249135%
51.903114186851205%
52.24913494809689%
51.55709342560554%
52.07612456747405%
49.653979238754324%
49.30795847750865%
50.51903114186851%
50.86505190311419%
51.903114186851205%
51.55709342560554%
51.55709342560554%
47.75086505190311%
52.42214532871973%
52.24913494809689%
51.903114186851205%
51.73010380622838%
51.903114186851205%
52.07612456747405%
49.653979238754324%
49.82698961937716%
49.30795847750865%
47.57785467128028%
41.34948096885813%
41.003460207612456%
42.04152249134948%
36.332179930795846%
38.4083044982699%
38.23529411764706%
38.4083044982699%
37.54325259515571%
37.0242214532872%
42.04152249134948%
43.42560553633218%
41.003460207612456%
38.062283737024224%
38.23529411764706%
40.484429065743946%
37.88927335640138%
39.792387543252595%
39.61937716262976%
37.37024221453287%
37.54325259515571%
37.19723183391003%
37.19723183391003%
38.23529411764706%
37.19723183391003%
37.19723183391003%
37.0242214532872%
38.23529411764706%
35.46712802768166%
37.37024221453287%
36.67820069204152%
37.0242214532872%
36.851211072664356%
36.50519031141869%
35.6401384083045%
37.37024221453287%
38.92733564013841%
39.273356401384085%
41.34948096885813%
41.17647058823529%
38.92733564013841%
39.61937716262976%
41.86851211072664%
42.90657439446367%
46.02076124567474%
46.02076124567474%
45.8477508650519%
44.463667820069205%
44.11764705882353%
44.636678200692046%
44.80968858131488%
47.75086505190311%
49.48096885813148%
48.44290657439446%
48.44290657439446%
47.57785467128028%
46.88581314878893%
46.02076124567474%
44.636678200692046%
45.501730103806224%
45.32871972318339%
44.29065743944637%
44.11764705882353%
45.501730103806224%
46.53979238754326%
45.674740484429066%
49.13494809688581%
46.88581314878893%
48.78892733564014%
48.96193771626297%
48.78892733564014%
49.13494809688581%
50.0%
50.17301038062284%
49.82698961937716%
48.96193771626297%
48.78892733564014%
47.40484429065744%
47.92387543252595%
47.40484429065744%
47.92387543252595%
48.44290657439446%
49.48096885813148%
46.53979238754326%
46.36678200692042%
45.8477508650519%
46.02076124567474%
44.80968858131488%
45.674740484429066%
45.32871972318339%
45.501730103806224%
44.80968858131488%
45.32871972318339%
47.75086505190311%
48.44290657439446%
48.44290657439446%
47.92387543252595%
48.44290657439446%
47.40484429065744%
47.40484429065744%
47.40484429065744%
47.05882352941176%
46.36678200692042%
46.02076124567474%
46.53979238754326%
47.57785467128028%
43.944636678200695%
43.77162629757785%
43.59861591695502%
45.674740484429066%
45.32871972318339%
44.982698961937714%
43.25259515570934%
44.463667820069205%
43.59861591695502%
43.25259515570934%
43.59861591695502%
42.56055363321799%
43.0795847750865%
42.38754325259516%
44.29065743944637%
43.77162629757785%
49.30795847750865%
53.806228373702425%
54.844290657439444%
52.595155709342556%
51.55709342560554%
48.44290657439446%
48.78892733564014%
49.48096885813148%
51.03806228373703%
47.40484429065744%
45.8477508650519%
47.57785467128028%
47.75086505190311%
47.2318339100346%
46.19377162629758%
45.674740484429066%
43.77162629757785%
43.77162629757785%
43.944636678200695%
44.29065743944637%
41.69550173010381%
41.522491349480966%
46.53979238754326%
49.13494809688581%
48.44290657439446%
49.30795847750865%
49.30795847750865%
49.653979238754324%
51.03806228373703%
49.82698961937716%
50.51903114186851%
49.653979238754324%
49.82698961937716%
50.17301038062284%
48.44290657439446%
47.2318339100346%
47.75086505190311%
47.57785467128028%
46.88581314878893%
47.92387543252595%
48.96193771626297%
48.615916955017305%
47.40484429065744%
46.88581314878893%
47.2318339100346%
47.57785467128028%
49.13494809688581%
48.96193771626297%
50.17301038062284%
48.615916955017305%
48.44290657439446%
47.57785467128028%
49.653979238754324%
45.8477508650519%
47.40484429065744%
47.92387543252595%
45.32871972318339%
43.944636678200695%
41.34948096885813%
41.34948096885813%
41.17647058823529%
41.69550173010381%
41.86851211072664%
41.86851211072664%
41.34948096885813%
41.86851211072664%
44.982698961937714%
45.32871972318339%
42.90657439446367%
47.92387543252595%
48.96193771626297%
46.36678200692042%
47.05882352941176%
44.636678200692046%
44.982698961937714%
43.944636678200695%
47.40484429065744%
47.40484429065744%
44.29065743944637%
41.17647058823529%
36.15916955017301%
35.98615916955018%
37.37024221453287%
37.19723183391003%
37.54325259515571%
37.19723183391003%
35.294117647058826%
36.67820069204152%
36.851211072664356%
37.71626297577855%
38.581314878892734%
35.6401384083045%
35.294117647058826%
35.98615916955018%
35.98615916955018%
35.6401384083045%
36.15916955017301%
39.44636678200692%
38.92733564013841%
41.86851211072664%
43.25259515570934%
39.44636678200692%
38.581314878892734%
38.581314878892734%
37.54325259515571%
38.23529411764706%
38.75432525951557%
40.830449826989614%
42.56055363321799%
42.04152249134948%
46.36678200692042%
47.40484429065744%
47.05882352941176%
46.71280276816609%
46.71280276816609%
46.53979238754326%
47.75086505190311%
42.38754325259516%
42.21453287197232%
39.61937716262976%
37.37024221453287%
37.54325259515571%
35.813148788927336%
32.00692041522492%
37.54325259515571%
39.10034602076124%
33.56401384083045%
33.56401384083045%
33.391003460207614%
33.56401384083045%
33.391003460207614%
33.56401384083045%
32.00692041522492%
32.17993079584775%
32.17993079584775%
32.17993079584775%
32.17993079584775%
32.35294117647059%
32.52595155709342%
31.314878892733567%
31.66089965397924%
35.6401384083045%
33.910034602076124%
30.96885813148789%
30.96885813148789%
29.411764705882355%
30.44982698961938%
30.103806228373703%
30.103806228373703%
30.44982698961938%
30.44982698961938%
30.276816608996537%
30.103806228373703%
29.757785467128027%
30.44982698961938%
30.96885813148789%
31.141868512110726%
29.238754325259514%
28.719723183391004%
29.06574394463668%
28.892733564013838%
30.276816608996537%
28.719723183391004%
29.58477508650519%
29.58477508650519%
29.757785467128027%
30.103806228373703%
29.238754325259514%
28.027681660899656%
28.892733564013838%
27.854671280276815%
27.162629757785467%
28.719723183391004%
31.833910034602077%
26.297577854671278%
25.77854671280277%
26.989619377162633%
26.643598615916954%
27.68166089965398%
27.854671280276815%
28.027681660899656%
29.58477508650519%
27.33564013840831%
28.546712802768166%
30.79584775086505%
30.276816608996537%
29.757785467128027%
28.373702422145332%
29.06574394463668%
27.854671280276815%
27.162629757785467%
27.68166089965398%
28.20069204152249%
27.68166089965398%
29.411764705882355%
27.508650519031143%
28.546712802768166%
26.81660899653979%
25.77854671280277%
26.989619377162633%
28.027681660899656%
26.643598615916954%
27.162629757785467%
27.508650519031143%
28.027681660899656%
28.546712802768166%
27.854671280276815%
27.508650519031143%
26.989619377162633%
26.47058823529412%
25.259515570934255%
28.20069204152249%
28.20069204152249%
28.20069204152249%
30.96885813148789%
31.4878892733564%
31.314878892733567%
34.2560553633218%
34.602076124567475%
35.98615916955018%
34.77508650519031%
35.813148788927336%
37.54325259515571%
38.4083044982699%
37.71626297577855%
36.332179930795846%
36.851211072664356%
36.851211072664356%
34.42906574394463%
34.94809688581315%
37.37024221453287%
37.54325259515571%
36.332179930795846%
39.10034602076124%
38.4083044982699%
37.0242214532872%
38.581314878892734%
39.44636678200692%
41.69550173010381%
41.86851211072664%
42.56055363321799%
43.0795847750865%
45.501730103806224%
44.29065743944637%
46.36678200692042%
43.42560553633218%
46.02076124567474%
43.944636678200695%
44.636678200692046%
45.32871972318339%
43.42560553633218%
44.463667820069205%
44.463667820069205%
44.636678200692046%
45.501730103806224%
45.32871972318339%
45.15570934256055%
45.674740484429066%
40.830449826989614%
43.0795847750865%
42.733564013840834%
43.944636678200695%
39.61937716262976%
36.67820069204152%
33.73702422145329%
33.73702422145329%
33.73702422145329%
34.083044982698965%
33.910034602076124%
33.73702422145329%
33.73702422145329%
33.73702422145329%
33.73702422145329%
33.73702422145329%
33.73702422145329%
33.73702422145329%
33.73702422145329%
33.73702422145329%
33.73702422145329%
33.73702422145329%
33.73702422145329%
33.73702422145329%
33.73702422145329%
33.73702422145329%
33.73702422145329%
33.73702422145329%
33.73702422145329%
33.73702422145329%
33.73702422145329%
33.73702422145329%
33.73702422145329%
33.73702422145329%
33.73702422145329%
33.73702422145329%
33.73702422145329%
33.73702422145329%
33.73702422145329%
33.73702422145329%
33.73702422145329%
33.73702422145329%
33.73702422145329%
33.73702422145329%
33.73702422145329%
33.73702422145329%
33.73702422145329%
33.73702422145329%
33.73702422145329%
33.73702422145329%
33.73702422145329%
33.73702422145329%
33.73702422145329%
33.73702422145329%
33.73702422145329%
33.73702422145329%
33.73702422145329%
33.73702422145329%
33.73702422145329%
33.73702422145329%
33.73702422145329%
33.73702422145329%
33.73702422145329%
33.73702422145329%
33.73702422145329%
33.73702422145329%
33.73702422145329%
33.73702422145329%
33.73702422145329%
33.73702422145329%
33.73702422145329%
33.73702422145329%
33.73702422145329%
33.73702422145329%
33.73702422145329%
33.73702422145329%
33.73702422145329%
33.73702422145329%
33.73702422145329%
33.73702422145329%
33.73702422145329%
33.73702422145329%
33.73702422145329%
33.73702422145329%
33.73702422145329%
