100.0%
94.98269896193771%
92.73356401384083%
87.37024221453287%
89.44636678200692%
85.6401384083045%
93.07958477508652%
93.9446366782007%
87.37024221453287%
79.58477508650519%
84.94809688581316%
81.4878892733564%
81.31487889273356%
81.66089965397923%
86.50519031141869%
76.29757785467129%
79.93079584775087%
76.64359861591696%
67.99307958477509%
89.27335640138409%
87.0242214532872%
83.39100346020761%
84.77508650519032%
87.0242214532872%
89.10034602076125%
72.83737024221453%
70.41522491349481%
83.91003460207612%
82.8719723183391%
74.74048442906575%
77.68166089965398%
69.37716262975778%
67.1280276816609%
78.719723183391%
78.89273356401384%
71.45328719723183%
74.74048442906575%
62.28373702422145%
62.28373702422145%
74.91349480968859%
80.79584775086505%
84.77508650519032%
72.31833910034602%
71.97231833910035%
75.77854671280276%
70.41522491349481%
69.37716262975778%
77.68166089965398%
82.00692041522491%
70.24221453287197%
67.1280276816609%
72.49134948096886%
70.24221453287197%
71.280276816609%
70.06920415224913%
57.61245674740484%
74.22145328719724%
60.034602076124564%
66.78200692041523%
62.11072664359861%
67.1280276816609%
60.207612456747405%
84.77508650519032%
82.8719723183391%
75.9515570934256%
72.49134948096886%
85.29411764705883%
78.54671280276817%
72.49134948096886%
37.54325259515571%
45.15570934256055%
63.84083044982699%
71.10726643598616%
67.99307958477509%
60.034602076124564%
63.32179930795848%
44.80968858131488%
42.56055363321799%
64.70588235294117%
69.37716262975778%
59.16955017301038%
49.13494809688581%
70.76124567474048%
69.37716262975778%
85.6401384083045%
74.0484429065744%
79.41176470588235%
82.52595155709342%
80.44982698961938%
64.87889273356402%
70.24221453287197%
68.68512110726644%
62.28373702422145%
68.85813148788927%
74.74048442906575%
72.14532871972318%
67.30103806228374%
68.5121107266436%
48.09688581314879%
70.06920415224913%
61.245674740484425%
57.266435986159166%
33.21799307958477%
53.979238754325266%
52.94117647058824%
64.18685121107266%
67.30103806228374%
58.13148788927336%
43.25259515570934%
40.13840830449827%
39.61937716262976%
42.56055363321799%
50.0%
47.75086505190311%
39.792387543252595%
39.10034602076124%
50.0%
59.688581314878896%
47.40484429065744%
49.653979238754324%
52.42214532871973%
57.266435986159166%
58.99653979238755%
47.92387543252595%
52.42214532871973%
48.78892733564014%
53.979238754325266%
54.325259515570934%
32.69896193771626%
31.141868512110726%
37.19723183391003%
39.965397923875436%
42.90657439446367%
49.82698961937716%
70.58823529411765%
63.32179930795848%
64.53287197231833%
45.8477508650519%
44.11764705882353%
50.86505190311419%
39.61937716262976%
59.688581314878896%
59.515570934256054%
59.86159169550172%
45.8477508650519%
49.30795847750865%
33.391003460207614%
43.59861591695502%
59.86159169550172%
49.82698961937716%
57.09342560553633%
49.82698961937716%
52.42214532871973%
38.581314878892734%
37.54325259515571%
55.19031141868512%
54.498269896193776%
60.89965397923876%
48.09688581314879%
38.062283737024224%
41.86851211072664%
60.207612456747405%
42.733564013840834%
43.944636678200695%
37.54325259515571%
35.813148788927336%
37.88927335640138%
44.463667820069205%
48.78892733564014%
43.0795847750865%
46.71280276816609%
45.674740484429066%
44.80968858131488%
48.26989619377163%
43.0795847750865%
63.49480968858131%
63.32179930795848%
57.785467128027676%
57.785467128027676%
52.42214532871973%
41.522491349480966%
45.15570934256055%
41.003460207612456%
40.830449826989614%
43.25259515570934%
43.944636678200695%
37.37024221453287%
38.4083044982699%
34.77508650519031%
37.71626297577855%
37.88927335640138%
40.31141868512111%
43.59861591695502%
40.830449826989614%
45.15570934256055%
44.80968858131488%
43.77162629757785%
37.88927335640138%
33.73702422145329%
33.73702422145329%
42.21453287197232%
35.6401384083045%
36.15916955017301%
39.965397923875436%
41.17647058823529%
48.78892733564014%
33.391003460207614%
35.6401384083045%
31.4878892733564%
30.276816608996537%
39.61937716262976%
41.69550173010381%
41.17647058823529%
42.56055363321799%
32.35294117647059%
31.4878892733564%
33.391003460207614%
44.982698961937714%
51.903114186851205%
53.46020761245674%
53.11418685121107%
50.51903114186851%
42.38754325259516%
42.56055363321799%
42.733564013840834%
43.25259515570934%
43.0795847750865%
39.61937716262976%
49.13494809688581%
36.15916955017301%
33.73702422145329%
48.78892733564014%
49.82698961937716%
46.71280276816609%
38.062283737024224%
38.581314878892734%
33.56401384083045%
33.56401384083045%
34.083044982698965%
38.23529411764706%
34.94809688581315%
38.4083044982699%
38.23529411764706%
37.0242214532872%
33.56401384083045%
33.391003460207614%
34.42906574394463%
44.636678200692046%
46.36678200692042%
44.29065743944637%
44.982698961937714%
37.54325259515571%
29.06574394463668%
30.622837370242213%
34.083044982698965%
34.42906574394463%
35.46712802768166%
33.391003460207614%
33.73702422145329%
53.28719723183391%
40.830449826989614%
48.26989619377163%
26.989619377162633%
42.21453287197232%
42.56055363321799%
40.484429065743946%
45.501730103806224%
46.19377162629758%
33.73702422145329%
35.6401384083045%
37.37024221453287%
35.6401384083045%
56.40138408304498%
43.25259515570934%
43.25259515570934%
43.42560553633218%
47.40484429065744%
40.65743944636678%
48.44290657439446%
49.13494809688581%
36.15916955017301%
32.00692041522492%
36.15916955017301%
34.083044982698965%
37.71626297577855%
34.2560553633218%
39.10034602076124%
43.25259515570934%
43.0795847750865%
42.733564013840834%
56.05536332179931%
44.29065743944637%
45.501730103806224%
44.636678200692046%
45.501730103806224%
44.982698961937714%
46.88581314878893%
37.19723183391003%
34.2560553633218%
33.73702422145329%
38.75432525951557%
41.003460207612456%
38.23529411764706%
43.0795847750865%
42.04152249134948%
44.982698961937714%
39.10034602076124%
34.2560553633218%
34.42906574394463%
26.643598615916954%
30.622837370242213%
50.51903114186851%
47.40484429065744%
50.69204152249135%
39.61937716262976%
37.71626297577855%
36.15916955017301%
36.50519031141869%
33.73702422145329%
46.19377162629758%
41.34948096885813%
57.09342560553633%
55.536332179930795%
52.42214532871973%
53.46020761245674%
41.003460207612456%
42.38754325259516%
42.733564013840834%
43.59861591695502%
50.0%
52.42214532871973%
46.53979238754326%
34.77508650519031%
34.2560553633218%
34.083044982698965%
40.484429065743946%
34.42906574394463%
46.02076124567474%
47.92387543252595%
55.36332179930796%
53.806228373702425%
49.48096885813148%
30.622837370242213%
43.0795847750865%
45.15570934256055%
50.17301038062284%
51.03806228373703%
35.98615916955018%
28.20069204152249%
31.314878892733567%
33.73702422145329%
33.73702422145329%
33.910034602076124%
36.67820069204152%
38.23529411764706%
38.4083044982699%
31.4878892733564%
37.37024221453287%
37.37024221453287%
44.29065743944637%
49.30795847750865%
54.15224913494809%
35.813148788927336%
36.851211072664356%
37.71626297577855%
44.29065743944637%
47.92387543252595%
46.19377162629758%
46.71280276816609%
41.86851211072664%
40.484429065743946%
45.8477508650519%
28.719723183391004%
36.851211072664356%
39.792387543252595%
43.77162629757785%
42.733564013840834%
42.56055363321799%
26.124567474048444%
35.6401384083045%
29.411764705882355%
40.31141868512111%
33.73702422145329%
33.04498269896194%
26.124567474048444%
48.44290657439446%
44.463667820069205%
42.733564013840834%
34.2560553633218%
34.083044982698965%
28.546712802768166%
34.94809688581315%
35.98615916955018%
35.46712802768166%
24.91349480968858%
25.951557093425603%
27.68166089965398%
27.508650519031143%
27.854671280276815%
37.37024221453287%
30.79584775086505%
29.411764705882355%
43.0795847750865%
36.50519031141869%
48.26989619377163%
47.75086505190311%
39.61937716262976%
40.484429065743946%
40.13840830449827%
33.21799307958477%
48.26989619377163%
44.982698961937714%
52.595155709342556%
45.15570934256055%
33.910034602076124%
33.73702422145329%
33.73702422145329%
33.73702422145329%
27.68166089965398%
26.989619377162633%
26.124567474048444%
35.98615916955018%
34.083044982698965%
35.121107266435985%
42.733564013840834%
42.56055363321799%
37.19723183391003%
35.294117647058826%
35.121107266435985%
28.027681660899656%
33.910034602076124%
33.73702422145329%
33.73702422145329%
31.833910034602077%
34.083044982698965%
37.71626297577855%
31.141868512110726%
40.484429065743946%
40.484429065743946%
41.34948096885813%
33.73702422145329%
33.73702422145329%
34.083044982698965%
34.083044982698965%
33.73702422145329%
34.083044982698965%
30.44982698961938%
36.851211072664356%
44.29065743944637%
44.636678200692046%
25.951557093425603%
25.951557093425603%
25.951557093425603%
25.951557093425603%
33.73702422145329%
35.121107266435985%
33.910034602076124%
34.2560553633218%
33.391003460207614%
25.08650519031142%
25.77854671280277%
22.664359861591695%
40.13840830449827%
41.34948096885813%
44.80968858131488%
47.57785467128028%
43.0795847750865%
26.643598615916954%
25.951557093425603%
26.124567474048444%
25.951557093425603%
25.951557093425603%
27.33564013840831%
25.259515570934255%
25.951557093425603%
27.68166089965398%
41.34948096885813%
45.15570934256055%
35.46712802768166%
33.73702422145329%
35.6401384083045%
33.73702422145329%
33.73702422145329%
33.73702422145329%
33.910034602076124%
35.98615916955018%
35.294117647058826%
29.06574394463668%
34.77508650519031%
36.15916955017301%
29.238754325259514%
34.083044982698965%
34.77508650519031%
36.332179930795846%
25.951557093425603%
26.643598615916954%
33.73702422145329%
40.13840830449827%
40.31141868512111%
34.602076124567475%
36.851211072664356%
39.965397923875436%
30.622837370242213%
28.546712802768166%
41.003460207612456%
32.00692041522492%
36.67820069204152%
34.2560553633218%
31.314878892733567%
31.141868512110726%
37.54325259515571%
30.622837370242213%
33.910034602076124%
32.8719723183391%
33.04498269896194%
33.73702422145329%
31.833910034602077%
34.083044982698965%
32.00692041522492%
31.314878892733567%
33.56401384083045%
34.94809688581315%
37.0242214532872%
33.04498269896194%
34.2560553633218%
35.46712802768166%
31.833910034602077%
41.86851211072664%
42.90657439446367%
29.757785467128027%
46.02076124567474%
41.69550173010381%
33.73702422145329%
33.910034602076124%
39.792387543252595%
32.52595155709342%
32.8719723183391%
32.52595155709342%
33.04498269896194%
34.2560553633218%
32.35294117647059%
33.910034602076124%
33.73702422145329%
33.73702422145329%
33.73702422145329%
33.73702422145329%
30.622837370242213%
33.73702422145329%
39.792387543252595%
25.77854671280277%
26.643598615916954%
25.951557093425603%
26.989619377162633%
25.951557093425603%
25.951557093425603%
30.44982698961938%
34.083044982698965%
26.297577854671278%
25.951557093425603%
33.73702422145329%
33.73702422145329%
35.813148788927336%
26.124567474048444%
33.73702422145329%
34.083044982698965%
32.17993079584775%
26.124567474048444%
26.124567474048444%
30.44982698961938%
25.951557093425603%
25.951557093425603%
26.124567474048444%
25.60553633217993%
25.951557093425603%
25.60553633217993%
25.951557093425603%
25.951557093425603%
26.124567474048444%
25.951557093425603%
24.567474048442904%
28.20069204152249%
25.77854671280277%
25.77854671280277%
33.04498269896194%
25.951557093425603%
26.124567474048444%
34.77508650519031%
33.910034602076124%
26.989619377162633%
34.083044982698965%
33.910034602076124%
26.47058823529412%
29.58477508650519%
34.42906574394463%
27.33564013840831%
26.81660899653979%
31.314878892733567%
33.73702422145329%
33.73702422145329%
33.910034602076124%
24.91349480968858%
27.33564013840831%
31.314878892733567%
31.314878892733567%
29.93079584775086%
27.68166089965398%
27.854671280276815%
24.74048442906574%
25.951557093425603%
24.39446366782007%
38.581314878892734%
27.508650519031143%
27.508650519031143%
31.4878892733564%
40.31141868512111%
43.77162629757785%
40.31141868512111%
42.90657439446367%
37.71626297577855%
38.581314878892734%
39.965397923875436%
42.04152249134948%
34.602076124567475%
34.77508650519031%
35.46712802768166%
28.20069204152249%
34.602076124567475%
30.622837370242213%
25.60553633217993%
33.73702422145329%
33.73702422145329%
33.391003460207614%
33.73702422145329%
33.73702422145329%
34.2560553633218%
33.73702422145329%
27.854671280276815%
25.77854671280277%
27.162629757785467%
33.73702422145329%
27.68166089965398%
33.73702422145329%
33.73702422145329%
33.73702422145329%
33.73702422145329%
33.73702422145329%
26.124567474048444%
25.951557093425603%
25.951557093425603%
26.297577854671278%
25.951557093425603%
25.951557093425603%
34.2560553633218%
35.46712802768166%
33.391003460207614%
36.67820069204152%
25.951557093425603%
25.951557093425603%
25.951557093425603%
27.162629757785467%
26.989619377162633%
26.81660899653979%
25.951557093425603%
25.951557093425603%
27.33564013840831%
32.69896193771626%
35.46712802768166%
32.52595155709342%
33.04498269896194%
33.391003460207614%
29.411764705882355%
29.06574394463668%
33.73702422145329%
33.56401384083045%
25.951557093425603%
25.951557093425603%
25.951557093425603%
26.47058823529412%
33.73702422145329%
33.73702422145329%
33.73702422145329%
26.643598615916954%
33.73702422145329%
28.20069204152249%
29.411764705882355%
26.297577854671278%
25.951557093425603%
25.951557093425603%
40.31141868512111%
40.31141868512111%
36.15916955017301%
36.67820069204152%
33.391003460207614%
22.491349480968857%
33.73702422145329%
32.52595155709342%
33.73702422145329%
33.73702422145329%
25.951557093425603%
25.951557093425603%
33.56401384083045%
33.73702422145329%
26.47058823529412%
31.833910034602077%
28.027681660899656%
33.73702422145329%
33.73702422145329%
33.73702422145329%
33.56401384083045%
33.21799307958477%
33.73702422145329%
33.391003460207614%
33.73702422145329%
34.602076124567475%
31.4878892733564%
25.951557093425603%
41.86851211072664%
25.951557093425603%
29.238754325259514%
33.73702422145329%
28.20069204152249%
33.73702422145329%
33.73702422145329%
33.73702422145329%
31.833910034602077%
32.35294117647059%
25.951557093425603%
25.951557093425603%
33.56401384083045%
27.508650519031143%
29.238754325259514%
26.643598615916954%
25.951557093425603%
30.44982698961938%
33.04498269896194%
33.73702422145329%
33.73702422145329%
33.73702422145329%
33.73702422145329%
33.73702422145329%
33.73702422145329%
33.73702422145329%
25.951557093425603%
25.951557093425603%
33.73702422145329%
33.56401384083045%
33.21799307958477%
33.73702422145329%
31.833910034602077%
27.508650519031143%
32.52595155709342%
25.951557093425603%
25.951557093425603%
25.951557093425603%
25.951557093425603%
25.951557093425603%
25.951557093425603%
25.951557093425603%
25.951557093425603%
31.314878892733567%
26.989619377162633%
26.989619377162633%
33.73702422145329%
33.56401384083045%
25.951557093425603%
25.951557093425603%
25.951557093425603%
25.951557093425603%
25.951557093425603%
25.951557093425603%
25.951557093425603%
25.951557093425603%
31.314878892733567%
32.69896193771626%
25.951557093425603%
25.951557093425603%
25.951557093425603%
25.951557093425603%
25.951557093425603%
25.951557093425603%
25.951557093425603%
25.951557093425603%
25.951557093425603%
25.951557093425603%
