100.0%
99.82698961937716%
99.48096885813149%
99.30795847750865%
99.13494809688581%
98.96193771626297%
98.78892733564014%
98.44290657439446%
98.26989619377161%
95.67474048442907%
95.8477508650519%
96.02076124567473%
95.50173010380622%
95.50173010380622%
95.15570934256056%
94.80968858131487%
94.98269896193771%
94.98269896193771%
94.98269896193771%
95.32871972318338%
94.98269896193771%
94.80968858131487%
94.80968858131487%
94.11764705882352%
93.25259515570934%
93.07958477508652%
93.07958477508652%
92.04152249134948%
92.04152249134948%
91.52249134948097%
91.86851211072664%
91.6955017301038%
87.19723183391004%
85.98615916955016%
85.29411764705883%
85.29411764705883%
85.6401384083045%
86.85121107266436%
86.85121107266436%
87.0242214532872%
87.19723183391004%
87.5432525951557%
87.88927335640139%
87.19723183391004%
87.0242214532872%
87.19723183391004%
87.5432525951557%
88.23529411764706%
88.06228373702422%
87.88927335640139%
76.47058823529412%
76.47058823529412%
75.77854671280276%
76.12456747404845%
74.22145328719724%
74.5674740484429%
73.70242214532871%
73.52941176470588%
73.01038062283737%
70.93425605536332%
70.41522491349481%
69.55017301038062%
70.06920415224913%
70.24221453287197%
69.8961937716263%
70.41522491349481%
70.06920415224913%
69.37716262975778%
71.10726643598616%
56.40138408304498%
56.05536332179931%
55.88235294117647%
56.747404844290664%
55.70934256055363%
55.536332179930795%
56.22837370242214%
55.70934256055363%
55.017301038062286%
56.05536332179931%
55.70934256055363%
55.70934256055363%
55.536332179930795%
54.67128027681662%
54.67128027681662%
56.747404844290664%
56.40138408304498%
57.95847750865052%
56.57439446366782%
56.747404844290664%
56.57439446366782%
57.61245674740484%
55.88235294117647%
55.88235294117647%
54.67128027681662%
55.36332179930796%
55.19031141868512%
55.017301038062286%
54.844290657439444%
56.40138408304498%
54.498269896193776%
54.67128027681662%
54.67128027681662%
56.747404844290664%
57.09342560553633%
57.09342560553633%
56.40138408304498%
55.88235294117647%
56.57439446366782%
55.017301038062286%
55.19031141868512%
55.36332179930796%
54.67128027681662%
54.15224913494809%
53.806228373702425%
53.46020761245674%
53.979238754325266%
60.726643598615915%
61.76470588235294%
61.245674740484425%
62.28373702422145%
62.28373702422145%
62.28373702422145%
61.93771626297578%
62.45674740484429%
62.80276816608996%
62.45674740484429%
59.688581314878896%
60.034602076124564%
59.688581314878896%
58.82352941176471%
59.688581314878896%
59.86159169550172%
58.99653979238755%
58.82352941176471%
59.86159169550172%
58.65051903114187%
58.13148788927336%
55.88235294117647%
56.05536332179931%
57.785467128027676%
57.266435986159166%
58.13148788927336%
57.785467128027676%
57.61245674740484%
57.266435986159166%
56.57439446366782%
55.19031141868512%
55.70934256055363%
51.903114186851205%
52.595155709342556%

52.24913494809689%
51.21107266435986%
51.21107266435986%
50.17301038062284%
48.96193771626297%
49.13494809688581%
48.09688581314879%
39.10034602076124%
38.062283737024224%
37.71626297577855%
38.062283737024224%
38.4083044982699%
38.581314878892734%
38.581314878892734%
39.10034602076124%
39.10034602076124%
38.4083044982699%
38.23529411764706%
37.88927335640138%
38.4083044982699%
38.75432525951557%
38.75432525951557%
38.75432525951557%
38.581314878892734%
38.581314878892734%
38.581314878892734%
38.23529411764706%
38.75432525951557%
39.61937716262976%
39.792387543252595%
39.61937716262976%
39.61937716262976%
39.273356401384085%
39.44636678200692%
39.10034602076124%
38.581314878892734%
38.581314878892734%
37.88927335640138%
37.71626297577855%
38.062283737024224%
37.88927335640138%
37.54325259515571%
37.71626297577855%
37.71626297577855%
37.88927335640138%
38.4083044982699%
37.54325259515571%
37.54325259515571%
38.062283737024224%
37.71626297577855%
37.88927335640138%
37.54325259515571%
37.37024221453287%
36.67820069204152%
34.083044982698965%
33.391003460207614%
33.391003460207614%
33.910034602076124%
34.083044982698965%
33.56401384083045%
33.21799307958477%
33.56401384083045%
33.910034602076124%
33.391003460207614%
33.391003460207614%
33.56401384083045%
33.391003460207614%
33.910034602076124%
33.391003460207614%
33.21799307958477%
33.04498269896194%
33.21799307958477%
33.04498269896194%
32.69896193771626%
32.35294117647059%
32.52595155709342%
32.17993079584775%
32.69896193771626%
32.69896193771626%
32.52595155709342%
32.17993079584775%
32.17993079584775%
31.4878892733564%
31.833910034602077%
31.4878892733564%
31.4878892733564%
31.4878892733564%
30.79584775086505%
30.622837370242213%
30.96885813148789%
31.314878892733567%
31.314878892733567%
30.96885813148789%
30.96885813148789%
30.96885813148789%
31.141868512110726%
31.314878892733567%
31.314878892733567%
32.00692041522492%
32.52595155709342%
32.69896193771626%
32.52595155709342%
32.00692041522492%
32.00692041522492%
32.35294117647059%
32.35294117647059%
32.35294117647059%
32.69896193771626%
32.52595155709342%
32.00692041522492%
31.4878892733564%
31.314878892733567%
31.4878892733564%
31.66089965397924%
31.4878892733564%
32.00692041522492%
31.66089965397924%
31.66089965397924%
31.4878892733564%
32.00692041522492%
32.17993079584775%
32.17993079584775%
32.00692041522492%
31.66089965397924%
31.66089965397924%
31.314878892733567%
31.314878892733567%
31.4878892733564%
31.4878892733564%
32.17993079584775%
31.833910034602077%
32.35294117647059%
32.8719723183391%
32.69896193771626%
32.69896193771626%
32.35294117647059%
32.35294117647059%
32.52595155709342%
32.52595155709342%
32.52595155709342%
32.17993079584775%
32.8719723183391%
33.04498269896194%
32.69896193771626%
32.17993079584775%
32.35294117647059%
31.833910034602077%
31.833910034602077%
32.17993079584775%
31.141868512110726%
30.79584775086505%
31.141868512110726%
31.141868512110726%
30.96885813148789%
30.276816608996537%
30.44982698961938%
30.103806228373703%
30.103806228373703%
29.58477508650519%
29.58477508650519%
30.103806228373703%
30.103806228373703%
30.103806228373703%
29.58477508650519%
29.411764705882355%
29.06574394463668%
29.411764705882355%
29.58477508650519%
29.58477508650519%
29.93079584775086%
29.757785467128027%
30.276816608996537%
30.103806228373703%
29.757785467128027%
30.103806228373703%
29.757785467128027%
29.238754325259514%
29.238754325259514%
29.58477508650519%
29.411764705882355%
29.411764705882355%
29.93079584775086%
29.411764705882355%
29.93079584775086%
29.238754325259514%
28.892733564013838%
28.892733564013838%
29.238754325259514%
29.93079584775086%
30.103806228373703%
30.103806228373703%
31.314878892733567%
36.332179930795846%
36.332179930795846%
36.851211072664356%
37.0242214532872%
35.46712802768166%
35.813148788927336%
35.6401384083045%
36.50519031141869%
36.332179930795846%
35.121107266435985%
34.94809688581315%
34.94809688581315%
35.6401384083045%
35.98615916955018%
35.813148788927336%
35.6401384083045%
36.50519031141869%
35.98615916955018%
34.77508650519031%
34.77508650519031%
34.602076124567475%
34.2560553633218%
34.083044982698965%
34.94809688581315%
33.56401384083045%
33.56401384083045%
33.56401384083045%
33.21799307958477%
34.2560553633218%
33.73702422145329%
33.910034602076124%
33.391003460207614%
34.2560553633218%
34.42906574394463%
34.602076124567475%
34.602076124567475%
34.42906574394463%
34.42906574394463%
34.77508650519031%
34.77508650519031%
34.083044982698965%
34.42906574394463%
35.813148788927336%
35.294117647058826%
36.15916955017301%
35.6401384083045%
35.6401384083045%
36.67820069204152%
36.851211072664356%
36.851211072664356%
37.71626297577855%
37.19723183391003%
37.0242214532872%
38.581314878892734%
38.4083044982699%
38.4083044982699%
37.71626297577855%
38.23529411764706%
35.121107266435985%
36.332179930795846%
36.15916955017301%
36.50519031141869%
36.67820069204152%
35.813148788927336%
35.294117647058826%
35.121107266435985%
36.67820069204152%
38.75432525951557%
38.75432525951557%
39.10034602076124%
39.273356401384085%
38.4083044982699%
39.792387543252595%
41.69550173010381%
41.17647058823529%
42.21453287197232%
42.56055363321799%
42.90657439446367%
43.77162629757785%
50.69204152249135%
51.384083044982695%
50.17301038062284%
49.82698961937716%
51.55709342560554%
53.63321799307958%
53.28719723183391%
52.595155709342556%
52.94117647058824%
52.7681660899654%
51.73010380622838%
53.28719723183391%
54.325259515570934%
55.70934256055363%
55.19031141868512%
55.017301038062286%
53.46020761245674%
52.94117647058824%
53.46020761245674%
52.42214532871973%
52.7681660899654%
52.42214532871973%
52.42214532871973%
52.94117647058824%
54.844290657439444%
55.19031141868512%
55.88235294117647%
55.88235294117647%
57.43944636678201%
56.22837370242214%
55.70934256055363%
55.19031141868512%
57.95847750865052%
56.05536332179931%
55.88235294117647%
55.36332179930796%
55.88235294117647%
57.266435986159166%
57.266435986159166%
55.70934256055363%
57.266435986159166%
57.09342560553633%
56.57439446366782%
56.92041522491349%
57.09342560553633%
57.09342560553633%
57.09342560553633%
57.266435986159166%
56.22837370242214%
55.88235294117647%
55.36332179930796%
55.70934256055363%
56.22837370242214%
54.325259515570934%
55.017301038062286%
54.67128027681662%
54.844290657439444%
56.05536332179931%
56.05536332179931%
56.05536332179931%
55.88235294117647%
55.70934256055363%
54.67128027681662%
53.806228373702425%
53.806228373702425%
53.11418685121107%
53.11418685121107%
53.11418685121107%
51.903114186851205%
52.595155709342556%
52.07612456747405%
53.806228373702425%
54.15224913494809%
54.498269896193776%
54.15224913494809%
52.595155709342556%
53.11418685121107%
50.0%
50.34602076124568%
50.69204152249135%
47.05882352941176%
47.2318339100346%
47.05882352941176%
48.09688581314879%
48.44290657439446%
48.26989619377163%
48.26989619377163%
48.09688581314879%
48.96193771626297%
49.30795847750865%
45.15570934256055%
46.53979238754326%
46.71280276816609%
45.8477508650519%
43.0795847750865%
41.17647058823529%
41.86851211072664%
41.69550173010381%
41.34948096885813%
44.80968858131488%
45.32871972318339%
44.982698961937714%
44.982698961937714%
45.15570934256055%
44.982698961937714%
45.501730103806224%
44.982698961937714%
45.501730103806224%
46.02076124567474%
46.19377162629758%
47.40484429065744%
48.615916955017305%
48.615916955017305%
48.26989619377163%
48.26989619377163%
48.26989619377163%
47.40484429065744%
48.09688581314879%
48.44290657439446%
48.09688581314879%
48.78892733564014%
47.75086505190311%
47.05882352941176%
47.57785467128028%
48.09688581314879%
50.86505190311419%
51.21107266435986%
45.32871972318339%
46.36678200692042%
46.53979238754326%
46.02076124567474%
43.944636678200695%
43.944636678200695%
41.17647058823529%
41.003460207612456%
42.90657439446367%
42.56055363321799%
40.484429065743946%
43.59861591695502%
43.77162629757785%
44.11764705882353%
44.80968858131488%
45.501730103806224%
44.982698961937714%
45.32871972318339%
45.15570934256055%
44.80968858131488%
44.29065743944637%
44.80968858131488%
45.32871972318339%
45.8477508650519%
45.8477508650519%
45.8477508650519%
46.71280276816609%
45.8477508650519%
45.8477508650519%
45.8477508650519%
45.674740484429066%
45.501730103806224%
45.32871972318339%
46.88581314878893%
46.02076124567474%
45.15570934256055%
45.15570934256055%
45.32871972318339%
44.463667820069205%
43.77162629757785%
43.944636678200695%
43.944636678200695%
44.80968858131488%
44.80968858131488%
44.29065743944637%
45.32871972318339%
45.674740484429066%
45.501730103806224%
44.636678200692046%
42.90657439446367%
43.944636678200695%
43.944636678200695%
44.29065743944637%
44.11764705882353%
44.29065743944637%
44.29065743944637%
44.11764705882353%
43.25259515570934%
44.11764705882353%
44.636678200692046%
45.501730103806224%
45.501730103806224%
44.982698961937714%
44.982698961937714%
44.80968858131488%
44.463667820069205%
44.80968858131488%
43.59861591695502%
44.29065743944637%
44.636678200692046%
44.463667820069205%
43.77162629757785%
43.944636678200695%
44.29065743944637%
44.636678200692046%
45.32871972318339%
44.29065743944637%
43.25259515570934%
42.56055363321799%
42.21453287197232%
42.90657439446367%
42.38754325259516%
43.59861591695502%
43.59861591695502%
44.11764705882353%
43.77162629757785%
43.59861591695502%
43.0795847750865%
42.04152249134948%
42.90657439446367%
42.56055363321799%
42.21453287197232%
42.21453287197232%
42.56055363321799%
42.21453287197232%
42.21453287197232%
43.42560553633218%
43.59861591695502%
43.42560553633218%
43.25259515570934%
42.90657439446367%
42.90657439446367%
43.0795847750865%
43.59861591695502%
43.25259515570934%
43.0795847750865%
44.982698961937714%
42.38754325259516%
43.25259515570934%
42.90657439446367%
43.0795847750865%
43.42560553633218%
42.56055363321799%
42.56055363321799%
42.38754325259516%
42.56055363321799%
42.21453287197232%
42.21453287197232%
41.86851211072664%
41.69550173010381%
41.522491349480966%
41.86851211072664%
41.17647058823529%
40.65743944636678%
40.830449826989614%
40.484429065743946%
40.31141868512111%
40.65743944636678%
39.792387543252595%
39.44636678200692%
40.31141868512111%
40.13840830449827%
39.965397923875436%
39.792387543252595%
40.31141868512111%
40.31141868512111%
40.484429065743946%
40.13840830449827%
39.965397923875436%
39.965397923875436%
39.792387543252595%
39.10034602076124%
40.484429065743946%
39.965397923875436%
41.34948096885813%
40.830449826989614%
42.21453287197232%
41.17647058823529%
42.04152249134948%
42.04152249134948%
41.34948096885813%
40.484429065743946%
39.792387543252595%
39.61937716262976%
39.792387543252595%
39.965397923875436%
40.31141868512111%
40.65743944636678%
40.830449826989614%
40.13840830449827%
39.792387543252595%
39.792387543252595%
39.792387543252595%
38.581314878892734%
39.273356401384085%
39.44636678200692%
39.61937716262976%
39.61937716262976%
39.965397923875436%
39.44636678200692%
39.273356401384085%
39.10034602076124%
38.062283737024224%
37.54325259515571%
37.54325259515571%
37.54325259515571%
37.71626297577855%
37.19723183391003%
37.88927335640138%
37.71626297577855%
38.23529411764706%
38.4083044982699%
38.4083044982699%
39.44636678200692%
38.92733564013841%
38.75432525951557%
39.10034602076124%
39.965397923875436%
39.61937716262976%
39.44636678200692%
31.4878892733564%
32.17993079584775%
33.21799307958477%
33.04498269896194%
33.56401384083045%
31.314878892733567%
32.8719723183391%
34.083044982698965%
30.96885813148789%
30.103806228373703%
30.276816608996537%
33.56401384083045%
33.910034602076124%
34.77508650519031%
34.2560553633218%
35.6401384083045%
35.121107266435985%
34.94809688581315%
35.121107266435985%
34.2560553633218%
35.121107266435985%
37.88927335640138%
37.37024221453287%
36.851211072664356%
37.71626297577855%
36.50519031141869%
34.77508650519031%
33.910034602076124%
34.083044982698965%
33.56401384083045%
33.04498269896194%
32.8719723183391%
34.602076124567475%
34.94809688581315%
35.6401384083045%
35.46712802768166%
36.332179930795846%
36.851211072664356%
35.813148788927336%
24.91349480968858%
25.08650519031142%
25.259515570934255%
25.951557093425603%
25.432525951557096%
25.77854671280277%
40754
