100.0%
97.92387543252595%
97.92387543252595%
97.75086505190312%
97.75086505190312%
97.75086505190312%
96.53979238754326%
93.07958477508652%
93.59861591695503%
93.59861591695503%
93.42560553633218%
93.42560553633218%
93.59861591695503%
89.44636678200692%
86.50519031141869%
86.33217993079585%
85.46712802768167%
84.77508650519032%
83.91003460207612%
84.94809688581316%
83.21799307958477%
83.21799307958477%
83.56401384083046%
83.39100346020761%
82.35294117647058%
81.66089965397923%
81.83391003460207%
83.73702422145328%
82.17993079584775%
73.70242214532871%
73.52941176470588%
72.49134948096886%
58.65051903114187%
58.47750865051903%
58.47750865051903%
59.34256055363322%
59.16955017301038%
57.43944636678201%
57.09342560553633%
57.785467128027676%
57.95847750865052%
58.13148788927336%
58.99653979238755%
59.86159169550172%
59.86159169550172%
59.86159169550172%
59.688581314878896%
59.688581314878896%
60.034602076124564%
59.86159169550172%
63.667820069204154%
63.84083044982699%
67.47404844290658%
66.78200692041523%
67.64705882352942%
67.47404844290658%
68.85813148788927%
67.64705882352942%
68.33910034602077%
67.30103806228374%
66.60899653979239%
66.60899653979239%
66.95501730103807%
66.95501730103807%
66.08996539792388%
67.1280276816609%
67.30103806228374%
65.57093425605537%
66.08996539792388%
64.3598615916955%
63.84083044982699%
63.49480968858131%
64.53287197231833%
62.45674740484429%
62.11072664359861%
62.629757785467135%
62.9757785467128%
65.22491349480968%
65.7439446366782%
66.78200692041523%
66.60899653979239%
65.91695501730104%
66.60899653979239%
60.726643598615915%
58.65051903114187%
58.3044982698962%
58.13148788927336%
58.3044982698962%
57.09342560553633%
56.747404844290664%
57.09342560553633%
56.747404844290664%
56.92041522491349%
57.61245674740484%
56.40138408304498%
57.09342560553633%
54.15224913494809%
55.88235294117647%
55.017301038062286%
54.844290657439444%
55.36332179930796%
56.40138408304498%
56.22837370242214%
55.88235294117647%
56.40138408304498%
55.36332179930796%
56.22837370242214%
55.70934256055363%
47.2318339100346%
46.71280276816609%
46.53979238754326%
46.71280276816609%
45.8477508650519%
46.19377162629758%
46.88581314878893%
48.09688581314879%
47.40484429065744%
46.88581314878893%
47.2318339100346%
46.02076124567474%
45.501730103806224%
45.501730103806224%
45.8477508650519%
46.53979238754326%
46.02076124567474%
46.71280276816609%
46.36678200692042%
43.944636678200695%
43.77162629757785%
44.29065743944637%
43.0795847750865%
44.11764705882353%
44.11764705882353%
45.32871972318339%
45.15570934256055%
45.501730103806224%
45.8477508650519%
45.8477508650519%
45.8477508650519%
43.59861591695502%
43.944636678200695%
44.29065743944637%
44.11764705882353%
43.25259515570934%
42.90657439446367%
40.65743944636678%
39.965397923875436%
39.965397923875436%
39.44636678200692%
40.13840830449827%
40.13840830449827%
39.965397923875436%
38.581314878892734%
38.4083044982699%
38.92733564013841%
40.830449826989614%
41.17647058823529%
40.830449826989614%
40.65743944636678%
41.86851211072664%
41.17647058823529%
41.17647058823529%
41.17647058823529%
41.34948096885813%
40.830449826989614%
39.61937716262976%
38.75432525951557%
38.75432525951557%
38.75432525951557%
38.062283737024224%
37.71626297577855%
37.37024221453287%
37.37024221453287%
36.851211072664356%
37.19723183391003%
36.67820069204152%
36.50519031141869%
36.67820069204152%
37.88927335640138%
38.4083044982699%
36.851211072664356%
36.851211072664356%
36.67820069204152%
36.67820069204152%
36.50519031141869%
36.67820069204152%
36.67820069204152%
37.0242214532872%
37.71626297577855%
37.37024221453287%
37.19723183391003%
37.19723183391003%
35.813148788927336%
36.67820069204152%
36.15916955017301%
35.98615916955018%
36.50519031141869%
36.15916955017301%
36.50519031141869%
35.294117647058826%
34.94809688581315%
35.46712802768166%
35.294117647058826%
36.332179930795846%
36.50519031141869%
36.332179930795846%
35.294117647058826%
34.602076124567475%
34.77508650519031%
34.77508650519031%
34.77508650519031%
34.602076124567475%
33.73702422145329%
34.083044982698965%
33.910034602076124%
33.910034602076124%
33.21799307958477%
33.21799307958477%
33.21799307958477%
33.21799307958477%
33.56401384083045%
33.04498269896194%
32.35294117647059%
32.52595155709342%
32.8719723183391%
32.35294117647059%
32.69896193771626%
33.04498269896194%
33.21799307958477%
33.21799307958477%
32.69896193771626%
32.8719723183391%
32.17993079584775%
32.17993079584775%
32.00692041522492%
32.35294117647059%
32.35294117647059%
32.35294117647059%
31.833910034602077%
32.35294117647059%
32.00692041522492%
32.00692041522492%
32.00692041522492%
31.66089965397924%
31.141868512110726%
31.141868512110726%
31.314878892733567%
31.4878892733564%
33.391003460207614%
33.21799307958477%
33.391003460207614%
33.391003460207614%
33.73702422145329%
33.56401384083045%
33.21799307958477%
32.8719723183391%
33.04498269896194%
33.391003460207614%
33.21799307958477%
33.391003460207614%
33.391003460207614%
33.391003460207614%
33.21799307958477%
33.391003460207614%
33.04498269896194%
33.21799307958477%
33.21799307958477%
33.21799307958477%
33.21799307958477%
33.391003460207614%
33.04498269896194%
33.21799307958477%
32.52595155709342%
33.04498269896194%
32.69896193771626%
32.52595155709342%
32.17993079584775%
33.21799307958477%
33.21799307958477%
32.69896193771626%
32.52595155709342%
33.04498269896194%
33.04498269896194%
33.04498269896194%
33.73702422145329%
33.391003460207614%
33.56401384083045%
33.56401384083045%
33.391003460207614%
32.69896193771626%
32.52595155709342%
32.52595155709342%
32.69896193771626%
32.69896193771626%
33.04498269896194%
33.391003460207614%
33.21799307958477%
33.391003460207614%
32.69896193771626%
31.4878892733564%
31.4878892733564%
31.66089965397924%
31.4878892733564%
31.833910034602077%
31.833910034602077%
31.66089965397924%
31.66089965397924%
31.4878892733564%
31.314878892733567%
31.314878892733567%
31.4878892733564%
31.66089965397924%
31.66089965397924%
31.833910034602077%
32.00692041522492%
32.00692041522492%
31.833910034602077%
31.833910034602077%
31.66089965397924%
31.833910034602077%
31.66089965397924%
31.4878892733564%
31.4878892733564%
31.4878892733564%
31.66089965397924%
31.4878892733564%
31.314878892733567%
31.314878892733567%
31.141868512110726%
31.141868512110726%
31.833910034602077%
31.833910034602077%
31.833910034602077%
31.66089965397924%
31.4878892733564%
32.17993079584775%
31.833910034602077%
32.17993079584775%
32.17993079584775%
32.00692041522492%
32.17993079584775%
32.35294117647059%
32.35294117647059%
32.8719723183391%
32.8719723183391%
32.8719723183391%
33.21799307958477%
33.21799307958477%
33.04498269896194%
33.21799307958477%
33.21799307958477%
33.04498269896194%
33.04498269896194%
33.04498269896194%
33.21799307958477%
33.21799307958477%
33.21799307958477%
33.391003460207614%
33.21799307958477%
32.8719723183391%
33.04498269896194%
32.8719723183391%
33.04498269896194%
33.04498269896194%
32.8719723183391%
32.69896193771626%
32.8719723183391%
32.8719723183391%
32.8719723183391%
32.8719723183391%
33.21799307958477%
33.21799307958477%
33.04498269896194%
33.04498269896194%
32.8719723183391%
33.04498269896194%
33.04498269896194%
33.21799307958477%
33.21799307958477%
32.8719723183391%
33.21799307958477%
33.04498269896194%
33.391003460207614%
34.2560553633218%
34.083044982698965%
34.083044982698965%
34.2560553633218%
34.083044982698965%
33.56401384083045%
33.73702422145329%
33.910034602076124%
33.73702422145329%
33.910034602076124%
33.391003460207614%
33.73702422145329%
33.56401384083045%
34.083044982698965%
34.94809688581315%
34.602076124567475%
34.602076124567475%
34.2560553633218%
34.2560553633218%
33.73702422145329%
33.910034602076124%
34.083044982698965%
34.083044982698965%
34.94809688581315%
34.77508650519031%
34.77508650519031%
34.602076124567475%
34.42906574394463%
34.42906574394463%
33.73702422145329%
33.910034602076124%
34.94809688581315%
35.121107266435985%
34.77508650519031%
35.294117647058826%
34.602076124567475%
33.391003460207614%
34.2560553633218%
37.19723183391003%
37.37024221453287%
37.37024221453287%
37.37024221453287%
37.0242214532872%
36.50519031141869%
37.54325259515571%
37.71626297577855%
37.37024221453287%
37.19723183391003%
37.0242214532872%
37.0242214532872%
34.77508650519031%
34.77508650519031%
34.94809688581315%
34.77508650519031%
34.77508650519031%
32.00692041522492%
31.833910034602077%
32.17993079584775%
32.00692041522492%
32.17993079584775%
31.4878892733564%
31.66089965397924%
31.833910034602077%
31.66089965397924%
31.314878892733567%
31.141868512110726%
31.4878892733564%
31.141868512110726%
31.314878892733567%
31.314878892733567%
31.314878892733567%
31.314878892733567%
31.141868512110726%
31.314878892733567%
31.314878892733567%
31.314878892733567%
31.314878892733567%
31.314878892733567%
31.4878892733564%
31.314878892733567%
31.314878892733567%
31.314878892733567%
31.314878892733567%
31.141868512110726%
31.141868512110726%
31.314878892733567%
30.96885813148789%
30.96885813148789%
31.141868512110726%
31.141868512110726%
30.622837370242213%
30.622837370242213%
29.93079584775086%
29.757785467128027%
30.103806228373703%
30.79584775086505%
30.79584775086505%
31.4878892733564%
31.833910034602077%
31.66089965397924%
31.4878892733564%
30.622837370242213%
30.622837370242213%
31.314878892733567%
31.4878892733564%
31.4878892733564%
31.314878892733567%
30.622837370242213%
30.622837370242213%
30.44982698961938%
30.622837370242213%
30.622837370242213%
30.622837370242213%
29.757785467128027%
30.44982698961938%
30.276816608996537%
30.276816608996537%
30.276816608996537%
30.44982698961938%
30.276816608996537%
30.276816608996537%
30.276816608996537%
30.276816608996537%
30.79584775086505%
30.79584775086505%
30.622837370242213%
30.276816608996537%
30.622837370242213%
30.622837370242213%
32.00692041522492%
31.4878892733564%
31.4878892733564%
31.833910034602077%
31.314878892733567%
31.141868512110726%
31.141868512110726%
30.622837370242213%
30.276816608996537%
30.622837370242213%
30.622837370242213%
30.622837370242213%
30.96885813148789%
30.44982698961938%
30.44982698961938%
30.103806228373703%
30.276816608996537%
31.141868512110726%
31.141868512110726%
30.96885813148789%
30.276816608996537%
30.79584775086505%
31.314878892733567%
29.93079584775086%
29.93079584775086%
30.103806228373703%
30.103806228373703%
30.276816608996537%
29.93079584775086%
29.757785467128027%
29.757785467128027%
29.06574394463668%
28.719723183391004%
28.373702422145332%
29.411764705882355%
29.757785467128027%
29.238754325259514%
29.757785467128027%
30.103806228373703%
30.44982698961938%
30.276816608996537%
29.757785467128027%
28.546712802768166%
28.892733564013838%
28.719723183391004%
28.546712802768166%
28.719723183391004%
27.854671280276815%
27.854671280276815%
27.162629757785467%
27.508650519031143%
26.989619377162633%
27.162629757785467%
27.33564013840831%
27.854671280276815%
27.508650519031143%
27.33564013840831%
26.81660899653979%
27.162629757785467%
26.989619377162633%
26.989619377162633%
27.162629757785467%
27.162629757785467%
27.162629757785467%
26.989619377162633%
27.162629757785467%
27.162629757785467%
27.162629757785467%
26.81660899653979%
26.81660899653979%
26.989619377162633%
26.989619377162633%
27.162629757785467%
26.989619377162633%
26.989619377162633%
26.989619377162633%
27.162629757785467%
27.162629757785467%
27.162629757785467%
26.989619377162633%
27.162629757785467%
27.508650519031143%
27.68166089965398%
27.508650519031143%
27.33564013840831%
27.162629757785467%
27.162629757785467%
27.162629757785467%
27.162629757785467%
27.162629757785467%
27.162629757785467%
27.162629757785467%
27.162629757785467%
26.989619377162633%
26.989619377162633%
26.989619377162633%
27.162629757785467%
27.162629757785467%
26.989619377162633%
26.81660899653979%
26.81660899653979%
26.81660899653979%
26.81660899653979%
26.81660899653979%
26.81660899653979%
26.81660899653979%
27.33564013840831%
27.162629757785467%
27.162629757785467%
27.162629757785467%
27.162629757785467%
27.162629757785467%
27.162629757785467%
26.989619377162633%
27.162629757785467%
26.989619377162633%
26.81660899653979%
26.81660899653979%
26.81660899653979%
26.643598615916954%
26.643598615916954%
26.643598615916954%
26.81660899653979%
26.81660899653979%
26.81660899653979%
26.989619377162633%
26.989619377162633%
26.643598615916954%
26.643598615916954%
26.643598615916954%
26.643598615916954%
26.643598615916954%
26.643598615916954%
26.643598615916954%
26.643598615916954%
26.643598615916954%
26.989619377162633%
26.989619377162633%
26.989619377162633%
26.989619377162633%
26.989619377162633%
27.162629757785467%
27.162629757785467%
27.162629757785467%
26.989619377162633%
26.989619377162633%
26.989619377162633%
26.643598615916954%
26.643598615916954%
26.643598615916954%
26.47058823529412%
26.47058823529412%
26.47058823529412%
26.47058823529412%
26.47058823529412%
26.643598615916954%
26.643598615916954%
26.643598615916954%
26.643598615916954%
26.643598615916954%
26.643598615916954%
25.951557093425603%
25.951557093425603%
25.951557093425603%
25.951557093425603%
25.951557093425603%
25.951557093425603%
25.951557093425603%
25.951557093425603%
25.951557093425603%
25.951557093425603%
25.951557093425603%
25.951557093425603%
25.951557093425603%
25.951557093425603%
25.951557093425603%
25.951557093425603%
25.951557093425603%
25.951557093425603%
25.951557093425603%
25.951557093425603%
25.951557093425603%
25.951557093425603%
25.951557093425603%
25.951557093425603%
26.124567474048444%
26.124567474048444%
26.81660899653979%
26.47058823529412%
26.47058823529412%
26.47058823529412%
26.47058823529412%
26.47058823529412%
26.47058823529412%
26.643598615916954%
26.47058823529412%
26.47058823529412%
26.47058823529412%
26.47058823529412%
26.47058823529412%
26.47058823529412%
26.47058823529412%
26.47058823529412%
26.47058823529412%
26.47058823529412%
26.297577854671278%
26.297577854671278%
26.124567474048444%
26.297577854671278%
26.297577854671278%
26.47058823529412%
26.297577854671278%
26.643598615916954%
26.47058823529412%
26.643598615916954%
26.643598615916954%
26.643598615916954%
26.47058823529412%
26.47058823529412%
26.47058823529412%
26.47058823529412%
26.297577854671278%
25.432525951557096%
26.297577854671278%
26.124567474048444%
25.951557093425603%
26.124567474048444%
25.60553633217993%
25.08650519031142%
25.951557093425603%
25.60553633217993%
25.77854671280277%
25.60553633217993%
25.60553633217993%
25.60553633217993%
25.60553633217993%
25.432525951557096%
25.08650519031142%
25.08650519031142%
24.74048442906574%
25.432525951557096%
25.259515570934255%
24.91349480968858%
24.91349480968858%
24.91349480968858%
24.74048442906574%
24.91349480968858%
24.91349480968858%
26.124567474048444%
25.432525951557096%
25.432525951557096%
25.08650519031142%
25.259515570934255%
25.77854671280277%
25.951557093425603%
25.951557093425603%
26.124567474048444%
26.124567474048444%
25.951557093425603%
26.124567474048444%
25.951557093425603%
25.951557093425603%
25.77854671280277%
25.77854671280277%
25.60553633217993%
25.951557093425603%
25.08650519031142%
25.951557093425603%
25.951557093425603%
25.951557093425603%
25.951557093425603%
25.951557093425603%
19241
