100.0%
89.96539792387543%
89.44636678200692%
90.3114186851211%
89.61937716262976%
90.65743944636678%
86.85121107266436%
84.42906574394463%
82.8719723183391%
82.8719723183391%
83.91003460207612%
82.69896193771626%
81.4878892733564%
78.89273356401384%
78.20069204152249%
65.57093425605537%
75.60553633217994%
84.2560553633218%
83.91003460207612%
83.04498269896193%
80.62283737024222%
82.35294117647058%
74.74048442906575%
86.85121107266436%
85.6401384083045%
80.62283737024222%
77.85467128027682%
74.5674740484429%
89.61937716262976%
79.58477508650519%
79.58477508650519%
87.0242214532872%
55.536332179930795%
52.595155709342556%
74.91349480968859%
74.39446366782006%
67.47404844290658%
75.9515570934256%
83.04498269896193%
81.4878892733564%
73.01038062283737%
60.89965397923876%
71.45328719723183%
65.91695501730104%
64.70588235294117%
65.39792387543253%
62.80276816608996%
60.034602076124564%
58.13148788927336%
59.16955017301038%
57.266435986159166%
56.747404844290664%
56.40138408304498%
78.719723183391%
53.46020761245674%
53.63321799307958%
65.39792387543253%
66.43598615916954%
70.93425605536332%
68.33910034602077%
69.55017301038062%
66.78200692041523%
78.37370242214533%
71.10726643598616%
72.66435986159169%
64.01384083044984%
65.7439446366782%
68.16608996539793%
62.11072664359861%
66.95501730103807%
74.91349480968859%
74.39446366782006%
67.30103806228374%
66.78200692041523%
70.24221453287197%
69.55017301038062%
58.99653979238755%
47.75086505190311%
57.09342560553633%
61.0726643598616%
58.3044982698962%
61.0726643598616%
51.903114186851205%
67.64705882352942%
65.7439446366782%
55.36332179930796%
52.595155709342556%
45.501730103806224%
61.418685121107266%
59.86159169550172%
66.78200692041523%
47.92387543252595%
45.15570934256055%
49.653979238754324%
47.57785467128028%
44.982698961937714%
49.653979238754324%
43.42560553633218%
48.26989619377163%
38.23529411764706%
51.03806228373703%
44.11764705882353%
69.37716262975778%
65.22491349480968%
67.47404844290658%
61.5916955017301%
76.12456747404845%
70.93425605536332%
43.25259515570934%
43.42560553633218%
44.80968858131488%
55.536332179930795%
64.18685121107266%
58.65051903114187%
58.65051903114187%
58.65051903114187%
39.792387543252595%
57.785467128027676%
53.806228373702425%
42.56055363321799%
55.536332179930795%
51.384083044982695%
45.674740484429066%
56.57439446366782%
47.75086505190311%
55.017301038062286%
52.42214532871973%
47.40484429065744%
53.28719723183391%
51.903114186851205%
44.636678200692046%
51.03806228373703%
50.51903114186851%
65.39792387543253%
66.08996539792388%
61.5916955017301%
58.3044982698962%
51.384083044982695%
46.19377162629758%
56.40138408304498%
67.82006920415225%
66.78200692041523%
68.68512110726644%
66.60899653979239%
54.844290657439444%
58.82352941176471%
58.82352941176471%
59.16955017301038%
58.99653979238755%
61.76470588235294%
59.16955017301038%
54.325259515570934%
49.82698961937716%
44.463667820069205%
49.82698961937716%
51.55709342560554%
50.34602076124568%
38.4083044982699%
55.536332179930795%
63.84083044982699%
55.017301038062286%
58.47750865051903%
63.667820069204154%
64.87889273356402%
57.43944636678201%
56.92041522491349%
60.89965397923876%
55.36332179930796%
58.3044982698962%
50.0%
51.21107266435986%
52.07612456747405%
47.92387543252595%
37.19723183391003%
43.25259515570934%
44.463667820069205%
44.11764705882353%
43.944636678200695%
45.501730103806224%
46.88581314878893%
54.844290657439444%
52.595155709342556%
54.67128027681662%
50.0%
43.0795847750865%
44.29065743944637%
43.944636678200695%
62.45674740484429%
41.34948096885813%
51.73010380622838%
51.384083044982695%
42.56055363321799%
42.04152249134948%
48.78892733564014%
55.19031141868512%
61.245674740484425%
53.28719723183391%
58.3044982698962%
57.95847750865052%
46.88581314878893%
37.71626297577855%
42.21453287197232%
46.53979238754326%
44.11764705882353%
39.10034602076124%
34.94809688581315%
40.31141868512111%
34.2560553633218%
50.51903114186851%
52.7681660899654%
49.48096885813148%
57.266435986159166%
45.501730103806224%
60.38062283737025%
42.733564013840834%
43.0795847750865%
52.07612456747405%
51.21107266435986%
52.7681660899654%
42.04152249134948%
48.09688581314879%
51.384083044982695%
40.830449826989614%
48.96193771626297%
50.69204152249135%
29.238754325259514%
44.463667820069205%
48.615916955017305%
41.34948096885813%
50.86505190311419%
60.207612456747405%
56.22837370242214%
48.09688581314879%
52.24913494809689%
53.46020761245674%
53.11418685121107%
52.94117647058824%
45.674740484429066%
40.484429065743946%
40.484429065743946%
44.29065743944637%
45.501730103806224%
42.733564013840834%
49.653979238754324%
48.78892733564014%
26.124567474048444%
34.94809688581315%
41.522491349480966%
55.36332179930796%
54.67128027681662%
33.04498269896194%
32.35294117647059%
35.6401384083045%
34.94809688581315%
47.57785467128028%
52.42214532871973%
44.80968858131488%
33.391003460207614%
52.7681660899654%
41.17647058823529%
39.792387543252595%
42.38754325259516%
40.65743944636678%
48.09688581314879%
35.6401384083045%
40.484429065743946%
45.501730103806224%
38.581314878892734%
44.636678200692046%
43.59861591695502%
57.09342560553633%
39.965397923875436%
44.29065743944637%
40.31141868512111%
59.688581314878896%
27.508650519031143%
29.58477508650519%
31.4878892733564%
32.52595155709342%
29.238754325259514%
46.88581314878893%
33.21799307958477%
30.44982698961938%
53.63321799307958%
59.34256055363322%
59.34256055363322%
56.05536332179931%
25.951557093425603%
30.79584775086505%
41.34948096885813%
58.13148788927336%
52.24913494809689%
34.77508650519031%
38.062283737024224%
51.903114186851205%
48.96193771626297%
47.75086505190311%
47.05882352941176%
50.51903114186851%
44.982698961937714%
46.53979238754326%
41.522491349480966%
41.17647058823529%
43.77162629757785%
43.59861591695502%
45.32871972318339%
44.80968858131488%
38.062283737024224%
44.80968858131488%
40.484429065743946%
44.982698961937714%
32.52595155709342%
29.238754325259514%
26.297577854671278%
33.391003460207614%
33.391003460207614%
46.36678200692042%
33.391003460207614%
28.027681660899656%
28.892733564013838%
26.81660899653979%
27.508650519031143%
27.68166089965398%
26.989619377162633%
43.0795847750865%
50.51903114186851%
46.19377162629758%
36.67820069204152%
52.595155709342556%
44.463667820069205%
46.71280276816609%
48.26989619377163%
41.34948096885813%
51.21107266435986%
56.05536332179931%
49.82698961937716%
33.56401384083045%
33.73702422145329%
53.46020761245674%
47.92387543252595%
35.46712802768166%
46.71280276816609%
37.54325259515571%
50.0%
28.546712802768166%
31.141868512110726%
41.69550173010381%
48.44290657439446%
49.653979238754324%
34.083044982698965%
37.54325259515571%
38.4083044982699%
36.332179930795846%
37.37024221453287%
37.88927335640138%
32.35294117647059%
40.13840830449827%
37.37024221453287%
41.522491349480966%
37.0242214532872%
33.73702422145329%
33.73702422145329%
33.73702422145329%
33.73702422145329%
33.73702422145329%
46.19377162629758%
34.083044982698965%
34.2560553633218%
34.083044982698965%
34.602076124567475%
52.7681660899654%
40.484429065743946%
40.484429065743946%
40.484429065743946%
41.522491349480966%
41.17647058823529%
40.484429065743946%
40.484429065743946%
47.57785467128028%
50.34602076124568%
43.77162629757785%
43.42560553633218%
46.02076124567474%
45.674740484429066%
49.653979238754324%
49.82698961937716%
48.615916955017305%
50.34602076124568%
51.903114186851205%
48.09688581314879%
32.69896193771626%
30.103806228373703%
28.027681660899656%
26.124567474048444%
51.55709342560554%
52.42214532871973%
46.36678200692042%
35.6401384083045%
34.2560553633218%
33.56401384083045%
42.90657439446367%
29.06574394463668%
42.38754325259516%
45.501730103806224%
47.75086505190311%
51.21107266435986%
32.17993079584775%
26.297577854671278%
40.31141868512111%
40.31141868512111%
40.484429065743946%
40.830449826989614%
26.47058823529412%
42.56055363321799%
35.813148788927336%
27.508650519031143%
32.69896193771626%
28.373702422145332%
35.121107266435985%
43.0795847750865%
34.083044982698965%
41.69550173010381%
41.34948096885813%
40.31141868512111%
40.484429065743946%
40.65743944636678%
40.31141868512111%
42.56055363321799%
40.31141868512111%
49.82698961937716%
26.989619377162633%
26.81660899653979%
26.81660899653979%
44.636678200692046%
34.2560553633218%
32.35294117647059%
44.29065743944637%
42.21453287197232%
33.391003460207614%
55.19031141868512%
57.61245674740484%
54.498269896193776%
54.325259515570934%
57.266435986159166%
55.70934256055363%
57.785467128027676%
43.944636678200695%
44.463667820069205%
45.501730103806224%
40.65743944636678%
40.65743944636678%
33.21799307958477%
37.71626297577855%
34.2560553633218%
43.0795847750865%
47.05882352941176%
44.11764705882353%
42.21453287197232%
43.59861591695502%
33.73702422145329%
33.910034602076124%
34.42906574394463%
37.71626297577855%
37.88927335640138%
35.121107266435985%
42.90657439446367%
45.8477508650519%
50.51903114186851%
45.674740484429066%
34.083044982698965%
35.294117647058826%
43.77162629757785%
37.71626297577855%
36.67820069204152%
37.88927335640138%
50.0%
49.48096885813148%
47.92387543252595%
48.615916955017305%
47.92387543252595%
39.792387543252595%
44.29065743944637%
30.622837370242213%
36.332179930795846%
36.15916955017301%
28.373702422145332%
34.77508650519031%
34.2560553633218%
35.813148788927336%
34.083044982698965%
35.294117647058826%
38.062283737024224%
37.54325259515571%
39.792387543252595%
26.297577854671278%
25.951557093425603%
33.910034602076124%
34.94809688581315%
49.653979238754324%
25.951557093425603%
33.73702422145329%
33.73702422145329%
33.73702422145329%
33.73702422145329%
33.73702422145329%
33.73702422145329%
33.73702422145329%
33.73702422145329%
33.73702422145329%
34.083044982698965%
33.910034602076124%
39.965397923875436%
32.00692041522492%
36.15916955017301%
37.37024221453287%
34.94809688581315%
43.42560553633218%
29.238754325259514%
42.38754325259516%
43.59861591695502%
28.546712802768166%
28.719723183391004%
37.19723183391003%
39.44636678200692%
37.0242214532872%
33.910034602076124%
33.73702422145329%
38.062283737024224%
37.0242214532872%
46.02076124567474%
31.4878892733564%
33.04498269896194%
31.141868512110726%
30.276816608996537%
28.373702422145332%
26.124567474048444%
25.951557093425603%
36.851211072664356%
37.19723183391003%
36.50519031141869%
36.50519031141869%
38.581314878892734%
38.92733564013841%
39.10034602076124%
37.88927335640138%
39.61937716262976%
48.44290657439446%
25.951557093425603%
25.951557093425603%
25.951557093425603%
25.951557093425603%
33.73702422145329%
33.73702422145329%
29.58477508650519%
43.59861591695502%
44.29065743944637%
40.484429065743946%
43.25259515570934%
42.04152249134948%
33.73702422145329%
33.56401384083045%
33.73702422145329%
33.73702422145329%
33.73702422145329%
33.73702422145329%
39.965397923875436%
41.34948096885813%
40.31141868512111%
41.34948096885813%
40.31141868512111%
26.47058823529412%
28.027681660899656%
28.546712802768166%
25.951557093425603%
27.508650519031143%
26.124567474048444%
42.90657439446367%
30.96885813148789%
30.79584775086505%
25.77854671280277%
26.124567474048444%
34.602076124567475%
26.81660899653979%
25.951557093425603%
25.08650519031142%
26.297577854671278%
40.13840830449827%
41.69550173010381%
27.508650519031143%
25.951557093425603%
25.951557093425603%
25.951557093425603%
25.951557093425603%
36.332179930795846%
27.162629757785467%
33.910034602076124%
33.910034602076124%
33.73702422145329%
33.73702422145329%
37.37024221453287%
34.083044982698965%
37.0242214532872%
37.54325259515571%
37.71626297577855%
29.238754325259514%
33.391003460207614%
37.54325259515571%
38.062283737024224%
27.854671280276815%
26.297577854671278%
26.81660899653979%
39.792387543252595%
37.54325259515571%
30.79584775086505%
30.96885813148789%
27.68166089965398%
33.73702422145329%
36.15916955017301%
40.65743944636678%
33.04498269896194%
37.19723183391003%
28.373702422145332%
26.643598615916954%
25.951557093425603%
27.854671280276815%
26.297577854671278%
39.273356401384085%
33.73702422145329%
34.42906574394463%
32.8719723183391%
34.42906574394463%
33.73702422145329%
33.73702422145329%
30.276816608996537%
34.2560553633218%
37.88927335640138%
33.73702422145329%
33.73702422145329%
33.73702422145329%
33.73702422145329%
34.77508650519031%
34.083044982698965%
40.31141868512111%
41.003460207612456%
41.17647058823529%
40.31141868512111%
40.31141868512111%
41.17647058823529%
41.522491349480966%
45.15570934256055%
44.29065743944637%
43.59861591695502%
40.31141868512111%
25.259515570934255%
21.10726643598616%
33.56401384083045%
33.73702422145329%
33.73702422145329%
33.73702422145329%
33.73702422145329%
33.73702422145329%
33.73702422145329%
33.73702422145329%
33.391003460207614%
33.73702422145329%
25.951557093425603%
25.951557093425603%
25.951557093425603%
30.44982698961938%
32.35294117647059%
32.35294117647059%
26.124567474048444%
25.951557093425603%
25.60553633217993%
26.81660899653979%
33.73702422145329%
33.73702422145329%
39.965397923875436%
34.42906574394463%
33.73702422145329%
33.73702422145329%
33.391003460207614%
34.42906574394463%
41.003460207612456%
29.238754325259514%
30.276816608996537%
40.484429065743946%
25.951557093425603%
25.951557093425603%
25.951557093425603%
25.951557093425603%
40.484429065743946%
42.733564013840834%
33.73702422145329%
35.6401384083045%
33.73702422145329%
33.73702422145329%
25.951557093425603%
33.73702422145329%
33.73702422145329%
33.73702422145329%
40.484429065743946%
26.124567474048444%
33.73702422145329%
33.73702422145329%
27.33564013840831%
35.121107266435985%
27.162629757785467%
40.830449826989614%
26.124567474048444%
25.951557093425603%
