100.0%
100.0%
100.0%
100.0%
100.0%
99.48096885813149%
99.65397923875432%
99.82698961937716%
100.0%
98.78892733564014%
99.30795847750865%
99.30795847750865%
99.30795847750865%
99.30795847750865%
98.96193771626297%
98.96193771626297%
99.30795847750865%
99.30795847750865%
99.13494809688581%
99.30795847750865%
99.30795847750865%
99.13494809688581%
98.6159169550173%
98.6159169550173%
97.40484429065745%
97.05882352941177%
95.15570934256056%
94.4636678200692%
92.56055363321799%
93.25259515570934%
95.15570934256056%
95.67474048442907%
87.5432525951557%
86.67820069204151%
84.2560553633218%
85.46712802768167%
85.81314878892734%
86.67820069204151%
87.0242214532872%
86.50519031141869%
87.71626297577855%
89.44636678200692%
88.92733564013841%
88.58131487889274%
89.44636678200692%
88.75432525951558%
89.10034602076125%
91.17647058823529%
91.52249134948097%
92.04152249134948%
84.2560553633218%
84.42906574394463%
81.66089965397923%
82.52595155709342%
82.17993079584775%
82.17993079584775%
82.17993079584775%
82.52595155709342%
81.4878892733564%
81.14186851211073%
80.96885813148789%
80.96885813148789%
81.4878892733564%
81.83391003460207%
80.96885813148789%
81.66089965397923%
80.96885813148789%
80.62283737024222%
81.83391003460207%
77.16262975778547%
78.719723183391%
78.02768166089965%
78.54671280276817%
79.41176470588235%
79.41176470588235%
80.1038062283737%
80.62283737024222%
80.44982698961938%
82.52595155709342%
82.35294117647058%
81.66089965397923%
81.31487889273356%
82.52595155709342%
82.52595155709342%
83.56401384083046%
83.39100346020761%
84.94809688581316%
83.91003460207612%
83.91003460207612%
84.42906574394463%
84.2560553633218%
82.8719723183391%
83.04498269896193%
83.73702422145328%
83.56401384083046%
80.44982698961938%
80.27681660899654%
80.27681660899654%
83.56401384083046%
82.35294117647058%
81.83391003460207%
82.00692041522491%
83.56401384083046%
84.08304498269896%
84.08304498269896%
83.73702422145328%
83.73702422145328%
84.2560553633218%
84.60207612456747%
84.77508650519032%
83.91003460207612%
81.31487889273356%
79.41176470588235%
79.93079584775087%
79.58477508650519%
79.58477508650519%
82.8719723183391%
80.1038062283737%
80.27681660899654%
80.27681660899654%
80.44982698961938%
79.75778546712803%
79.75778546712803%
80.62283737024222%
81.14186851211073%
80.96885813148789%
81.83391003460207%
82.8719723183391%
82.35294117647058%
81.83391003460207%
80.79584775086505%
80.96885813148789%
79.41176470588235%
78.89273356401384%
80.1038062283737%
80.79584775086505%
80.44982698961938%
79.75778546712803%
79.41176470588235%
79.41176470588235%
79.75778546712803%
79.58477508650519%
79.41176470588235%
79.06574394463668%
78.20069204152249%
79.23875432525952%
79.58477508650519%
79.93079584775087%
79.58477508650519%
78.89273356401384%
78.89273356401384%
79.41176470588235%
79.75778546712803%
78.89273356401384%
78.719723183391%
78.54671280276817%
79.23875432525952%
78.89273356401384%
76.12456747404845%
76.64359861591696%
75.9515570934256%
75.77854671280276%
75.4325259515571%
75.60553633217994%
75.9515570934256%
75.9515570934256%
76.12456747404845%
75.60553633217994%
75.9515570934256%
75.9515570934256%
75.9515570934256%
75.9515570934256%
76.47058823529412%
77.16262975778547%
76.98961937716263%
76.98961937716263%
76.47058823529412%
76.47058823529412%
76.8166089965398%
76.64359861591696%
76.47058823529412%
76.29757785467129%
76.47058823529412%
76.8166089965398%
77.16262975778547%
76.64359861591696%
76.47058823529412%
76.47058823529412%
75.08650519031141%
75.08650519031141%
75.25951557093425%
75.25951557093425%
75.9515570934256%
75.9515570934256%
75.77854671280276%
75.08650519031141%
75.4325259515571%
75.4325259515571%
75.60553633217994%
75.60553633217994%
75.4325259515571%
75.25951557093425%
75.25951557093425%
75.25951557093425%
75.25951557093425%
75.08650519031141%
75.4325259515571%
75.77854671280276%
76.12456747404845%
77.33564013840831%
77.33564013840831%
76.64359861591696%
76.8166089965398%
78.02768166089965%
78.02768166089965%
78.37370242214533%
78.719723183391%
78.54671280276817%
79.58477508650519%
79.93079584775087%
80.27681660899654%
79.23875432525952%
79.58477508650519%
79.75778546712803%
78.719723183391%
79.06574394463668%
78.719723183391%
75.9515570934256%
76.47058823529412%
76.64359861591696%
76.64359861591696%
76.8166089965398%
76.29757785467129%
76.12456747404845%
75.9515570934256%
76.47058823529412%
76.47058823529412%
76.47058823529412%
77.85467128027682%
76.64359861591696%
77.50865051903114%
78.89273356401384%
78.37370242214533%
78.54671280276817%
81.31487889273356%
78.20069204152249%
78.54671280276817%
78.20069204152249%
77.85467128027682%
82.17993079584775%
82.35294117647058%
82.35294117647058%
80.96885813148789%
80.62283737024222%
77.33564013840831%
80.1038062283737%
79.06574394463668%
80.44982698961938%
79.23875432525952%
81.4878892733564%
81.4878892733564%
80.96885813148789%
80.27681660899654%
80.62283737024222%
80.44982698961938%
80.44982698961938%
80.96885813148789%
79.23875432525952%
78.54671280276817%
80.79584775086505%
81.14186851211073%
80.79584775086505%
80.96885813148789%
79.93079584775087%
80.79584775086505%
77.68166089965398%
77.33564013840831%
77.33564013840831%
76.8166089965398%
76.8166089965398%
75.60553633217994%
79.06574394463668%
78.719723183391%
84.08304498269896%
82.8719723183391%
80.62283737024222%
82.17993079584775%
83.21799307958477%
84.2560553633218%
84.42906574394463%
83.39100346020761%
84.60207612456747%
86.33217993079585%
86.33217993079585%
83.39100346020761%
83.91003460207612%
83.56401384083046%
83.39100346020761%
83.91003460207612%
85.12110726643598%
83.04498269896193%
82.69896193771626%
82.00692041522491%
83.04498269896193%
82.35294117647058%
77.85467128027682%
78.719723183391%
78.02768166089965%
84.60207612456747%
83.73702422145328%
84.60207612456747%
82.69896193771626%
88.4083044982699%
87.37024221453287%
87.37024221453287%
85.29411764705883%
83.56401384083046%
83.56401384083046%
82.52595155709342%
81.31487889273356%
81.66089965397923%
81.4878892733564%
81.31487889273356%
81.4878892733564%
79.58477508650519%
78.719723183391%
78.719723183391%
78.37370242214533%
76.98961937716263%
77.16262975778547%
75.9515570934256%
75.9515570934256%
75.9515570934256%
75.9515570934256%
75.4325259515571%
77.68166089965398%
80.62283737024222%
79.75778546712803%
78.54671280276817%
81.66089965397923%
81.14186851211073%
82.35294117647058%
83.56401384083046%
87.37024221453287%
87.5432525951557%
88.06228373702422%
88.4083044982699%
87.37024221453287%
86.67820069204151%
84.77508650519032%
82.17993079584775%
82.52595155709342%
82.52595155709342%
82.17993079584775%
82.00692041522491%
82.8719723183391%
84.2560553633218%
83.56401384083046%
84.60207612456747%
84.77508650519032%
84.60207612456747%
84.94809688581316%
86.159169550173%
87.88927335640139%
88.06228373702422%
89.10034602076125%
87.5432525951557%
85.12110726643598%
83.91003460207612%
84.94809688581316%
84.94809688581316%
86.50519031141869%
87.19723183391004%
87.5432525951557%
85.46712802768167%
87.71626297577855%
86.85121107266436%
86.85121107266436%
85.46712802768167%
87.19723183391004%
86.67820069204151%
86.33217993079585%
88.23529411764706%
90.83044982698962%
90.48442906574394%
89.79238754325259%
89.96539792387543%
90.83044982698962%
92.21453287197232%
92.38754325259517%
92.56055363321799%
93.25259515570934%
91.86851211072664%
90.65743944636678%
90.13840830449827%
89.44636678200692%
89.27335640138409%
90.13840830449827%
89.44636678200692%
90.13840830449827%
88.58131487889274%
86.50519031141869%
88.92733564013841%
90.65743944636678%
90.83044982698962%
92.21453287197232%
92.56055363321799%
92.38754325259517%
92.04152249134948%
92.21453287197232%
92.73356401384083%
92.90657439446368%
92.90657439446368%
93.42560553633218%
93.25259515570934%
93.9446366782007%
94.80968858131487%
94.80968858131487%
95.67474048442907%
95.8477508650519%
94.63667820069203%
94.98269896193771%
95.50173010380622%
95.50173010380622%
96.19377162629758%
96.36678200692042%
96.7128027681661%
97.05882352941177%
98.96193771626297%
95.32871972318338%
98.26989619377161%
97.40484429065745%
95.15570934256056%
96.36678200692042%
92.73356401384083%
91.86851211072664%
88.23529411764706%
83.91003460207612%
88.23529411764706%
88.06228373702422%
89.27335640138409%
88.06228373702422%
90.48442906574394%
91.34948096885813%
91.34948096885813%
94.98269896193771%
94.63667820069203%
93.77162629757785%
95.15570934256056%
98.09688581314879%
99.13494809688581%
99.48096885813149%
99.30795847750865%
99.65397923875432%
99.82698961937716%
98.96193771626297%
98.78892733564014%
98.78892733564014%
98.6159169550173%
98.78892733564014%
98.6159169550173%
97.23183391003461%
99.13494809688581%
100.0%
100.0%
100.0%
100.0%
100.0%
100.0%
100.0%
100.0%
100.0%
100.0%
100.0%
100.0%
100.0%
100.0%
100.0%
100.0%
100.0%
100.0%
100.0%
100.0%
100.0%
100.0%
100.0%
100.0%
100.0%
100.0%
100.0%
100.0%
100.0%
100.0%
100.0%
100.0%
100.0%
100.0%
100.0%
100.0%
99.48096885813149%
100.0%
100.0%
100.0%
100.0%
100.0%
100.0%
100.0%
100.0%
100.0%
100.0%
100.0%
100.0%
100.0%
100.0%
100.0%
100.0%
100.0%
97.57785467128028%
98.44290657439446%
98.44290657439446%
97.75086505190312%
99.82698961937716%
99.82698961937716%
99.82698961937716%
99.82698961937716%
99.30795847750865%
99.82698961937716%
99.82698961937716%
99.82698961937716%
99.82698961937716%
100.0%
100.0%
99.82698961937716%
100.0%
100.0%
100.0%
100.0%
100.0%
100.0%
100.0%
100.0%
100.0%
100.0%
100.0%
100.0%
100.0%
100.0%
100.0%
100.0%
100.0%
100.0%
100.0%
100.0%
100.0%
100.0%
100.0%
100.0%
100.0%
100.0%
100.0%
100.0%
100.0%
100.0%
100.0%
100.0%
100.0%
100.0%
100.0%
100.0%
100.0%
100.0%
100.0%
100.0%
100.0%
100.0%
100.0%
100.0%
100.0%
100.0%
100.0%
100.0%
100.0%
100.0%
100.0%
100.0%
100.0%
100.0%
100.0%
100.0%
100.0%
100.0%
100.0%
100.0%
100.0%
100.0%
100.0%
100.0%
100.0%
100.0%
100.0%
100.0%
100.0%
100.0%
100.0%
100.0%
100.0%
100.0%
100.0%
100.0%
100.0%
100.0%
100.0%
100.0%
100.0%
100.0%
100.0%
100.0%
100.0%
100.0%
100.0%
100.0%
100.0%
100.0%
100.0%
100.0%
100.0%
100.0%
100.0%
100.0%
100.0%
100.0%
100.0%
100.0%
100.0%
100.0%
100.0%
100.0%
100.0%
100.0%
100.0%
100.0%
100.0%
100.0%
100.0%
100.0%
100.0%
100.0%
100.0%
100.0%
100.0%
100.0%
100.0%
100.0%
100.0%
100.0%
100.0%
100.0%
100.0%
100.0%
100.0%
100.0%
100.0%
100.0%
100.0%
100.0%
100.0%
100.0%
100.0%
100.0%
100.0%
100.0%
100.0%
100.0%
100.0%
100.0%
100.0%
100.0%
100.0%
100.0%
100.0%
100.0%
100.0%
100.0%
100.0%
100.0%
100.0%
100.0%
100.0%
100.0%
100.0%
100.0%
100.0%
100.0%
100.0%
100.0%
100.0%
100.0%
100.0%
100.0%
100.0%
100.0%
100.0%
100.0%
100.0%
100.0%
100.0%
100.0%
100.0%
100.0%
100.0%
100.0%
100.0%
100.0%
100.0%
100.0%
100.0%
100.0%
100.0%
100.0%
100.0%
100.0%
100.0%
100.0%
100.0%
100.0%
100.0%
100.0%
100.0%
100.0%
100.0%
100.0%
100.0%
100.0%
100.0%
100.0%
100.0%
100.0%
100.0%
100.0%
100.0%
100.0%
100.0%
100.0%
100.0%
100.0%
100.0%
100.0%
100.0%
100.0%
100.0%
100.0%
100.0%
100.0%
100.0%
100.0%
100.0%
100.0%
100.0%
100.0%
100.0%
100.0%
100.0%
100.0%
100.0%
100.0%
100.0%
100.0%
100.0%
100.0%
100.0%
100.0%
100.0%
100.0%
100.0%
100.0%
100.0%
100.0%
100.0%
100.0%
100.0%
100.0%
100.0%
100.0%
100.0%
16804
