100.0%
100.0%
100.0%
100.0%
100.0%
100.0%
100.0%
100.0%
100.0%
100.0%
100.0%
100.0%
100.0%
100.0%
100.0%
100.0%
100.0%
100.0%
100.0%
100.0%
100.0%
100.0%
100.0%
100.0%
100.0%
100.0%
100.0%
100.0%
100.0%
99.82698961937716%
99.82698961937716%
99.82698961937716%
99.65397923875432%
99.48096885813149%
99.48096885813149%
99.65397923875432%
99.65397923875432%
99.82698961937716%
99.82698961937716%
99.82698961937716%
99.82698961937716%
99.82698961937716%
100.0%
100.0%
100.0%
100.0%
100.0%
99.82698961937716%
99.82698961937716%
99.82698961937716%
99.30795847750865%
99.30795847750865%
99.30795847750865%
99.30795847750865%
99.48096885813149%
99.65397923875432%
99.65397923875432%
99.48096885813149%
99.65397923875432%
99.48096885813149%
99.30795847750865%
99.48096885813149%
99.48096885813149%
99.48096885813149%
99.30795847750865%
99.30795847750865%
99.30795847750865%
99.65397923875432%
99.48096885813149%
99.30795847750865%
99.48096885813149%
99.48096885813149%
99.30795847750865%
98.96193771626297%
98.6159169550173%
98.6159169550173%
98.6159169550173%
98.6159169550173%
98.6159169550173%
98.6159169550173%
98.6159169550173%
98.6159169550173%
98.6159169550173%
98.6159169550173%
98.78892733564014%
98.78892733564014%
98.78892733564014%
99.30795847750865%
99.30795847750865%
99.30795847750865%
98.6159169550173%
97.92387543252595%
97.92387543252595%
98.44290657439446%
98.26989619377161%
98.44290657439446%
98.44290657439446%
98.44290657439446%
98.44290657439446%
97.40484429065745%
97.75086505190312%
97.75086505190312%
97.57785467128028%
97.92387543252595%
97.92387543252595%
97.57785467128028%
97.57785467128028%
97.57785467128028%
97.23183391003461%
97.40484429065745%
97.57785467128028%
97.57785467128028%
97.40484429065745%
97.05882352941177%
97.05882352941177%
96.88581314878893%
98.09688581314879%
98.96193771626297%
99.13494809688581%
98.96193771626297%
98.96193771626297%
99.13494809688581%
98.96193771626297%
98.96193771626297%
98.96193771626297%
98.96193771626297%
98.96193771626297%
98.96193771626297%
98.96193771626297%
98.96193771626297%
98.96193771626297%
98.96193771626297%
98.96193771626297%
98.96193771626297%
98.96193771626297%
99.13494809688581%
99.13494809688581%
98.96193771626297%
98.96193771626297%
99.13494809688581%
98.96193771626297%
98.78892733564014%
98.78892733564014%
98.78892733564014%
98.96193771626297%
98.96193771626297%
98.96193771626297%
98.96193771626297%
99.30795847750865%
99.13494809688581%
99.30795847750865%
99.30795847750865%
99.30795847750865%
99.30795847750865%
99.48096885813149%
99.48096885813149%
99.48096885813149%
99.48096885813149%
99.13494809688581%
99.13494809688581%
98.96193771626297%
99.13494809688581%
98.96193771626297%
98.96193771626297%
98.96193771626297%
98.78892733564014%
98.96193771626297%
98.78892733564014%
99.13494809688581%
99.13494809688581%
98.96193771626297%
98.78892733564014%
98.78892733564014%
98.78892733564014%
98.78892733564014%
98.78892733564014%
98.96193771626297%
99.30795847750865%
99.82698961937716%
99.65397923875432%
99.82698961937716%
99.82698961937716%
99.82698961937716%
99.82698961937716%
99.82698961937716%
99.82698961937716%
96.36678200692042%
96.36678200692042%
96.36678200692042%
96.88581314878893%
96.53979238754326%
96.53979238754326%
96.36678200692042%
96.36678200692042%
96.36678200692042%
96.88581314878893%
97.05882352941177%
97.23183391003461%
96.7128027681661%
96.7128027681661%
96.7128027681661%
96.7128027681661%
96.7128027681661%
96.19377162629758%
96.36678200692042%
95.8477508650519%
95.67474048442907%
96.53979238754326%
96.36678200692042%
96.53979238754326%
96.53979238754326%
94.4636678200692%
94.4636678200692%
94.4636678200692%
93.9446366782007%
94.11764705882352%
94.11764705882352%
94.29065743944636%
94.29065743944636%
95.15570934256056%
95.32871972318338%
95.15570934256056%
95.15570934256056%
95.15570934256056%
95.32871972318338%
95.32871972318338%
95.32871972318338%
95.8477508650519%
95.8477508650519%
95.8477508650519%
95.8477508650519%
95.67474048442907%
95.8477508650519%
96.36678200692042%
96.36678200692042%
96.36678200692042%
96.53979238754326%
96.36678200692042%
94.98269896193771%
95.50173010380622%
95.50173010380622%
95.50173010380622%
95.8477508650519%
96.53979238754326%
95.8477508650519%
96.19377162629758%
96.19377162629758%
95.8477508650519%
95.8477508650519%
96.02076124567473%
96.02076124567473%
96.19377162629758%
96.02076124567473%
96.53979238754326%
97.57785467128028%
97.57785467128028%
98.09688581314879%
97.05882352941177%
96.53979238754326%
96.53979238754326%
96.36678200692042%
97.23183391003461%
97.05882352941177%
96.88581314878893%
96.7128027681661%
96.7128027681661%
96.88581314878893%
97.05882352941177%
97.05882352941177%
97.05882352941177%
97.40484429065745%
97.40484429065745%
97.92387543252595%
98.44290657439446%
98.6159169550173%
98.6159169550173%
98.6159169550173%
98.78892733564014%
98.6159169550173%
98.78892733564014%
98.96193771626297%
98.96193771626297%
98.96193771626297%
98.78892733564014%
99.13494809688581%
99.30795847750865%
98.78892733564014%
98.6159169550173%
99.13494809688581%
99.30795847750865%
98.96193771626297%
99.30795847750865%
99.30795847750865%
99.30795847750865%
98.78892733564014%
98.78892733564014%
98.78892733564014%
99.30795847750865%
99.30795847750865%
99.13494809688581%
99.48096885813149%
99.48096885813149%
99.48096885813149%
99.48096885813149%
99.48096885813149%
98.96193771626297%
98.96193771626297%
98.96193771626297%
98.96193771626297%
98.96193771626297%
98.96193771626297%
98.96193771626297%
98.96193771626297%
98.96193771626297%
98.96193771626297%
99.13494809688581%
98.78892733564014%
98.78892733564014%
98.44290657439446%
97.75086505190312%
97.57785467128028%
97.40484429065745%
96.88581314878893%
97.05882352941177%
96.88581314878893%
91.52249134948097%
91.52249134948097%
91.34948096885813%
91.6955017301038%
90.83044982698962%
90.83044982698962%
90.65743944636678%
90.48442906574394%
90.48442906574394%
90.3114186851211%
91.6955017301038%
91.00346020761245%
91.17647058823529%
91.34948096885813%
91.34948096885813%
91.34948096885813%
90.3114186851211%
92.90657439446368%
94.4636678200692%
94.80968858131487%
94.80968858131487%
94.80968858131487%
95.32871972318338%
94.29065743944636%
94.63667820069203%
95.32871972318338%
95.15570934256056%
94.4636678200692%
94.80968858131487%
94.80968858131487%
95.32871972318338%
95.8477508650519%
95.67474048442907%
95.8477508650519%
96.53979238754326%
96.19377162629758%
95.50173010380622%
97.05882352941177%
96.36678200692042%
96.36678200692042%
96.7128027681661%
96.88581314878893%
96.02076124567473%
96.02076124567473%
95.8477508650519%
95.8477508650519%
95.50173010380622%
95.50173010380622%
96.53979238754326%
96.88581314878893%
96.02076124567473%
95.8477508650519%
95.8477508650519%
96.02076124567473%
95.8477508650519%
96.53979238754326%
96.53979238754326%
96.02076124567473%
95.8477508650519%
95.50173010380622%
95.8477508650519%
95.8477508650519%
95.15570934256056%
94.63667820069203%
95.15570934256056%
94.63667820069203%
94.80968858131487%
94.80968858131487%
93.59861591695503%
93.59861591695503%
93.77162629757785%
95.15570934256056%
95.32871972318338%
95.8477508650519%
94.80968858131487%
94.63667820069203%
93.42560553633218%
94.11764705882352%
93.25259515570934%
93.59861591695503%
93.59861591695503%
93.9446366782007%
94.11764705882352%
94.11764705882352%
96.19377162629758%
96.53979238754326%
96.53979238754326%
96.53979238754326%
96.7128027681661%
96.36678200692042%
96.19377162629758%
96.19377162629758%
96.36678200692042%
96.88581314878893%
96.88581314878893%
96.88581314878893%
97.40484429065745%
98.44290657439446%
98.78892733564014%
98.09688581314879%
98.09688581314879%
98.44290657439446%
98.44290657439446%
98.44290657439446%
97.57785467128028%
97.92387543252595%
97.75086505190312%
97.75086505190312%
97.92387543252595%
97.40484429065745%
96.88581314878893%
96.88581314878893%
96.88581314878893%
97.05882352941177%
96.88581314878893%
96.36678200692042%
96.19377162629758%
96.02076124567473%
95.67474048442907%
96.36678200692042%
96.88581314878893%
97.05882352941177%
97.05882352941177%
97.40484429065745%
97.57785467128028%
97.92387543252595%
98.09688581314879%
97.92387543252595%
97.92387543252595%
98.09688581314879%
97.92387543252595%
97.75086505190312%
97.40484429065745%
97.92387543252595%
97.92387543252595%
97.75086505190312%
97.75086505190312%
98.09688581314879%
98.26989619377161%
98.09688581314879%
98.26989619377161%
97.40484429065745%
97.75086505190312%
97.05882352941177%
96.7128027681661%
97.23183391003461%
97.23183391003461%
97.40484429065745%
97.40484429065745%
97.57785467128028%
97.57785467128028%
97.57785467128028%
97.57785467128028%
97.40484429065745%
97.40484429065745%
97.57785467128028%
97.40484429065745%
96.7128027681661%
96.53979238754326%
97.23183391003461%
97.57785467128028%
97.92387543252595%
97.92387543252595%
97.57785467128028%
96.88581314878893%
97.40484429065745%
97.57785467128028%
97.75086505190312%
97.05882352941177%
96.7128027681661%
96.88581314878893%
97.23183391003461%
97.40484429065745%
96.53979238754326%
96.19377162629758%
96.02076124567473%
96.53979238754326%
96.36678200692042%
96.36678200692042%
96.7128027681661%
96.53979238754326%
96.02076124567473%
95.8477508650519%
95.8477508650519%
95.32871972318338%
95.67474048442907%
96.02076124567473%
96.02076124567473%
96.53979238754326%
96.36678200692042%
96.36678200692042%
96.7128027681661%
96.53979238754326%
96.02076124567473%
95.8477508650519%
95.8477508650519%
95.32871972318338%
95.67474048442907%
96.02076124567473%
93.25259515570934%
93.59861591695503%
93.42560553633218%
92.90657439446368%
94.11764705882352%
93.42560553633218%
93.25259515570934%
93.42560553633218%
93.42560553633218%
92.21453287197232%
92.21453287197232%
91.86851211072664%
91.86851211072664%
92.56055363321799%
92.38754325259517%
92.73356401384083%
92.38754325259517%
92.90657439446368%
93.77162629757785%
93.77162629757785%
93.42560553633218%
94.29065743944636%
94.63667820069203%
94.63667820069203%
94.63667820069203%
94.63667820069203%
93.9446366782007%
93.77162629757785%
93.9446366782007%
92.90657439446368%
92.73356401384083%
94.80968858131487%
95.15570934256056%
94.63667820069203%
93.59861591695503%
94.80968858131487%
95.15570934256056%
93.77162629757785%
91.86851211072664%
91.52249134948097%
91.00346020761245%
94.63667820069203%
94.80968858131487%
91.52249134948097%
90.48442906574394%
90.65743944636678%
90.65743944636678%
88.75432525951558%
89.79238754325259%
90.48442906574394%
90.3114186851211%
91.86851211072664%
91.6955017301038%
91.00346020761245%
91.52249134948097%
91.86851211072664%
91.00346020761245%
90.83044982698962%
91.00346020761245%
89.96539792387543%
88.58131487889274%
88.92733564013841%
88.4083044982699%
88.58131487889274%
89.10034602076125%
89.10034602076125%
87.37024221453287%
87.71626297577855%
87.71626297577855%
87.0242214532872%
88.58131487889274%
87.71626297577855%
87.0242214532872%
87.37024221453287%
86.67820069204151%
85.12110726643598%
83.91003460207612%
85.12110726643598%
84.77508650519032%
85.29411764705883%
85.46712802768167%
84.2560553633218%
84.77508650519032%
85.46712802768167%
85.29411764705883%
84.77508650519032%
77.33564013840831%
77.33564013840831%
77.68166089965398%
79.06574394463668%
79.23875432525952%
78.54671280276817%
78.37370242214533%
80.62283737024222%
78.89273356401384%
80.44982698961938%
80.96885813148789%
81.31487889273356%
81.31487889273356%
82.00692041522491%
82.52595155709342%
82.17993079584775%
82.8719723183391%
83.21799307958477%
83.39100346020761%
84.08304498269896%
85.29411764705883%
84.60207612456747%
84.08304498269896%
85.12110726643598%
85.12110726643598%
84.2560553633218%
84.42906574394463%
82.17993079584775%
82.35294117647058%
82.35294117647058%
81.4878892733564%
80.27681660899654%
80.62283737024222%
88.58131487889274%
88.58131487889274%
89.96539792387543%
89.61937716262976%
89.27335640138409%
89.61937716262976%
87.88927335640139%
88.92733564013841%
88.4083044982699%
86.50519031141869%
85.6401384083045%
87.88927335640139%
87.71626297577855%
87.37024221453287%
87.88927335640139%
87.71626297577855%
87.88927335640139%
88.23529411764706%
88.58131487889274%
88.23529411764706%
89.79238754325259%
89.79238754325259%
89.96539792387543%
89.79238754325259%
91.52249134948097%
91.6955017301038%
91.6955017301038%
92.56055363321799%
93.42560553633218%
93.9446366782007%
94.29065743944636%
93.25259515570934%
93.9446366782007%
92.90657439446368%
94.4636678200692%
92.90657439446368%
90.65743944636678%
91.6955017301038%
92.04152249134948%
92.04152249134948%
90.83044982698962%
90.48442906574394%
91.34948096885813%
89.79238754325259%
88.92733564013841%
88.58131487889274%
88.23529411764706%
90.65743944636678%
91.86851211072664%
92.38754325259517%
91.6955017301038%
91.00346020761245%
93.42560553633218%
94.4636678200692%
94.4636678200692%
95.32871972318338%
97.57785467128028%
96.7128027681661%
96.88581314878893%
97.57785467128028%
98.26989619377161%
98.09688581314879%
97.75086505190312%
98.78892733564014%
99.30795847750865%
99.48096885813149%
99.65397923875432%
99.65397923875432%
98.96193771626297%
