100.0%
100.0%
100.0%
100.0%
100.0%
100.0%
99.82698961937716%
100.0%
100.0%
98.44290657439446%
99.48096885813149%
99.13494809688581%
100.0%
99.65397923875432%
99.30795847750865%
97.75086505190312%
98.78892733564014%
98.09688581314879%
94.29065743944636%
99.82698961937716%
99.65397923875432%
99.13494809688581%
98.96193771626297%
99.65397923875432%
99.82698961937716%
96.7128027681661%
96.36678200692042%
98.78892733564014%
98.26989619377161%
98.26989619377161%
99.30795847750865%
94.29065743944636%
95.50173010380622%
95.50173010380622%
96.7128027681661%
94.80968858131487%
96.19377162629758%
95.8477508650519%
96.02076124567473%
98.96193771626297%
98.78892733564014%
99.65397923875432%
97.92387543252595%
96.7128027681661%
97.23183391003461%
95.15570934256056%
95.15570934256056%
96.02076124567473%
98.6159169550173%
94.4636678200692%
91.34948096885813%
96.36678200692042%
92.38754325259517%
94.63667820069203%
94.11764705882352%
89.10034602076125%
96.36678200692042%
90.48442906574394%
97.05882352941177%
98.6159169550173%
96.7128027681661%
94.29065743944636%
99.13494809688581%
98.78892733564014%
98.78892733564014%
98.26989619377161%
98.96193771626297%
97.75086505190312%
97.40484429065745%
91.6955017301038%
91.6955017301038%
98.44290657439446%
98.44290657439446%
86.50519031141869%
89.27335640138409%
88.4083044982699%
75.4325259515571%
98.6159169550173%
96.19377162629758%
96.53979238754326%
98.6159169550173%
98.6159169550173%
95.8477508650519%
94.29065743944636%
98.96193771626297%
99.82698961937716%
97.05882352941177%
97.75086505190312%
97.75086505190312%
98.78892733564014%
95.32871972318338%
98.09688581314879%
97.05882352941177%
98.09688581314879%
98.09688581314879%
89.10034602076125%
90.48442906574394%
92.73356401384083%
92.73356401384083%
90.48442906574394%
91.34948096885813%
90.83044982698962%
79.58477508650519%
88.23529411764706%
88.23529411764706%
91.00346020761245%
97.23183391003461%
96.19377162629758%
80.27681660899654%
84.77508650519032%
85.98615916955016%
89.44636678200692%
92.90657439446368%
71.10726643598616%
78.719723183391%
87.37024221453287%
86.50519031141869%
94.4636678200692%
87.0242214532872%
93.07958477508652%
98.44290657439446%
96.88581314878893%
96.36678200692042%
86.50519031141869%
87.88927335640139%
90.83044982698962%
85.81314878892734%
82.52595155709342%
73.52941176470588%
71.280276816609%
76.12456747404845%
71.97231833910035%
68.68512110726644%
68.16608996539793%
93.77162629757785%
98.96193771626297%
93.77162629757785%
87.0242214532872%
82.17993079584775%
88.75432525951558%
90.48442906574394%
88.06228373702422%
87.19723183391004%
82.52595155709342%
96.36678200692042%
92.04152249134948%
66.26297577854672%
92.73356401384083%
81.4878892733564%
81.4878892733564%
87.37024221453287%
80.62283737024222%
78.20069204152249%
61.0726643598616%
77.16262975778547%
76.47058823529412%
75.9515570934256%
91.00346020761245%
92.73356401384083%
80.96885813148789%
94.80968858131487%
92.21453287197232%
83.04498269896193%
81.4878892733564%
88.92733564013841%
69.37716262975778%
78.02768166089965%
82.00692041522491%
87.19723183391004%
88.23529411764706%
79.93079584775087%
88.58131487889274%
85.81314878892734%
87.5432525951557%
86.85121107266436%
83.73702422145328%
87.37024221453287%
84.60207612456747%
90.3114186851211%
87.88927335640139%
80.79584775086505%
84.42906574394463%
81.31487889273356%
81.14186851211073%
61.93771626297578%
61.5916955017301%
87.37024221453287%
75.08650519031141%
70.06920415224913%
70.24221453287197%
81.14186851211073%
85.6401384083045%
77.33564013840831%
77.85467128027682%
71.45328719723183%
92.38754325259517%
94.4636678200692%
86.159169550173%
78.89273356401384%
80.1038062283737%
85.29411764705883%
83.91003460207612%
83.39100346020761%
82.17993079584775%
76.12456747404845%
90.65743944636678%
69.55017301038062%
75.60553633217994%
70.58823529411765%
67.82006920415225%
82.69896193771626%
84.2560553633218%
86.67820069204151%
87.88927335640139%
72.49134948096886%
72.31833910034602%
73.87543252595155%
86.159169550173%
88.06228373702422%
95.32871972318338%
90.3114186851211%
81.83391003460207%
76.98961937716263%
78.02768166089965%
81.31487889273356%
86.159169550173%
87.0242214532872%
89.96539792387543%
91.00346020761245%
80.27681660899654%
79.06574394463668%
84.2560553633218%
85.46712802768167%
78.89273356401384%
75.4325259515571%
75.25951557093425%
76.47058823529412%
76.29757785467129%
85.12110726643598%
89.44636678200692%
77.85467128027682%
72.14532871972318%
70.93425605536332%
81.66089965397923%
82.8719723183391%
84.2560553633218%
79.41176470588235%
77.85467128027682%
74.5674740484429%
78.54671280276817%
78.02768166089965%
70.41522491349481%
60.726643598615915%
60.38062283737025%
65.05190311418684%
88.92733564013841%
61.418685121107266%
77.85467128027682%
85.46712802768167%
91.17647058823529%
69.03114186851211%
73.70242214532871%
74.91349480968859%
81.31487889273356%
84.2560553633218%
85.29411764705883%
87.37024221453287%
77.68166089965398%
87.71626297577855%
68.33910034602077%
75.9515570934256%
88.58131487889274%
89.10034602076125%
78.20069204152249%
78.02768166089965%
72.83737024221453%
78.54671280276817%
81.31487889273356%
76.29757785467129%
75.4325259515571%
80.1038062283737%
79.06574394463668%
64.01384083044984%
67.1280276816609%
60.89965397923876%
61.93771626297578%
88.92733564013841%
75.08650519031141%
79.41176470588235%
69.72318339100346%
93.9446366782007%
91.17647058823529%
82.00692041522491%
82.35294117647058%
81.83391003460207%
84.94809688581316%
84.2560553633218%
84.60207612456747%
79.06574394463668%
78.89273356401384%
88.06228373702422%
74.0484429065744%
74.0484429065744%
76.12456747404845%
75.25951557093425%
72.14532871972318%
85.81314878892734%
88.06228373702422%
67.47404844290658%
64.18685121107266%
67.47404844290658%
80.44982698961938%
82.00692041522491%
86.50519031141869%
79.23875432525952%
91.17647058823529%
79.23875432525952%
85.46712802768167%
79.58477508650519%
76.29757785467129%
83.56401384083046%
93.07958477508652%
78.20069204152249%
74.39446366782006%
74.74048442906575%
74.0484429065744%
74.74048442906575%
74.74048442906575%
74.0484429065744%
74.74048442906575%
75.08650519031141%
75.60553633217994%
74.22145328719724%
65.39792387543253%
84.77508650519032%
89.10034602076125%
88.92733564013841%
90.3114186851211%
84.77508650519032%
96.02076124567473%
99.30795847750865%
82.69896193771626%
93.07958477508652%
77.68166089965398%
78.89273356401384%
83.73702422145328%
86.85121107266436%
83.39100346020761%
84.77508650519032%
98.26989619377161%
71.45328719723183%
70.93425605536332%
65.05190311418684%
78.37370242214533%
83.91003460207612%
79.58477508650519%
96.53979238754326%
86.159169550173%
83.39100346020761%
84.60207612456747%
88.58131487889274%
78.37370242214533%
83.56401384083046%
82.35294117647058%
79.93079584775087%
66.43598615916954%
69.72318339100346%
69.37716262975778%
67.47404844290658%
66.43598615916954%
72.83737024221453%
71.62629757785467%
76.8166089965398%
75.08650519031141%
69.03114186851211%
67.47404844290658%
67.47404844290658%
67.1280276816609%
70.76124567474048%
67.30103806228374%
67.30103806228374%
66.26297577854672%
72.66435986159169%
82.8719723183391%
78.02768166089965%
68.33910034602077%
69.72318339100346%
77.85467128027682%
76.64359861591696%
63.84083044982699%
69.55017301038062%
60.034602076124564%
78.37370242214533%
76.29757785467129%
63.49480968858131%
61.76470588235294%
84.60207612456747%
96.02076124567473%
93.59861591695503%
92.21453287197232%
80.62283737024222%
75.9515570934256%
78.02768166089965%
75.77854671280276%
72.83737024221453%
71.280276816609%
85.6401384083045%
75.25951557093425%
82.35294117647058%
92.73356401384083%
89.61937716262976%
95.50173010380622%
84.94809688581316%
75.08650519031141%
63.32179930795848%
76.8166089965398%
71.45328719723183%
75.25951557093425%
60.034602076124564%
61.418685121107266%
65.22491349480968%
67.99307958477509%
62.80276816608996%
62.80276816608996%
73.70242214532871%
71.45328719723183%
94.4636678200692%
65.39792387543253%
65.05190311418684%
70.06920415224913%
60.89965397923876%
61.0726643598616%
60.38062283737025%
59.86159169550172%
59.515570934256054%
79.23875432525952%
91.52249134948097%
73.1833910034602%
78.20069204152249%
82.69896193771626%
96.88581314878893%
91.00346020761245%
94.80968858131487%
95.15570934256056%
95.67474048442907%
93.25259515570934%
94.29065743944636%
99.82698961937716%
99.13494809688581%
97.57785467128028%
59.688581314878896%
59.688581314878896%
59.688581314878896%
59.86159169550172%
60.38062283737025%
81.14186851211073%
77.85467128027682%
76.98961937716263%
98.78892733564014%
69.72318339100346%
70.06920415224913%
67.30103806228374%
69.20415224913495%
67.1280276816609%
76.47058823529412%
76.98961937716263%
74.74048442906575%
70.58823529411765%
70.24221453287197%
68.16608996539793%
96.02076124567473%
67.82006920415225%
90.3114186851211%
78.54671280276817%
60.553633217993074%
96.88581314878893%
83.39100346020761%
83.56401384083046%
90.3114186851211%
60.034602076124564%
59.86159169550172%
60.726643598615915%
60.89965397923876%
76.64359861591696%
93.07958477508652%
98.26989619377161%
89.27335640138409%
97.05882352941177%
99.48096885813149%
99.13494809688581%
81.4878892733564%
60.726643598615915%
59.86159169550172%
59.86159169550172%
59.688581314878896%
59.688581314878896%
61.245674740484425%
99.65397923875432%
99.65397923875432%
88.06228373702422%
98.26989619377161%
94.29065743944636%
68.5121107266436%
68.85813148788927%
77.68166089965398%
76.8166089965398%
71.97231833910035%
99.13494809688581%
99.48096885813149%
99.65397923875432%
95.8477508650519%
66.08996539792388%
60.207612456747405%
91.52249134948097%
90.83044982698962%
88.23529411764706%
66.60899653979239%
60.553633217993074%
60.034602076124564%
59.86159169550172%
67.64705882352942%
91.86851211072664%
82.69896193771626%
99.13494809688581%
87.0242214532872%
80.1038062283737%
71.280276816609%
68.5121107266436%
71.97231833910035%
99.13494809688581%
99.65397923875432%
94.4636678200692%
74.22145328719724%
74.22145328719724%
73.52941176470588%
99.48096885813149%
98.44290657439446%
96.36678200692042%
100.0%
100.0%
100.0%
100.0%
100.0%
100.0%
98.78892733564014%
99.82698961937716%
100.0%
100.0%
68.85813148788927%
85.98615916955016%
95.15570934256056%
70.58823529411765%
71.10726643598616%
69.55017301038062%
70.24221453287197%
59.688581314878896%
72.14532871972318%
71.45328719723183%
89.10034602076125%
96.53979238754326%
100.0%
96.19377162629758%
62.45674740484429%
98.78892733564014%
91.52249134948097%
60.89965397923876%
62.28373702422145%
97.92387543252595%
93.9446366782007%
81.66089965397923%
72.31833910034602%
66.60899653979239%
79.75778546712803%
90.83044982698962%
96.7128027681661%
95.32871972318338%
68.5121107266436%
68.16608996539793%
66.60899653979239%
100.0%
60.553633217993074%
61.5916955017301%
83.04498269896193%
98.26989619377161%
59.86159169550172%
61.5916955017301%
69.20415224913495%
60.38062283737025%
60.207612456747405%
92.56055363321799%
85.29411764705883%
64.53287197231833%
60.207612456747405%
60.034602076124564%
60.034602076124564%
59.86159169550172%
60.034602076124564%
59.688581314878896%
60.207612456747405%
59.86159169550172%
59.688581314878896%
60.207612456747405%
61.0726643598616%
60.034602076124564%
60.034602076124564%
59.688581314878896%
59.688581314878896%
59.688581314878896%
59.688581314878896%
77.16262975778547%
86.85121107266436%
89.27335640138409%
99.82698961937716%
99.82698961937716%
90.83044982698962%
95.50173010380622%
93.42560553633218%
97.57785467128028%
100.0%
99.82698961937716%
100.0%
100.0%
97.23183391003461%
83.04498269896193%
82.17993079584775%
98.78892733564014%
100.0%
71.79930795847751%
71.10726643598616%
60.89965397923876%
61.418685121107266%
60.034602076124564%
61.93771626297578%
62.28373702422145%
69.37716262975778%
71.280276816609%
86.33217993079585%
93.07958477508652%
100.0%
66.43598615916954%
93.07958477508652%
92.90657439446368%
76.64359861591696%
87.5432525951557%
93.25259515570934%
60.89965397923876%
100.0%
100.0%
99.65397923875432%
99.48096885813149%
66.08996539792388%
80.96885813148789%
99.82698961937716%
99.82698961937716%
86.85121107266436%
100.0%
61.0726643598616%
72.49134948096886%
79.93079584775087%
99.13494809688581%
76.12456747404845%
81.66089965397923%
59.688581314878896%
59.688581314878896%
62.28373702422145%
99.82698961937716%
100.0%
66.43598615916954%
61.76470588235294%
60.89965397923876%
60.726643598615915%
60.726643598615915%
59.688581314878896%
59.86159169550172%
59.688581314878896%
59.688581314878896%
59.688581314878896%
59.688581314878896%
65.39792387543253%
84.2560553633218%
61.0726643598616%
63.32179930795848%
100.0%
100.0%
100.0%
73.01038062283737%
74.22145328719724%
62.45674740484429%
74.0484429065744%
74.0484429065744%
74.0484429065744%
74.0484429065744%
74.22145328719724%
58.82352941176471%
73.52941176470588%
74.0484429065744%
74.0484429065744%
74.0484429065744%
59.688581314878896%
59.688581314878896%
59.688581314878896%
59.688581314878896%
59.688581314878896%
98.78892733564014%
88.58131487889274%
100.0%
61.245674740484425%
72.31833910034602%
59.688581314878896%
94.80968858131487%
99.30795847750865%
99.65397923875432%
75.9515570934256%
100.0%
92.21453287197232%
67.1280276816609%
66.26297577854672%
67.30103806228374%
61.5916955017301%
60.034602076124564%
62.28373702422145%
68.5121107266436%
86.50519031141869%
99.65397923875432%
81.66089965397923%
59.86159169550172%
59.688581314878896%
59.688581314878896%
100.0%
64.3598615916955%
97.05882352941177%
67.1280276816609%
59.688581314878896%
61.5916955017301%
76.8166089965398%
100.0%
81.14186851211073%
100.0%
60.034602076124564%
92.04152249134948%
100.0%
100.0%
59.688581314878896%
60.034602076124564%
100.0%
100.0%
100.0%
100.0%
100.0%
100.0%
100.0%
100.0%
100.0%
100.0%
100.0%
100.0%
100.0%
100.0%
100.0%
100.0%
100.0%
100.0%
99.82698961937716%
99.82698961937716%
59.688581314878896%
62.28373702422145%
99.48096885813149%
100.0%
68.16608996539793%
100.0%
71.62629757785467%
59.688581314878896%
100.0%
100.0%
100.0%
100.0%
100.0%
100.0%
75.9515570934256%
100.0%
100.0%
59.688581314878896%
100.0%
100.0%
